Name,John Breau
Date of Birth,"Dec 20, 1971"
Recorded Date,2025-02-26 09:53:21 -0500
Classification,Sinus Rhythm
Symptoms,
Software Version,1.90
Device,"Watch6,3"
Sample Rate,512 hertz


Lead,Lead I
Unit,µV

344.452
185.536
61.844
-9.284
-29.642
-16.895
3.711
17.033
20.439
18.644
19.297
24.269
29.508
30.4
23.876
9.515
-10.905
-34.961
-60.87
-86.721
-109.912
-128.837
-142.899
-151.91
-156.512
-157.685
-156.085
-152.905
-149.95
-148.289
-148.411
-150.382
-153.668
-157.731
-161.919
-165.236
-166.496
-164.699
-160.51
-155.05
-148.289
-141.253
-132.702
-121.451
-110.937
-101.35
-94.58
-93.299
-94.528
-100.097
-108.087
-111.288
-102.426
-66.385
5.704
114.473
254.24
405.977
551.518
674.586
761.718
811.818
829.509
823.486
803.584
773.29
730.398
670.211
590.583
493.635
384.899
271.747
158.936
49.404
-53.195
-145.861
-225.889
-290.935
-340.822
-376.506
-398.432
-407.312
-404.86
-393.381
-375.857
-355.292
-333.462
-311.584
-291.21
-274.098
-261.64
-254.268
-251.394
-251.967
-255.178
-260.357
-266.48
-271.942
-275.13
-275.162
-271.848
-265.455
-256.414
-245.048
-231.916
-218.058
-204.437
-191.606
-179.814
-168.991
-158.958
-149.685
-141.046
-132.692
-124.405
-116.093
-107.763
-99.601
-91.794
-84.44
-77.649
-71.52
-66.086
-61.371
-57.35
-53.916
-50.951
-48.3
-45.804
-43.373
-40.927
-38.394
-35.714
-32.816
-29.638
-26.152
-22.347
-18.216
-13.766
-8.996
-3.925
1.392
6.872
12.405
17.892
23.275
28.516
33.589
38.477
43.164
47.65
51.963
56.131
60.18
64.126
67.981
71.763
75.504
79.243
83.026
86.887
90.844
94.907
99.081
103.363
107.746
112.214
116.74
121.298
125.864
130.414
134.925
139.373
143.725
147.951
152.014
155.882
159.523
162.908
166.012
168.811
171.277
173.381
175.092
176.383
177.239
177.643
177.585
177.054
176.053
174.596
172.716
170.446
167.808
164.805
161.432
157.687
153.57
149.087
144.244
139.025
133.41
127.39
120.965
114.137
106.89
99.177
90.921
82.06
72.577
62.491
51.852
40.708
29.123
17.177
4.98
-7.319
-19.576
-31.682
-43.549
-55.089
-66.192
-76.706
-86.446
-95.264
-103.064
-109.789
-115.417
-119.926
-123.326
-125.668
-127.058
-127.648
-127.563
-126.892
-125.698
-124.042
-122.009
-119.719
-117.308
-114.876
-112.495
-110.218
-108.085
-106.138
-104.391
-102.82
-101.357
-99.904
-98.394
-96.795
-95.092
-93.277
-91.332
-89.227
-86.934
-84.451
-81.781
-78.928
-75.895
-72.679
-69.293
-65.774
-62.176
-58.563
-54.981
-51.461
-48.024
-44.69
-41.476
-38.401
-35.472
-32.686
-30.046
-27.556
-25.225
-23.065
-21.08
-19.271
-17.634
-16.165
-14.861
-13.725
-12.758
-11.958
-11.329
-10.873
-10.596
-10.503
-10.599
-10.885
-11.359
-12.019
-12.862
-13.885
-15.081
-16.445
-17.968
-19.645
-21.467
-23.427
-25.515
-27.723
-30.039
-32.452
-34.95
-37.521
-40.15
-42.822
-45.523
-48.236
-50.945
-53.631
-56.276
-58.863
-61.372
-63.786
-66.084
-68.25
-70.264
-72.11
-73.772
-75.235
-76.485
-77.509
-78.297
-78.839
-79.126
-79.153
-78.913
-78.402
-77.618
-76.561
-75.231
-73.63
-71.763
-69.634
-67.251
-64.622
-61.757
-58.668
-55.369
-51.873
-48.2
-44.366
-40.394
-36.304
-32.118
-27.859
-23.553
-19.223
-14.895
-10.593
-6.342
-2.166
1.911
5.864
9.669
13.304
16.747
19.975
22.966
25.699
28.152
30.301
32.13
33.622
34.766
35.549
35.967
36.011
35.68
34.976
33.904
32.468
30.674
28.525
26.032
23.217
20.105
16.736
13.137
9.332
5.339
1.171
-3.157
-7.623
-12.212
-16.919
-21.727
-26.612
-31.525
-36.382
-41.123
-45.702
-50.097
-54.325
-58.353
-62.106
-65.504
-68.429
-70.807
-72.647
-73.886
-74.407
-74.207
-73.323
-71.991
-70.721
-69.78
-69.194
-68.972
-68.996
-69.184
-69.62
-69.936
-69.285
-67.149
-63.26
-57.701
-51.106
-43.856
-35.986
-28.087
-21.304
-16.873
-16.167
-19.9
-27.904
-40.012
-56.106
-75.61
-97.201
-118.423
-135.858
-146.294
-146.935
-135.488
-110.041
-68.614
-10.154
64.344
152.235
249.728
352.052
454.788
553.42
642.123
715.334
768.851
799.456
805.636
787.585
745.466
680.308
595.25
494.231
381.688
262.835
142.391
24.38
-86.679
-186.629
-272.475
-341.815
-393.346
-427.221
-444.2
-445.408
-432.819
-408.999
-376.805
-339.559
-300.344
-261.558
-225.146
-192.572
-164.992
-142.99
-126.101
-113.167
-102.814
-93.321
-84.419
-76.435
-67.575
-57.119
-43.152
-23.788
-3.34
14.651
26.201
27.234
21.623
12.566
2.854
-3.137
-6.984
-9.777
-11.425
-13.992
-16.736
-18.452
-19.533
-19.804
-19.648
-20.147
-21.293
-22.353
-22.986
-22.911
-21.95
-20.294
-17.944
-14.609
-10.339
-5.489
-0.322
4.844
9.787
14.527
19.033
23.206
27.036
30.539
33.741
36.732
39.575
42.283
44.883
47.397
49.848
52.289
54.771
57.346
60.068
62.974
66.085
69.42
72.992
76.807
80.867
85.158
89.657
94.347
99.215
104.248
109.434
114.749
120.164
125.654
131.19
136.745
142.294
147.807
153.253
158.605
163.833
168.913
173.819
178.525
183.002
187.223
191.161
194.789
198.082
201.017
203.57
205.72
207.448
208.737
209.575
209.949
209.851
209.274
208.214
206.67
204.643
202.137
199.16
195.719
191.827
187.497
182.746
177.592
172.056
166.16
159.929
153.389
146.565
139.487
132.182
124.68
117.011
109.205
101.292
93.303
85.268
77.219
69.185
61.195
53.279
45.463
37.774
30.235
22.871
15.704
8.753
2.037
-4.427
-10.625
-16.542
-22.167
-27.491
-32.507
-37.208
-41.593
-45.658
-49.405
-52.835
-55.952
-58.759
-61.264
-63.473
-65.395
-67.039
-68.415
-69.534
-70.41
-71.055
-71.483
-71.709
-71.747
-71.614
-71.323
-70.892
-70.335
-69.669
-68.908
-68.067
-67.162
-66.207
-65.216
-64.202
-63.177
-62.154
-61.143
-60.154
-59.195
-58.273
-57.396
-56.569
-55.797
-55.084
-54.435
-53.85
-53.334
-52.886
-52.508
-52.199
-51.958
-51.784
-51.674
-51.626
-51.635
-51.698
-51.81
-51.967
-52.163
-52.392
-52.647
-52.924
-53.218
-53.522
-53.833
-54.145
-54.446
-54.734
-55.009
-55.254
-55.459
-55.617
-55.709
-55.737
-55.727
-55.672
-55.558
-55.433
-55.314
-55.203
-55.15
-55.141
-55.083
-54.982
-54.875
-54.58
-53.951
-53.151
-52.14
-50.834
-49.758
-48.064
-44.658
-40.974
-37.477
-36.413
-41.9
-51.453
-61.389
-67.861
-63.622
-49.806
-33.311
-18.799
-13.609
-19.461
-29.405
-39.359
-45.2
-44.065
-40.053
-35.731
-31.895
-30.173
-29.299
-28.164
-27.15
-26.046
-24.926
-24.064
-23.284
-22.438
-21.564
-20.646
-19.637
-18.552
-17.412
-16.217
-14.992
-13.767
-12.528
-11.268
-9.999
-8.718
-7.428
-6.137
-4.847
-3.562
-2.292
-1.049
0.157
1.315
2.41
3.428
4.354
5.176
5.882
6.464
6.912
7.214
7.363
7.351
7.175
6.832
6.316
5.618
4.734
3.662
2.411
0.998
-0.565
-2.275
-4.136
-6.159
-8.348
-10.696
-13.206
-15.883
-18.729
-21.735
-24.871
-28.071
-31.266
-34.404
-37.452
-40.411
-43.27
-45.976
-48.442
-50.554
-52.227
-53.432
-54.161
-54.36
-53.93
-52.843
-51.247
-49.525
-48.09
-47.174
-46.738
-46.617
-46.9
-47.773
-49.15
-50.564
-51.242
-50.533
-48.513
-45.793
-42.548
-38.672
-34.31
-29.99
-27.031
-27.126
-30.866
-37.815
-48.059
-61.902
-79.094
-99.052
-118.893
-133.343
-139.718
-137.076
-125.636
-108.588
-84.315
-47.286
8.337
90.405
199.612
329.223
467.454
597.051
705.252
784.204
832.864
857.815
863.365
852.962
826.894
780.564
712.984
625.72
522.173
409.164
292.656
176.77
65.592
-37.12
-128.051
-204.079
-263.069
-304.591
-329.397
-338.506
-333.402
-316.493
-290.891
-260.177
-227.984
-197.102
-169.09
-145.168
-126.546
-113.53
-105.459
-100.991
-98.013
-94.564
-89.811
-83.189
-73.948
-61.904
-47.33
-30.938
-14.264
1.115
14.433
25.258
33.273
38.472
40.891
40.732
38.641
35.395
31.538
27.406
23.17
18.907
14.772
10.988
7.752
5.158
3.246
2.055
1.616
1.984
3.187
5.175
7.842
11.072
14.745
18.791
23.181
27.855
32.736
37.721
42.669
47.488
52.14
56.586
60.806
64.786
68.513
72.011
75.34
78.554
81.699
84.805
87.883
90.959
94.07
97.256
100.567
104.034
107.669
111.485
115.49
119.688
124.078
128.645
133.361
138.204
143.155
148.195
153.306
158.461
163.63
168.783
173.886
178.907
183.813
188.572
193.154
197.535
201.688
205.586
209.198
212.49
215.433
218.006
220.189
221.965
223.326
224.271
224.814
224.988
224.814
224.3
223.446
222.239
220.67
218.739
216.44
213.767
210.716
207.272
203.437
199.224
194.624
189.619
184.161
178.173
171.613
164.487
156.814
148.644
140.039
131.066
121.82
112.426
102.996
93.633
84.419
75.408
66.683
58.349
50.534
43.4
37.063
31.582
26.999
23.327
20.546
18.622
17.466
16.935
16.916
17.316
18.062
19.113
20.403
21.837
23.314
24.712
25.933
26.918
27.606
27.95
27.934
27.558
26.863
25.939
24.846
23.616
22.268
20.799
19.214
17.536
15.781
13.964
12.102
10.199
8.267
6.324
4.369
2.394
0.371
-1.745
-3.983
-6.355
-8.866
-11.511
-14.281
-17.171
-20.166
-23.241
-26.378
-29.556
-32.761
-35.981
-39.199
-42.395
-45.544
-48.62
-51.599
-54.46
-57.184
-59.753
-62.153
-64.37
-66.395
-68.225
-69.856
-71.282
-72.5
-73.507
-74.301
-74.885
-75.26
-75.429
-75.397
-75.172
-74.764
-74.183
-73.443
-72.557
-71.54
-70.407
-69.177
-67.866
-66.492
-65.07
-63.618
-62.154
-60.696
-59.266
-57.879
-56.546
-55.296
-54.152
-53.138
-52.277
-51.574
-51.024
-50.651
-50.478
-50.479
-50.632
-50.922
-51.317
-51.846
-52.559
-53.424
-54.382
-55.565
-57.126
-58.958
-61.057
-63.441
-65.742
-68.894
-73.802
-79.129
-84.458
-87.347
-84.877
-80.236
-75.543
-73.962
-79.845
-89.301
-99.028
-106.761
-108.766
-107.682
-106.182
-104.848
-105.301
-106.579
-107.453
-108.136
-108.453
-108.474
-108.432
-108.174
-107.589
-106.707
-105.526
-104.075
-102.397
-100.533
-98.539
-96.422
-94.17
-91.822
-89.449
-86.926
-84.097
-81.095
-77.942
-74.627
-71.566
-67.74
-62.155
-56.293
-50.624
-47.85
-51.206
-57.166
-63.39
-66.376
-61.305
-52.474
-43.529
-36.968
-36.9
-40.387
-44.452
-48.435
-50.533
-51.811
-53.626
-55.718
-58.256
-61.133
-64.052
-67.159
-70.541
-74.093
-77.751
-81.477
-85.228
-88.951
-92.591
-96.057
-99.247
-102.092
-104.544
-106.538
-108.03
-109.012
-109.505
-109.569
-109.301
-108.782
-108.105
-107.377
-106.693
-106.158
-105.873
-105.937
-106.537
-107.943
-110.291
-113.622
-117.825
-122.493
-127.181
-131.44
-134.541
-135.685
-134.483
-130.757
-124.72
-117.609
-110.831
-105.687
-104.145
-106.394
-110.206
-114.231
-116.713
-119.14
-127.439
-141.351
-154.842
-153.659
-117.439
-38.294
80.282
223.567
370.594
512.29
643.486
761.068
860.705
927.535
952.938
934.938
877.315
792.002
683.049
552.848
407.157
254.587
113.478
-1.698
-86.186
-144.209
-189.471
-230.84
-270.049
-304.052
-325.366
-331.323
-323.95
-306.702
-284.94
-262.247
-239.732
-218.575
-199.603
-183.25
-170.713
-162.754
-158.483
-156.585
-155.987
-155.066
-153.62
-153.15
-152.61
-149.754
-142.071
-124.897
-98.365
-68.685
-43.39
-31.194
-35.949
-52.88
-72.758
-86.991
-90.343
-83.519
-73.523
-65.641
-62.773
-66.187
-71.989
-77.444
-81.792
-83.729
-84.278
-84.324
-83.498
-81.964
-79.644
-76.337
-72.309
-67.824
-62.967
-57.84
-52.537
-47.083
-41.546
-36.039
-30.626
-25.347
-20.256
-15.379
-10.738
-6.36
-2.247
1.627
5.291
8.786
12.146
15.383
18.518
21.575
24.587
27.6
30.647
33.746
36.912
40.154
43.482
46.901
50.409
53.99
57.628
61.309
65.022
68.76
72.511
76.259
79.988
83.677
87.309
90.871
94.344
97.711
100.955
104.06
107.01
109.793
112.395
114.8
116.99
118.951
120.666
122.121
123.302
124.196
124.791
125.078
125.051
124.705
124.035
123.04
121.72
120.077
118.113
115.834
113.248
110.361
107.185
103.732
100.014
96.046
91.844
87.422
82.8
77.995
73.025
67.911
62.672
57.33
51.905
46.42
40.897
35.358
29.825
24.319
18.863
13.475
8.177
2.987
-2.079
-7.003
-11.773
-16.374
-20.794
-25.024
-29.055
-32.879
-36.49
-39.885
-43.061
-46.017
-48.751
-51.267
-53.565
-55.65
-57.525
-59.197
-60.671
-61.954
-63.055
-63.983
-64.747
-65.358
-65.829
-66.169
-66.393
-66.512
-66.54
-66.489
-66.372
-66.202
-65.99
-65.748
-65.487
-65.217
-64.948
-64.688
-64.445
-64.225
-64.035
-63.878
-63.758
-63.679
-63.641
-63.646
-63.694
-63.785
-63.918
-64.091
-64.302
-64.548
-64.826
-65.131
-65.459
-65.805
-66.163
-66.528
-66.892
-67.25
-67.595
-67.92
-68.22
-68.486
-68.715
-68.899
-69.033
-69.114
-69.137
-69.099
-68.998
-68.832
-68.602
-68.308
-67.951
-67.534
-67.059
-66.53
-65.952
-65.328
-64.665
-63.968
-63.243
-62.497
-61.737
-60.971
-60.206
-59.45
-58.712
-57.999
-57.321
-56.685
-56.1
-55.573
-55.113
-54.725
-54.418
-54.197
-54.068
-54.034
-54.1
-54.268
-54.538
-54.911
-55.385
-55.957
-56.623
-57.379
-58.218
-59.133
-60.117
-61.161
-62.256
-63.392
-64.557
-65.74
-66.929
-68.111
-69.273
-70.402
-71.483
-72.503
-73.446
-74.3
-75.05
-75.682
-76.184
-76.543
-76.745
-76.781
-76.638
-76.309
-75.785
-75.059
-74.128
-72.987
-71.637
-70.078
-68.311
-66.343
-64.178
-61.824
-59.29
-56.587
-53.726
-50.722
-47.589
-44.343
-41.003
-37.586
-34.116
-30.617
-27.112
-23.628
-20.193
-16.833
-13.576
-10.45
-7.481
-4.69
-2.101
0.265
2.385
4.238
5.804
7.067
8.013
8.63
8.912
8.85
8.447
7.711
6.649
5.267
3.566
1.536
-0.829
-3.525
-6.544
-9.872
-13.492
-17.381
-21.501
-25.795
-30.203
-34.669
-39.138
-43.571
-47.915
-52.104
-56.056
-59.671
-62.851
-65.532
-67.664
-69.202
-70.13
-70.447
-70.169
-69.382
-68.205
-66.742
-65.117
-63.438
-61.788
-60.345
-59.394
-59.172
-59.812
-61.289
-63.342
-65.675
-68.051
-70.032
-70.959
-70.306
-67.854
-63.836
-59.094
-54.748
-51.834
-51.575
-55.546
-63.748
-74.282
-85.194
-93.48
-98.809
-104.537
-109.805
-110.395
-97.638
-57.981
15.038
119.967
250.866
396.622
546.547
691.371
817.932
911.434
962.774
969.145
937.478
882.667
814.284
736.369
648.866
547.526
433.414
312.314
190.253
74.291
-30.552
-121.871
-197.573
-256.293
-298.304
-324.581
-336.282
-335.333
-323.91
-304.258
-279.236
-251.699
-223.341
-195.516
-169.714
-146.906
-127.937
-113.21
-102.14
-93.697
-87.263
-82.114
-77.166
-71.637
-64.715
-55.883
-45.447
-34.106
-22.469
-11.303
-1.519
6.361
11.874
14.721
15.092
13.308
9.767
5.069
-0.194
-5.662
-11.027
-16.058
-20.621
-24.485
-27.496
-29.635
-30.906
-31.338
-30.943
-29.702
-27.636
-24.837
-21.424
-17.527
-13.241
-8.606
-3.683
1.449
6.688
11.889
16.959
21.857
26.544
31
35.205
39.138
42.814
46.285
49.596
52.786
55.884
58.897
61.845
64.759
67.673
70.633
73.666
76.785
80.001
83.322
86.751
90.291
93.93
97.641
101.405
105.206
109.028
112.863
116.693
120.501
124.267
127.973
131.6
135.132
138.549
141.834
144.969
147.938
150.726
153.322
155.712
157.883
159.822
161.514
162.949
164.114
165
165.598
165.898
165.895
165.585
164.964
164.032
162.788
161.233
159.369
157.202
154.736
151.977
148.933
145.613
142.028
138.187
134.103
129.789
125.258
120.526
115.607
110.518
105.276
99.896
94.397
88.796
83.11
77.357
71.555
65.719
59.869
54.02
48.19
42.394
36.649
30.97
25.371
19.865
14.466
9.186
4.036
-0.972
-5.829
-10.524
-15.051
-19.399
-23.563
-27.536
-31.313
-34.889
-38.262
-41.427
-44.384
-47.132
-49.67
-52
-54.121
-56.037
-57.749
-59.262
-60.578
-61.703
-62.642
-63.401
-63.986
-64.404
-64.663
-64.77
-64.733
-64.56
-64.261
-63.842
-63.314
-62.686
-61.965
-61.162
-60.285
-59.344
-58.348
-57.304
-56.223
-55.112
-53.979
-52.831
-51.677
-50.523
-49.376
-48.242
-47.129
-46.041
-44.984
-43.964
-42.985
-42.051
-41.167
-40.334
-39.557
-38.837
-38.177
-37.578
-37.041
-36.569
-36.161
-35.817
-35.539
-35.326
-35.177
-35.092
-35.07
-35.109
-35.208
-35.367
-35.582
-35.854
-36.179
-36.557
-36.984
-37.459
-37.979
-38.542
-39.145
-39.786
-40.462
-41.17
-41.907
-42.67
-43.457
-44.265
-45.09
-45.93
-46.781
-47.64
-48.503
-49.368
-50.23
-51.085
-51.93
-52.76
-53.572
-54.36
-55.121
-55.85
-56.542
-57.193
-57.799
-58.356
-58.858
-59.301
-59.683
-59.997
-60.24
-60.408
-60.496
-60.5
-60.415
-60.239
-59.967
-59.596
-59.123
-58.545
-57.86
-57.064
-56.157
-55.136
-54.001
-52.751
-51.386
-49.907
-48.317
-46.617
-44.811
-42.903
-40.897
-38.798
-36.613
-34.347
-32.008
-29.602
-27.138
-24.625
-22.072
-19.49
-16.892
-14.292
-11.706
-9.151
-6.643
-4.199
-1.837
0.424
2.569
4.583
6.452
8.162
9.698
11.045
12.185
13.103
13.786
14.22
14.394
14.299
13.928
13.283
12.364
11.172
9.703
7.94
5.868
3.483
0.784
-2.224
-5.524
-9.095
-12.9
-16.878
-20.967
-25.107
-29.241
-33.331
-37.336
-41.204
-44.874
-48.267
-51.305
-53.936
-56.118
-57.82
-59.054
-59.853
-60.305
-60.55
-60.72
-60.947
-61.375
-62.137
-63.38
-65.247
-67.844
-71.324
-75.912
-81.735
-88.794
-96.883
-105.519
-114.221
-122.576
-129.992
-135.763
-139.323
-140.392
-139.398
-137.357
-135.108
-133.34
-132.814
-134.246
-138.199
-143.683
-147.28
-145.274
-135.361
-118.625
-98.66
-75.968
-45.508
2.954
79.282
185.815
314.863
450.664
577.792
685.772
770.189
832.26
872.562
889.842
882.273
847.026
783.711
695.171
586.635
465.748
338.826
210.098
82.308
-43.919
-163.309
-266.554
-345.948
-393.385
-409.217
-402.794
-382.076
-356.658
-332.055
-306.484
-279.709
-251.319
-221.383
-193.266
-169.3
-149.96
-135.272
-124.048
-115.08
-108.602
-103.664
-98.845
-94.333
-89.124
-84.942
-84.702
-85.461
-85.302
-81.102
-68.67
-52.683
-37.555
-26.228
-22.646
-23.965
-27.115
-31.2
-34.299
-36.94
-39.763
-42.101
-43.888
-44.937
-45.025
-44.33
-42.959
-40.895
-38.209
-34.987
-31.291
-27.18
-22.698
-17.91
-12.907
-7.813
-2.765
2.144
6.856
11.32
15.496
19.361
22.901
26.12
29.035
31.666
34.031
36.157
38.077
39.83
41.467
43.042
44.614
46.231
47.927
49.731
51.664
53.738
55.966
58.349
60.883
63.564
66.391
69.36
72.467
75.705
79.061
82.521
86.066
89.68
93.344
97.04
100.751
104.457
108.139
111.781
115.364
118.869
122.274
125.558
128.696
131.666
134.445
137.011
139.341
141.417
143.218
144.729
145.936
146.823
147.382
147.6
147.472
146.991
146.153
144.957
143.403
141.494
139.233
136.628
133.687
130.42
126.84
122.96
118.796
114.363
109.679
104.765
99.639
94.324
88.84
83.211
77.461
71.611
65.687
59.71
53.706
47.696
41.701
35.745
29.845
24.023
18.296
12.682
7.198
1.857
-3.325
-8.337
-13.166
-17.803
-22.239
-26.466
-30.479
-34.274
-37.847
-41.196
-44.322
-47.225
-49.907
-52.372
-54.625
-56.672
-58.52
-60.176
-61.65
-62.949
-64.086
-65.069
-65.909
-66.617
-67.205
-67.683
-68.062
-68.354
-68.57
-68.722
-68.818
-68.872
-68.893
-68.891
-68.876
-68.858
-68.846
-68.848
-68.873
-68.928
-69.018
-69.151
-69.332
-69.563
-69.849
-70.192
-70.593
-71.052
-71.571
-72.146
-72.777
-73.461
-74.194
-74.973
-75.795
-76.653
-77.544
-78.462
-79.402
-80.358
-81.324
-82.294
-83.261
-84.219
-85.162
-86.082
-86.973
-87.827
-88.638
-89.398
-90.101
-90.741
-91.31
-91.804
-92.215
-92.541
-92.775
-92.915
-92.957
-92.899
-92.738
-92.475
-92.108
-91.638
-91.066
-90.394
-89.624
-88.757
-87.798
-86.749
-85.613
-84.394
-83.097
-81.725
-80.283
-78.774
-77.204
-75.577
-73.898
-72.173
-70.407
-68.604
-66.77
-64.909
-63.027
-61.128
-59.216
-57.297
-55.373
-53.449
-51.527
-49.612
-47.705
-45.808
-43.923
-42.051
-40.193
-38.348
-36.516
-34.696
-32.889
-31.094
-29.31
-27.536
-25.772
-24.017
-22.272
-20.537
-18.813
-17.101
-15.402
-13.719
-12.053
-10.408
-8.787
-7.194
-5.634
-4.112
-2.635
-1.217
0.131
1.398
2.574
3.654
4.626
5.473
6.193
6.799
7.299
7.698
7.988
8.13
8.112
7.957
7.638
7.081
6.235
5.052
3.53
1.764
-0.222
-2.534
-5.094
-7.573
-9.906
-12.19
-14.376
-16.808
-18.827
-18.315
-15.607
-12.542
-12.062
-19.914
-35.858
-53.965
-68.476
-71.268
-61.566
-47.108
-34.03
-28.819
-32.653
-39.856
-46.823
-50.582
-51.288
-52.388
-53.731
-55.244
-54.109
-45.225
-32.155
-19.406
-13.451
-24.427
-48.427
-76.291
-99.656
-106.159
-96.977
-81.799
-66.52
-58.796
-59.015
-60.748
-62.079
-62.155
-61.86
-64.274
-69.322
-75.977
-83.263
-91.867
-104.83
-121.495
-137.877
-144.332
-126.033
-74.179
13.172
129.952
262.075
395.347
517.221
618.765
694.036
741.359
763.994
764.333
746.124
710.845
655.15
578.975
484.355
374.991
258.331
140.71
26.265
-80.948
-177.533
-260.806
-328.377
-378.96
-412.899
-431.318
-435.262
-426.152
-406.167
-377.852
-344.002
-307.219
-269.366
-231.874
-196.584
-165.576
-139.944
-119.867
-104.969
-94.463
-87.702
-84.147
-82.531
-80.858
-77.875
-73.164
-66.709
-59.006
-50.47
-41.287
-32.168
-24.351
-18.622
-15.296
-14.373
-15.386
-17.922
-21.775
-26.508
-31.5
-36.26
-40.363
-43.567
-45.891
-47.351
-47.935
-47.681
-46.626
-44.821
-42.367
-39.351
-35.837
-31.899
-27.585
-22.958
-18.115
-13.167
-8.255
-3.479
1.11
5.483
9.627
13.529
17.175
20.576
23.779
26.829
29.763
32.612
35.388
38.117
40.84
43.603
46.458
49.441
52.567
55.851
59.3
62.92
66.713
70.668
74.76
78.97
83.282
87.682
92.159
96.698
101.277
105.873
110.466
115.034
119.558
124.015
128.384
132.644
136.773
140.755
144.573
148.208
151.643
154.858
157.835
160.556
163.004
165.165
167.022
168.562
169.773
170.647
171.177
171.355
171.178
170.644
169.751
168.502
166.899
164.946
162.649
160.015
157.055
153.779
150.199
146.327
142.179
137.77
133.117
128.238
123.152
117.877
112.433
106.839
101.118
95.288
89.371
83.388
77.358
71.303
65.243
59.196
53.183
47.221
41.328
35.521
29.814
24.224
18.764
13.446
8.284
3.288
-1.532
-6.167
-10.61
-14.852
-18.89
-22.719
-26.335
-29.735
-32.92
-35.888
-38.64
-41.177
-43.501
-45.616
-47.524
-49.23
-50.738
-52.054
-53.184
-54.133
-54.908
-55.515
-55.963
-56.257
-56.406
-56.417
-56.299
-56.057
-55.702
-55.241
-54.682
-54.033
-53.302
-52.497
-51.626
-50.695
-49.713
-48.685
-47.618
-46.52
-45.396
-44.253
-43.096
-41.931
-40.766
-39.604
-38.452
-37.316
-36.202
-35.115
-34.061
-33.046
-32.076
-31.157
-30.296
-29.497
-28.767
-28.112
-27.536
-27.044
-26.641
-26.331
-26.117
-26.002
-25.99
-26.083
-26.284
-26.592
-27.011
-27.54
-28.179
-28.927
-29.782
-30.744
-31.808
-32.971
-34.228
-35.576
-37.007
-38.515
-40.092
-41.73
-43.419
-45.147
-46.904
-48.677
-50.453
-52.218
-53.959
-55.662
-57.312
-58.898
-60.405
-61.82
-63.13
-64.323
-65.388
-66.312
-67.086
-67.7
-68.145
-68.415
-68.503
-68.405
-68.118
-67.639
-66.97
-66.11
-65.062
-63.829
-62.418
-60.835
-59.089
-57.19
-55.153
-52.991
-50.722
-48.362
-45.932
-43.452
-40.944
-38.43
-35.932
-33.473
-31.077
-28.767
-26.566
-24.498
-22.587
-20.857
-19.333
-18.04
-17.001
-16.238
-15.77
-15.616
-15.792
-16.308
-17.173
-18.39
-19.965
-21.9
-24.198
-26.858
-29.876
-33.242
-36.946
-40.973
-45.305
-49.916
-54.773
-59.847
-65.108
-70.537
-76.124
-81.854
-87.705
-93.647
-99.651
-105.678
-111.687
-117.622
-123.406
-128.967
-134.236
-139.157
-143.689
-147.784
-151.382
-154.413
-156.792
-158.451
-159.346
-159.454
-158.766
-157.298
-155.076
-152.16
-148.682
-144.779
-140.587
-136.238
-131.829
-127.483
-123.402
-119.848
-117.023
-115.035
-113.837
-113.195
-112.837
-112.408
-111.371
-109.09
-105.087
-99.129
-91.365
-82.611
-74.007
-66.851
-62.86
-62.406
-63.918
-66.044
-66.725
-67.028
-72.449
-84.026
-99.598
-109.46
-93.908
-40.429
56.705
193.299
348.163
500.511
631.075
724.537
780.368
804.068
804.876
792.221
768.369
730.344
672.367
591.907
491.263
376.556
257.607
140.182
26.207
-82.73
-188.143
-286.535
-368.94
-428.422
-457.348
-455.394
-431.522
-394.549
-354.534
-317.046
-280.214
-242.994
-204.761
-166.599
-133.104
-106.779
-87.645
-74.847
-66.53
-61.658
-59.91
-60.35
-61.272
-61.007
-58.783
-54.695
-49.284
-42.959
-35.915
-28.49
-21.536
-16.165
-12.945
-11.901
-12.715
-14.919
-18.204
-22.334
-26.856
-31.137
-34.704
-37.301
-38.862
-39.497
-39.266
-38.165
-36.234
-33.555
-30.239
-26.409
-22.159
-17.542
-12.618
-7.458
-2.159
3.128
8.283
13.228
17.917
22.35
26.537
30.451
34.081
37.487
40.735
43.889
47.018
50.115
53.155
56.202
59.352
62.527
65.607
68.712
71.847
74.989
78.49
81.42
82.864
84.103
85.514
89.469
98.815
110.379
122.036
130.628
131.817
129.397
126.582
125.57
130.004
137.241
144.607
151.49
156.253
159.818
163.373
166.668
169.838
172.78
175.23
177.332
179.196
180.762
182.007
182.933
183.527
183.77
183.65
183.141
182.21
180.868
179.128
176.988
174.454
171.532
168.228
164.557
160.533
156.169
151.477
146.474
141.178
135.607
129.783
123.727
117.461
111.008
104.393
97.639
90.772
83.816
76.797
69.739
62.667
55.605
48.577
41.605
34.712
27.919
21.245
14.711
8.333
2.128
-3.889
-9.703
-15.304
-20.677
-25.815
-30.706
-35.344
-39.721
-43.832
-47.672
-51.238
-54.527
-57.539
-60.273
-62.731
-64.916
-66.83
-68.477
-69.863
-70.993
-71.873
-72.511
-72.914
-73.09
-73.049
-72.799
-72.349
-71.711
-70.894
-69.908
-68.763
-67.47
-66.04
-64.483
-62.809
-61.03
-59.155
-57.195
-55.162
-53.065
-50.916
-48.724
-46.501
-44.257
-42.001
-39.743
-37.494
-35.262
-33.058
-30.89
-28.768
-26.699
-24.693
-22.759
-20.903
-19.135
-17.459
-15.885
-14.417
-13.062
-11.824
-10.709
-9.721
-8.864
-8.141
-7.554
-7.106
-6.799
-6.632
-6.606
-6.721
-6.976
-7.369
-7.897
-8.557
-9.346
-10.259
-11.291
-12.436
-13.689
-15.042
-16.487
-18.016
-19.619
-21.288
-23.011
-24.779
-26.579
-28.401
-30.234
-32.065
-33.882
-35.675
-37.431
-39.14
-40.789
-42.368
-43.867
-45.274
-46.58
-47.774
-48.848
-49.791
-50.596
-51.255
-51.759
-52.103
-52.281
-52.287
-52.117
-51.766
-51.233
-50.515
-49.611
-48.522
-47.249
-45.794
-44.161
-42.356
-40.383
-38.249
-35.962
-33.531
-30.964
-28.273
-25.467
-22.557
-19.557
-16.479
-13.336
-10.143
-6.915
-3.669
-0.422
2.805
5.995
9.127
12.181
15.135
17.971
20.669
23.21
25.579
27.759
29.733
31.484
32.996
34.253
35.241
35.946
36.358
36.467
36.266
35.755
34.936
33.81
32.377
30.626
28.55
26.15
23.43
20.398
17.071
13.472
9.638
5.623
1.485
-2.72
-6.942
-11.147
-15.294
-19.342
-23.233
-26.894
-30.265
-33.298
-35.96
-38.225
-40.078
-41.546
-42.697
-43.654
-44.541
-45.452
-46.47
-47.679
-49.193
-51.125
-53.606
-56.749
-60.674
-65.564
-71.504
-78.402
-86.007
-93.889
-101.509
-108.364
-113.907
-117.393
-118.345
-116.877
-113.512
-109.113
-104.641
-100.868
-98.376
-98.014
-100.434
-103.786
-105.5
-104.335
-97.384
-84.6
-66.93
-38.199
4.768
63.08
140.378
231.262
330.802
439.117
547.793
647.102
727.821
776.53
790.125
775.33
738.37
686.828
623.071
543.742
448.787
340.306
223.19
104.405
-11.203
-118.885
-214.182
-294.32
-356.913
-401.033
-427.613
-437.09
-429.998
-408.808
-376.73
-337.355
-294.538
-250.978
-208.443
-169.388
-136.562
-111.173
-93.294
-82.134
-76.149
-74.211
-75.521
-78.481
-80.802
-81.05
-78.677
-73.752
-67.045
-59.188
-50.535
-41.927
-34.638
-29.478
-26.763
-26.451
-27.985
-30.837
-34.673
-38.951
-43.036
-46.495
-49.01
-50.434
-50.844
-50.294
-48.799
-46.438
-43.295
-39.447
-35.005
-30.061
-24.707
-19.072
-13.286
-7.492
-1.811
3.668
8.865
13.73
18.234
22.364
26.122
29.522
32.573
35.292
37.712
39.863
41.787
43.538
45.167
46.736
48.3
49.895
51.552
53.292
55.125
57.06
59.1
61.239
63.474
65.804
68.227
70.743
73.349
76.036
78.794
81.612
84.474
87.37
90.286
93.211
96.131
99.033
101.903
104.732
107.503
110.202
112.809
115.306
117.673
119.892
121.942
123.805
125.463
126.898
128.095
129.04
129.722
130.129
130.25
130.078
129.605
128.827
127.737
126.335
124.618
122.588
120.245
117.595
114.643
111.397
107.865
104.058
99.989
95.671
91.118
86.348
81.377
76.223
70.907
65.448
59.867
54.185
48.425
42.609
36.757
30.892
25.034
19.204
13.421
7.704
2.071
-3.46
-8.874
-14.154
-19.285
-24.254
-29.047
-33.652
-38.059
-42.257
-46.238
-49.995
-53.523
-56.815
-59.87
-62.685
-65.26
-67.594
-69.689
-71.548
-73.175
-74.574
-75.752
-76.715
-77.471
-78.028
-78.394
-78.58
-78.594
-78.446
-78.147
-77.707
-77.136
-76.444
-75.642
-74.742
-73.753
-72.686
-71.553
-70.365
-69.131
-67.861
-66.567
-65.258
-63.942
-62.628
-61.325
-60.04
-58.781
-57.554
-56.365
-55.22
-54.124
-53.08
-52.094
-51.168
-50.305
-49.507
-48.777
-48.116
-47.525
-47.006
-46.559
-46.185
-45.884
-45.657
-45.503
-45.42
-45.409
-45.466
-45.592
-45.782
-46.036
-46.35
-46.721
-47.147
-47.624
-48.148
-48.717
-49.327
-49.973
-50.653
-51.361
-52.096
-52.852
-53.626
-54.414
-55.212
-56.016
-56.822
-57.626
-58.422
-59.206
-59.973
-60.717
-61.434
-62.118
-62.763
-63.364
-63.915
-64.412
-64.849
-65.221
-65.523
-65.752
-65.901
-65.968
-65.949
-65.839
-65.636
-65.336
-64.938
-64.439
-63.838
-63.134
-62.327
-61.414
-60.398
-59.278
-58.057
-56.735
-55.316
-53.803
-52.201
-50.516
-48.753
-46.921
-45.028
-43.084
-41.097
-39.079
-37.041
-34.994
-32.951
-30.925
-28.931
-26.981
-25.092
-23.28
-21.564
-19.962
-18.491
-17.166
-16.005
-15.026
-14.247
-13.687
-13.357
-13.272
-13.443
-13.883
-14.607
-15.624
-16.939
-18.55
-20.457
-22.657
-25.154
-27.946
-31.02
-34.356
-37.936
-41.742
-45.77
-50.014
-54.454
-59.065
-63.819
-68.688
-73.651
-78.685
-83.74
-88.765
-93.699
-98.472
-103.051
-107.404
-111.504
-115.335
-118.835
-121.926
-124.55
-126.646
-128.181
-129.184
-129.638
-129.487
-128.8
-127.723
-126.557
-125.787
-125.67
-126.189
-127.295
-128.969
-131.186
-133.851
-136.344
-137.437
-136.238
-132.479
-126.339
-118.281
-108.541
-97.328
-85.656
-75.635
-69.354
-68.12
-72.211
-80.954
-93.756
-110.026
-128.223
-145.297
-157.377
-160.749
-152.599
-131.434
-95.95
-44.896
21.94
103.156
195.708
295.251
397.133
497.287
591.199
673.752
740.23
786.401
809.207
807.585
781.504
731.287
658.627
566.583
459.086
341.605
220.14
99.729
-14.805
-118.832
-208.699
-281.443
-335.197
-370.407
-388.888
-392.509
-383.611
-364.583
-337.754
-306.174
-272.731
-238.846
-205.235
-172.65
-141.813
-114.055
-90.692
-71.798
-56.954
-46.217
-39.667
-37.198
-38.337
-41.518
-44.919
-47.703
-49.623
-50.503
-50.263
-48.767
-46.053
-42.923
-40.467
-39.198
-39.15
-40.071
-41.614
-43.603
-45.928
-48.22
-49.912
-50.633
-50.233
-48.752
-46.369
-43.205
-39.298
-34.728
-29.655
-24.247
-18.68
-13.116
-7.617
-2.227
3
8.017
12.764
17.198
21.319
25.157
28.736
32.074
35.186
38.079
40.796
43.389
45.917
48.445
51.013
53.65
56.387
59.246
62.25
65.413
68.737
72.21
75.826
79.583
83.482
87.522
91.694
95.984
100.378
104.859
109.41
114.015
118.655
123.309
127.958
132.583
137.166
141.69
146.135
150.478
154.696
158.764
162.658
166.353
169.824
173.046
175.996
178.652
180.993
183.001
184.66
185.953
186.868
187.394
187.521
187.24
186.547
185.439
183.914
181.974
179.623
176.867
173.713
170.172
166.256
161.979
157.358
152.407
147.146
141.595
135.775
129.708
123.417
116.928
110.267
103.458
96.53
89.509
82.421
75.294
68.152
61.022
53.926
46.89
39.935
33.082
26.352
19.764
13.336
7.084
1.023
-4.834
-10.476
-15.892
-21.073
-26.013
-30.705
-35.145
-39.329
-43.255
-46.922
-50.328
-53.477
-56.369
-59.009
-61.402
-63.552
-65.466
-67.153
-68.619
-69.874
-70.927
-71.786
-72.462
-72.965
-73.304
-73.49
-73.533
-73.442
-73.229
-72.902
-72.47
-71.943
-71.33
-70.638
-69.875
-69.048
-68.164
-67.23
-66.253
-65.239
-64.194
-63.125
-62.037
-60.936
-59.829
-58.719
-57.609
-56.504
-55.404
-54.315
-53.244
-52.194
-51.161
-50.162
-49.205
-48.295
-47.451
-46.671
-45.932
-45.24
-44.608
-43.992
-43.381
-42.775
-42.132
-41.463
-40.859
-40.321
-39.82
-39.527
-39.572
-39.807
-40.271
-41.051
-41.658
-42.838
-45.587
-48.617
-51.504
-52.27
-47.095
-38.109
-28.778
-22.61
-26.405
-39.479
-55.243
-69.245
-74.502
-68.946
-59.279
-49.549
-43.718
-44.792
-48.76
-52.99
-56.685
-58.181
-58.718
-59.429
-59.934
-60.43
-60.835
-60.864
-60.686
-60.443
-60.091
-59.639
-59.126
-58.536
-57.846
-57.055
-56.136
-55.061
-53.846
-52.502
-51.024
-49.422
-47.7
-45.865
-43.928
-41.901
-39.791
-37.608
-35.362
-33.064
-30.726
-28.36
-25.978
-23.593
-21.219
-18.87
-16.561
-14.308
-12.13
-10.044
-8.066
-6.215
-4.508
-2.96
-1.588
-0.402
0.587
1.368
1.931
2.264
2.356
2.201
1.793
1.13
0.209
-0.97
-2.403
-4.076
-5.979
-8.102
-10.441
-13.004
-15.793
-18.808
-22.041
-25.48
-29.109
-32.909
-36.846
-40.869
-44.923
-48.949
-52.897
-56.729
-60.4
-63.857
-67.028
-69.83
-72.189
-74.043
-75.352
-76.095
-76.264
-75.878
-74.988
-73.67
-72.042
-70.252
-68.436
-66.734
-65.286
-64.211
-63.725
-64.139
-65.63
-68.224
-71.785
-75.971
-80.476
-85.062
-89.242
-92.344
-93.936
-93.934
-92.746
-91.183
-90.073
-90.222
-92.482
-97.762
-105.333
-112.586
-117.035
-116.816
-113.476
-111.144
-109.824
-104.097
-83.042
-33.127
51.554
166.782
301.221
437.584
560.895
662.963
738.412
788.127
816.853
826.216
818.563
793.605
746.765
676.998
585.732
476.162
356.114
234.055
115.563
4.996
-96.789
-193.232
-285.174
-367.971
-431.406
-460.39
-445.005
-389.842
-312.926
-239.553
-190.02
-169.401
-168.256
-170.448
-164.087
-145.993
-120.718
-96.311
-77.279
-64.649
-57.572
-53.232
-49.925
-47.117
-43.985
-40.599
-37.371
-34.063
-30.495
-26.747
-22.911
-19.492
-17.375
-16.916
-18.031
-20.566
-24.178
-28.559
-33.487
-38.569
-43.25
-47.143
-50.056
-51.918
-52.81
-52.792
-51.87
-50.099
-47.586
-44.45
-40.807
-36.771
-32.432
-27.886
-23.259
-18.656
-14.166
-9.871
-5.811
-2.003
1.546
4.845
7.912
10.761
13.418
15.919
18.298
20.594
22.852
25.119
27.449
29.889
32.476
35.236
38.186
41.334
44.682
48.229
51.961
55.87
59.947
64.18
68.56
73.076
77.71
82.444
87.257
92.126
97.031
101.95
106.862
111.746
116.582
121.347
126.024
130.592
135.028
139.308
143.408
147.302
150.967
154.381
157.52
160.363
162.891
165.086
166.933
168.418
169.531
170.26
170.597
170.538
170.078
169.216
167.952
166.288
164.23
161.783
158.957
155.762
152.211
148.315
144.092
139.556
134.726
129.621
124.262
118.669
112.864
106.873
100.718
94.425
88.019
81.525
74.969
68.376
61.771
55.176
48.616
42.113
35.689
29.365
23.158
17.088
11.172
5.426
-0.133
-5.495
-10.648
-15.584
-20.292
-24.765
-28.991
-32.969
-36.701
-40.173
-43.375
-46.301
-48.941
-51.306
-53.419
-55.269
-56.848
-58.197
-59.352
-60.342
-61.211
-61.942
-62.491
-62.902
-63.24
-63.377
-63.156
-62.693
-61.991
-61.032
-60.192
-58.508
-55.045
-51.173
-47.317
-45.984
-50.171
-56.59
-63.054
-66.299
-61.837
-53.661
-45.162
-38.665
-38.003
-40.454
-43.259
-45.812
-46.433
-46.11
-46.111
-46.203
-46.553
-47.08
-47.534
-48.086
-48.871
-49.848
-51.008
-52.366
-53.92
-55.656
-57.569
-59.631
-61.808
-64.107
-66.534
-69.076
-71.726
-74.476
-77.311
-80.225
-83.21
-86.251
-89.334
-92.445
-95.57
-98.694
-101.806
-104.889
-107.929
-110.912
-113.824
-116.65
-119.378
-121.993
-124.482
-126.832
-129.03
-131.064
-132.924
-134.597
-136.073
-137.342
-138.395
-139.225
-139.823
-140.184
-140.3
-140.169
-139.791
-139.163
-138.287
-137.161
-135.785
-134.165
-132.312
-130.22
-127.889
-125.32
-122.51
-119.478
-116.251
-112.826
-109.197
-105.412
-101.507
-97.517
-93.486
-89.401
-85.223
-80.996
-76.789
-72.476
-67.909
-63.203
-58.363
-53.373
-48.607
-43.121
-35.997
-28.584
-21.303
-16.62
-17.484
-20.67
-24.031
-24.366
-17.269
-6.669
4.102
12.757
15.53
15.096
14.163
13.326
14.231
15.904
17.097
18.039
18.566
18.753
18.846
18.681
18.131
17.245
16.036
14.488
12.592
10.354
7.781
4.904
1.766
-1.628
-5.27
-9.122
-13.132
-17.244
-21.397
-25.539
-29.634
-33.631
-37.469
-41.079
-44.373
-47.28
-49.748
-51.74
-53.241
-54.237
-54.737
-54.785
-54.469
-53.901
-53.22
-52.558
-52.047
-51.852
-52.109
-52.985
-54.726
-57.458
-61.205
-65.903
-71.256
-76.947
-82.819
-88.575
-93.718
-97.932
-100.955
-102.73
-103.828
-104.814
-105.763
-106.695
-107.887
-109.495
-111.494
-113.704
-113.892
-108.3
-95.778
-76.183
-50.687
-23.46
7.754
49.952
108.725
191.303
296.277
412.667
530.554
638.965
731.159
807.16
865.37
903.561
918.947
907.305
866.985
798.988
706.338
594.028
467.845
334.143
199.398
69.727
-49.01
-151.861
-235.503
-298.174
-339.691
-361.355
-365.281
-353.979
-331.108
-301.084
-266.472
-229.564
-193.94
-161.075
-135.881
-123.397
-119.016
-119.439
-117.961
-105.84
-89.26
-72.948
-60.947
-60.132
-63.597
-65.379
-63.179
-52.607
-37.82
-23.312
-10.465
-1.793
3.371
6.347
7.061
6.04
3.623
0.084
-3.824
-7.552
-10.79
-13.321
-15.062
-15.927
-15.886
-14.984
-13.27
-10.805
-7.627
-3.756
0.743
5.762
11.188
16.882
22.715
28.58
34.343
39.899
45.172
50.089
54.612
58.733
62.432
65.704
68.566
71.033
73.131
74.908
76.396
77.641
78.696
79.611
80.448
81.258
82.076
82.934
83.857
84.86
85.961
87.171
88.492
89.929
91.486
93.166
94.976
96.919
98.992
101.193
103.513
105.946
108.483
111.118
113.839
116.635
119.492
122.393
125.324
128.27
131.209
134.122
136.986
139.778
142.479
145.067
147.52
149.812
151.919
153.813
155.469
156.861
157.963
158.747
159.188
159.264
158.956
158.25
157.132
155.584
153.588
151.121
148.168
144.726
140.795
136.374
131.476
126.122
120.347
114.206
107.741
100.979
93.938
86.62
79.031
71.183
63.084
54.741
46.161
37.343
28.296
19.044
9.584
-0.1
-10.05
-20.345
-31.024
-42.084
-53.504
-65.227
-77.185
-89.305
-101.485
-113.593
-125.516
-137.146
-148.397
-159.216
-169.516
-179.188
-188.1
-196.083
-203.013
-208.825
-213.476
-216.952
-219.28
-220.501
-220.712
-220.064
-218.678
-216.654
-214.073
-210.978
-207.443
-203.568
-199.463
-195.259
-191.065
-186.951
-182.984
-179.216
-175.667
-172.338
-169.188
-166.125
-163.092
-160.058
-157.006
-153.949
-150.884
-147.798
-144.681
-141.524
-138.321
-135.072
-131.776
-128.427
-125.037
-121.631
-118.248
-114.951
-111.784
-108.773
-105.939
-103.287
-100.822
-98.55
-96.467
-94.56
-92.82
-91.238
-89.809
-88.53
-87.395
-86.388
-85.493
-84.691
-83.962
-83.291
-82.665
-82.07
-81.494
-80.926
-80.36
-79.792
-79.217
-78.627
-78.016
-77.374
-76.695
-75.973
-75.201
-74.372
-73.481
-72.525
-71.501
-70.407
-69.243
-68.009
-66.704
-65.331
-63.891
-62.386
-60.819
-59.193
-57.511
-55.778
-53.996
-52.17
-50.304
-48.401
-46.465
-44.499
-42.507
-40.491
-38.454
-36.399
-34.327
-32.241
-30.142
-28.031
-25.913
-23.787
-21.655
-19.52
-17.383
-15.245
-13.11
-10.978
-8.851
-6.731
-4.619
-2.517
-0.429
1.643
3.698
5.732
7.742
9.722
11.668
13.575
15.438
17.25
19
20.68
22.278
23.784
25.187
26.474
27.634
28.654
29.526
30.243
30.798
31.181
31.382
31.392
31.203
30.809
30.205
29.387
28.35
27.096
25.632
23.968
22.111
20.064
17.818
15.369
12.723
9.884
6.863
3.68
0.354
-3.078
-6.563
-10.048
-13.481
-16.819
-20.036
-23.095
-25.948
-28.543
-30.809
-32.69
-34.152
-35.151
-35.657
-35.691
-35.283
-34.514
-33.499
-32.317
-31.061
-29.838
-28.731
-27.849
-27.3
-27.17
-27.63
-28.9
-31.063
-34.118
-37.916
-42.02
-46.004
-49.462
-51.753
-52.206
-50.516
-46.613
-40.82
-34.269
-28.121
-23.281
-21.111
-21.763
-23.418
-24.592
-23.371
-19.952
-18.566
-20.218
-21.647
-13.917
18.187
83.952
182.67
305.221
433.851
551.786
650.069
723.323
770.915
796.684
800.781
783.76
747.302
688.802
608.731
510.399
396.552
273.517
147.836
23.587
-94.648
-202.266
-295.807
-372.021
-428.359
-464.509
-481.028
-478.18
-457.426
-421.438
-373.35
-317.243
-257.445
-196.98
-138.674
-85.838
-40.982
-5.807
19.007
34.371
41.873
42.755
38.596
31.521
23.614
16.916
12.65
10.867
11.179
13.165
16.186
19.4
21.831
22.397
20.577
16.499
10.505
3.086
-5.208
-13.82
-22.111
-29.415
-35.347
-39.796
-42.76
-44.34
-44.632
-43.71
-41.718
-38.841
-35.23
-31.004
-26.261
-21.08
-15.586
-9.95
-4.302
1.266
6.699
11.983
17.1
22.032
26.789
31.403
35.916
40.37
44.797
49.219
53.668
58.182
62.807
67.594
72.578
77.773
83.184
88.805
94.626
100.635
106.805
113.099
119.485
125.931
132.41
138.897
145.364
151.775
158.097
164.296
170.341
176.202
181.851
187.258
192.398
197.247
201.784
205.99
209.847
213.334
216.432
219.125
221.394
223.227
224.61
225.531
225.982
225.957
225.453
224.469
223.007
221.072
218.67
215.812
212.508
208.773
204.622
200.074
195.147
189.863
184.247
178.321
172.112
165.647
158.951
152.053
144.982
137.764
130.427
123
115.509
107.98
100.441
92.917
85.433
78.012
70.68
63.458
56.367
49.426
42.654
36.067
29.678
23.502
17.548
11.826
6.343
1.105
-3.884
-8.622
-13.107
-17.34
-21.324
-25.061
-28.557
-31.818
-34.85
-37.66
-40.258
-42.651
-44.848
-46.859
-48.693
-50.361
-51.871
-53.234
-54.461
-55.563
-56.549
-57.431
-58.219
-58.922
-59.551
-60.114
-60.621
-61.078
-61.493
-61.872
-62.223
-62.55
-62.858
-63.151
-63.432
-63.705
-63.972
-64.232
-64.489
-64.741
-64.989
-65.233
-65.472
-65.706
-65.934
-66.156
-66.372
-66.581
-66.782
-66.975
-67.158
-67.332
-67.495
-67.647
-67.787
-67.915
-68.03
-68.133
-68.224
-68.304
-68.373
-68.434
-68.487
-68.533
-68.575
-68.615
-68.654
-68.696
-68.742
-68.796
-68.86
-68.936
-69.028
-69.138
-69.267
-69.417
-69.59
-69.787
-70.008
-70.253
-70.523
-70.817
-71.135
-71.476
-71.839
-72.222
-72.625
-73.043
-73.476
-73.919
-74.37
-74.825
-75.279
-75.728
-76.167
-76.591
-76.994
-77.372
-77.718
-78.027
-78.293
-78.511
-78.675
-78.781
-78.823
-78.797
-78.7
-78.527
-78.276
-77.943
-77.526
-77.024
-76.434
-75.758
-74.994
-74.141
-73.202
-72.176
-71.065
-69.872
-68.599
-67.248
-65.824
-64.332
-62.776
-61.163
-59.5
-57.793
-56.052
-54.283
-52.495
-50.698
-48.901
-47.112
-45.343
-43.605
-41.904
-40.251
-38.657
-37.131
-35.686
-34.337
-33.092
-31.957
-30.958
-30.114
-29.443
-28.965
-28.677
-28.57
-28.665
-28.984
-29.498
-30.183
-31.018
-31.972
-33.074
-34.373
-35.843
-37.421
-39.222
-41.389
-43.813
-46.5
-49.483
-52.417
-56.216
-61.776
-67.797
-73.881
-77.648
-76.229
-72.715
-69.141
-68.565
-75.235
-85.349
-95.675
-103.985
-106.574
-105.933
-104.623
-103.192
-103.223
-103.791
-103.662
-102.95
-101.572
-99.872
-98.37
-97.24
-96.483
-95.944
-95.627
-95.824
-96.63
-97.894
-99.307
-100.15
-100.095
-99.582
-98.778
-97.401
-95.308
-92.486
-89.25
-86.884
-86.504
-88.127
-91.945
-98.391
-107.62
-119.785
-134.476
-149.676
-162.628
-171.167
-172.855
-165.01
-145.151
-110.406
-58.453
9.975
91.331
182.137
279.234
382.34
492.854
606.658
713.632
797.908
843.303
842.526
798.883
724.611
633.138
533.243
428.084
316.609
199.774
81.56
-32.421
-135.716
-224.313
-296.799
-352.522
-392.11
-417.304
-429.606
-430.903
-423.016
-406.944
-384.024
-356.183
-324.996
-291.373
-256.265
-220.513
-185.436
-153.294
-125.57
-102.644
-84.626
-71.507
-63.012
-58.781
-57.705
-57.687
-57.292
-55.961
-53.432
-49.793
-45.237
-39.899
-34.436
-30.06
-27.466
-26.808
-27.994
-30.601
-34.247
-38.661
-43.313
-47.495
-50.751
-52.848
-53.726
-53.518
-52.299
-50.091
-46.988
-43.135
-38.678
-33.76
-28.484
-22.909
-17.121
-11.245
-5.431
0.181
5.502
10.488
15.12
19.387
23.276
26.789
29.951
32.803
35.385
37.732
39.868
41.824
43.639
45.365
47.065
48.787
50.561
52.41
54.346
56.38
58.521
60.77
63.117
65.551
68.066
70.658
73.33
76.077
78.889
81.754
84.659
87.593
90.545
93.504
96.455
99.385
102.282
105.132
107.926
110.649
113.286
115.819
118.231
120.504
122.622
124.566
126.318
127.863
129.186
130.271
131.108
131.684
131.988
132.011
131.744
131.18
130.315
129.144
127.662
125.87
123.767
121.355
118.638
115.621
112.31
108.714
104.843
100.71
96.328
91.712
86.879
81.847
76.635
71.263
65.754
60.127
54.406
48.614
42.773
36.906
31.035
25.183
19.372
13.622
7.955
2.39
-3.053
-8.358
-13.505
-18.48
-23.266
-27.848
-32.214
-36.353
-40.253
-43.905
-47.302
-50.439
-53.311
-55.917
-58.255
-60.327
-62.136
-63.686
-64.983
-66.035
-66.85
-67.437
-67.808
-67.974
-67.946
-67.739
-67.364
-66.837
-66.171
-65.379
-64.476
-63.477
-62.394
-61.242
-60.034
-58.783
-57.502
-56.203
-54.899
-53.6
-52.317
-51.058
-49.834
-48.652
-47.517
-46.435
-45.411
-44.447
-43.546
-42.708
-41.934
-41.222
-40.572
-39.981
-39.446
-38.965
-38.532
-38.143
-37.796
-37.483
-37.203
-36.948
-36.715
-36.5
-36.298
-36.104
-35.916
-35.728
-35.539
-35.344
-35.141
-34.927
-34.701
-34.461
-34.207
-33.939
-33.657
-33.362
-33.057
-32.744
-32.426
-32.105
-31.787
-31.473
-31.169
-30.879
-30.608
-30.358
-30.135
-29.943
-29.785
-29.665
-29.586
-29.551
-29.561
-29.619
-29.725
-29.881
-30.086
-30.339
-30.64
-30.987
-31.378
-31.81
-32.281
-32.784
-33.316
-33.871
-34.443
-35.025
-35.608
-36.187
-36.752
-37.296
-37.81
-38.286
-38.715
-39.09
-39.403
-39.644
-39.808
-39.886
-39.873
-39.761
-39.545
-39.222
-38.788
-38.239
-37.572
-36.787
-35.884
-34.863
-33.726
-32.475
-31.115
-29.65
-28.087
-26.433
-24.698
-22.892
-21.029
-19.122
-17.187
-15.24
-13.299
-11.38
-9.502
-7.683
-5.937
-4.28
-2.729
-1.298
-0.003
1.138
2.108
2.892
3.475
3.846
3.993
3.908
3.586
3.028
2.233
1.196
-0.093
-1.644
-3.462
-5.545
-7.889
-10.479
-13.295
-16.305
-19.46
-22.711
-26.008
-29.309
-32.581
-35.789
-38.896
-41.847
-44.577
-47.024
-49.135
-50.877
-52.221
-53.152
-53.695
-53.912
-53.917
-53.818
-53.699
-53.631
-53.691
-53.982
-54.644
-55.813
-57.578
-60.072
-63.49
-67.908
-73.299
-79.417
-85.689
-91.556
-96.597
-100.264
-101.929
-101.24
-98.141
-93.201
-87.776
-82.983
-79.335
-77.619
-78.817
-83.147
-90.339
-97.745
-99.975
-94.155
-79.267
-55.892
-27.618
7.486
55.405
121.35
212.669
329.423
463.018
602.261
729.403
827.346
886.799
903.915
883.169
835.257
768.186
686.614
592.935
486.223
368.01
243.609
118.68
-0.226
-107.425
-199.547
-274.504
-331.207
-369.863
-391.595
-397.335
-388.386
-367.135
-336.445
-299.474
-259.348
-218.383
-178.312
-141.375
-110.045
-85.61
-68.268
-57.415
-51.838
-50.496
-52.508
-56.262
-59.454
-60.601
-59.144
-55.096
-49.143
-41.938
-33.913
-25.984
-19.493
-15.249
-13.549
-14.342
-17.057
-21.147
-26.237
-31.734
-36.971
-41.508
-45.024
-47.375
-48.638
-48.857
-48.048
-46.29
-43.66
-40.234
-36.127
-31.424
-26.222
-20.655
-14.858
-8.983
-3.159
2.524
7.982
13.16
18.033
22.582
26.807
30.724
34.339
37.668
40.742
43.587
46.245
48.766
51.202
53.614
56.055
58.559
61.154
63.859
66.681
69.624
72.689
75.863
79.14
82.516
85.982
89.537
93.171
96.873
100.629
104.423
108.236
112.054
115.862
119.643
123.382
127.064
130.674
134.198
137.621
140.924
144.09
147.099
149.929
152.563
154.983
157.168
159.102
160.771
162.159
163.257
164.054
164.542
164.714
164.566
164.094
163.296
162.174
160.728
158.963
156.883
154.496
151.81
148.834
145.581
142.063
138.294
134.289
130.063
125.635
121.021
116.241
111.313
106.257
101.093
95.841
90.522
85.156
79.761
74.357
68.961
63.592
58.264
52.992
47.791
42.673
37.649
32.73
27.924
23.24
18.684
14.263
9.982
5.844
1.853
-1.99
-5.684
-9.227
-12.621
-15.865
-18.963
-21.916
-24.726
-27.397
-29.933
-32.338
-34.615
-36.77
-38.806
-40.728
-42.541
-44.249
-45.855
-47.364
-48.778
-50.1
-51.334
-52.48
-53.542
-54.52
-55.416
-56.231
-56.965
-57.619
-58.194
-58.69
-59.107
-59.446
-59.706
-59.888
-59.993
-60.021
-59.972
-59.846
-59.645
-59.369
-59.02
-58.597
-58.103
-57.54
-56.909
-56.212
-55.453
-54.635
-53.762
-52.838
-51.867
-50.855
-49.807
-48.728
-47.625
-46.504
-45.371
-44.233
-43.096
-41.966
-40.85
-39.753
-38.682
-37.642
-36.638
-35.676
-34.761
-33.896
-33.086
-32.336
-31.649
-31.029
-30.48
-30.004
-29.603
-29.281
-29.039
-28.877
-28.796
-28.796
-28.876
-29.035
-29.27
-29.579
-29.958
-30.405
-30.914
-31.481
-32.102
-32.771
-33.481
-34.229
-35.008
-35.813
-36.639
-37.479
-38.329
-39.184
-40.038
-40.885
-41.721
-42.54
-43.336
-44.102
-44.834
-45.524
-46.167
-46.757
-47.287
-47.754
-48.151
-48.475
-48.721
-48.885
-48.964
-48.956
-48.857
-48.668
-48.385
-48.008
-47.538
-46.976
-46.321
-45.575
-44.739
-43.815
-42.805
-41.713
-40.539
-39.288
-37.963
-36.569
-35.112
-33.597
-32.032
-30.425
-28.787
-27.131
-25.467
-23.811
-22.175
-20.575
-19.025
-17.54
-16.13
-14.809
-13.586
-12.475
-11.485
-10.63
-9.923
-9.376
-8.998
-8.8
-8.79
-8.974
-9.35
-9.918
-10.676
-11.624
-12.775
-14.135
-15.711
-17.508
-19.524
-21.752
-24.176
-26.765
-29.474
-32.255
-35.061
-37.849
-40.589
-43.245
-45.781
-48.154
-50.304
-52.177
-53.724
-54.897
-55.659
-55.999
-55.941
-55.547
-54.93
-54.185
-53.391
-52.646
-52.031
-51.649
-51.626
-52.08
-53.127
-54.944
-57.762
-61.669
-66.641
-72.484
-78.649
-84.525
-89.568
-93.099
-94.409
-93.289
-89.817
-84.365
-78.488
-73.949
-71.777
-73.295
-78.531
-85.163
-92.435
-99.818
-106.323
-113.439
-117.221
-108.467
-78.621
-18.228
72.754
184.108
304.738
421.972
528.836
624.682
706.652
771.872
816.494
835.214
826.71
792.139
733.29
654.045
558.845
451.965
338.817
224.897
114.458
11.475
-80.61
-159.809
-224.645
-274.121
-308.975
-330.864
-341.336
-342.483
-336.24
-323.697
-306.458
-286.465
-264.531
-240.96
-216.326
-190.93
-165.656
-142.315
-121.772
-104.059
-89.676
-79.069
-72.249
-69.23
-69.086
-69.878
-70.547
-70.775
-70.18
-68.705
-66.363
-63.021
-59.214
-56.076
-54.166
-53.592
-54.261
-55.706
-57.616
-59.879
-62.14
-63.883
-64.748
-64.517
-63.149
-60.81
-57.615
-53.623
-48.926
-43.628
-37.878
-31.843
-25.679
-19.535
-13.512
-7.686
-2.13
3.092
7.92
12.311
16.262
19.798
22.936
25.692
28.077
30.099
31.8
33.236
34.467
35.563
36.575
37.541
38.501
39.493
40.545
41.686
42.926
44.266
45.716
47.29
49.002
50.868
52.894
55.082
57.432
59.944
62.615
65.442
68.417
71.533
74.78
78.15
81.632
85.218
88.891
92.634
96.426
100.244
104.061
107.852
111.589
115.24
118.776
122.165
125.378
128.385
131.156
133.661
135.87
137.757
139.294
140.455
141.218
141.558
141.456
140.895
139.858
138.334
136.312
133.783
130.745
127.2
123.156
118.62
113.604
108.114
102.164
95.783
88.985
81.773
74.162
66.161
57.789
49.12
40.217
31.095
21.835
12.555
3.324
-5.754
-14.595
-23.283
-31.879
-40.288
-48.634
-57.27
-66.16
-75.127
-84.281
-93.091
-101.903
-113.023
-126.098
-138.823
-148.005
-146.111
-131.184
-110.613
-93.107
-91.561
-112.966
-147.639
-182.42
-203.667
-201.206
-181.526
-157.032
-136.817
-128.67
-130.883
-136.094
-140.762
-142.246
-140.273
-137.47
-134.58
-131.437
-128.218
-124.569
-120.417
-116.139
-111.876
-107.636
-103.518
-99.584
-95.815
-92.21
-88.762
-85.43
-82.217
-79.163
-76.279
-73.568
-71.044
-68.711
-66.574
-64.643
-62.918
-61.391
-60.059
-58.915
-57.951
-57.16
-56.532
-56.056
-55.72
-55.512
-55.419
-55.427
-55.521
-55.689
-55.916
-56.187
-56.49
-56.811
-57.137
-57.456
-57.758
-58.032
-58.269
-58.46
-58.6
-58.682
-58.701
-58.654
-58.54
-58.356
-58.104
-57.785
-57.401
-56.956
-56.456
-55.905
-55.309
-54.676
-54.012
-53.325
-52.624
-51.916
-51.21
-50.513
-49.835
-49.184
-48.567
-47.991
-47.464
-46.991
-46.579
-46.231
-45.951
-45.743
-45.608
-45.547
-45.561
-45.648
-45.807
-46.035
-46.328
-46.683
-47.092
-47.55
-48.049
-48.581
-49.136
-49.704
-50.276
-50.839
-51.383
-51.897
-52.369
-52.788
-53.143
-53.422
-53.614
-53.709
-53.698
-53.57
-53.317
-52.933
-52.41
-51.745
-50.933
-49.972
-48.86
-47.597
-46.185
-44.626
-42.922
-41.08
-39.105
-37.005
-34.79
-32.47
-30.057
-27.566
-25.014
-22.422
-19.807
-17.192
-14.599
-12.05
-9.569
-7.178
-4.897
-2.745
-0.744
1.088
2.729
4.157
5.353
6.3
6.982
7.384
7.492
7.298
6.8
5.999
4.892
3.476
1.735
-0.342
-2.758
-5.512
-8.598
-11.996
-15.683
-19.621
-23.751
-28.009
-32.332
-36.658
-40.944
-45.138
-49.184
-53.012
-56.538
-59.682
-62.384
-64.596
-66.283
-67.443
-68.101
-68.327
-68.242
-67.961
-67.608
-67.311
-67.192
-67.405
-68.098
-69.386
-71.439
-74.472
-78.598
-83.833
-90.004
-96.636
-103.252
-109.445
-114.624
-118.123
-119.468
-118.418
-115.324
-111.269
-107.246
-103.834
-101.797
-101.951
-104.474
-109.141
-113.761
-113.777
-106.185
-89.4
-63.482
-30.777
10.226
64.487
137.482
234.116
352.369
482.628
610.744
722.526
807.899
862.825
890.4
893.861
875.897
838.972
781.225
703.312
608.643
500.245
384.252
266.485
150.549
40.467
-60.367
-149.641
-224.978
-284.737
-328.985
-358.365
-373.59
-375.932
-366.939
-348.571
-323.488
-294.284
-262.691
-230.113
-198.111
-168.386
-142.502
-121.146
-104.053
-90.583
-80.252
-72.703
-67.179
-62.271
-56.575
-49.393
-40.73
-31.048
-20.866
-10.517
-0.526
8.144
14.641
18.532
19.744
18.59
15.525
10.914
5.173
-1.122
-7.495
-13.581
-19.051
-23.729
-27.531
-30.377
-32.259
-33.224
-33.28
-32.445
-30.783
-28.352
-25.245
-21.575
-17.413
-12.822
-7.893
-2.724
2.551
7.781
12.878
17.793
22.486
26.939
31.13
35.05
38.731
42.22
45.563
48.797
51.947
55.031
58.082
61.14
64.251
67.465
70.813
74.31
77.973
81.806
85.812
89.986
94.309
98.753
103.294
107.912
112.588
117.308
122.048
126.785
131.492
136.145
140.718
145.187
149.527
153.713
157.72
161.527
165.111
168.455
171.54
174.344
176.849
179.034
180.883
182.378
183.507
184.254
184.61
184.567
184.117
183.259
181.992
180.316
178.235
175.754
172.881
169.626
165.998
162.013
157.683
153.026
148.058
142.8
137.269
131.489
125.481
119.269
112.877
106.33
99.653
92.872
86.012
79.1
72.16
65.218
58.297
51.422
44.614
37.898
31.292
24.816
18.488
12.325
6.342
0.552
-5.032
-10.4
-15.542
-20.451
-25.12
-29.544
-33.717
-37.637
-41.301
-44.71
-47.862
-50.76
-53.406
-55.804
-57.958
-59.873
-61.558
-63.017
-64.26
-65.294
-66.128
-66.773
-67.236
-67.528
-67.659
-67.64
-67.479
-67.188
-66.776
-66.253
-65.628
-64.911
-64.11
-63.234
-62.292
-61.292
-60.242
-59.15
-58.025
-56.873
-55.702
-54.52
-53.332
-52.147
-50.968
-49.803
-48.657
-47.535
-46.441
-45.38
-44.356
-43.372
-42.433
-41.541
-40.699
-39.909
-39.175
-38.498
-37.879
-37.322
-36.827
-36.396
-36.03
-35.73
-35.497
-35.333
-35.237
-35.21
-35.251
-35.36
-35.536
-35.778
-36.084
-36.454
-36.886
-37.377
-37.926
-38.531
-39.188
-39.896
-40.652
-41.453
-42.296
-43.178
-44.096
-45.047
-46.028
-47.036
-48.067
-49.118
-50.185
-51.265
-52.353
-53.446
-54.54
-55.63
-56.712
-57.783
-58.838
-59.873
-60.885
-61.869
-62.821
-63.737
-64.614
-65.447
-66.232
-66.966
-67.643
-68.261
-68.815
-69.302
-69.719
-70.06
-70.322
-70.503
-70.596
-70.599
-70.507
-70.316
-70.024
-69.628
-69.124
-68.509
-67.783
-66.942
-65.987
-64.914
-63.725
-62.417
-60.992
-59.449
-57.79
-56.018
-54.135
-52.144
-50.049
-47.857
-45.572
-43.202
-40.753
-38.232
-35.65
-33.015
-30.338
-27.63
-24.903
-22.174
-19.457
-16.772
-14.136
-11.567
-9.086
-6.709
-4.459
-2.353
-0.407
1.362
2.94
4.31
5.455
6.358
7.006
7.387
7.493
7.317
6.851
6.091
5.043
3.708
2.093
0.201
-1.978
-4.451
-7.217
-10.272
-13.603
-17.19
-21.016
-25.052
-29.25
-33.567
-37.943
-42.33
-46.687
-50.962
-55.114
-59.087
-62.804
-66.204
-69.207
-71.747
-73.797
-75.337
-76.372
-76.964
-77.123
-76.872
-76.418
-75.935
-75.615
-75.724
-76.246
-77.183
-78.876
-81.538
-85.006
-89.046
-92.992
-96.064
-98.26
-99.48
-99.105
-96.866
-92.882
-87.696
-82.984
-80.429
-80.546
-83.805
-90.734
-101.242
-114.804
-129.74
-142.553
-149.588
-147.896
-134.627
-107.443
-64.464
-4.466
72.01
162.551
263.858
371.981
481.681
586.641
680.423
757.99
818.539
864.138
894.934
906.761
889.714
833.842
736.936
607.328
462.495
318.372
183.75
59.59
-59.719
-173.092
-272.569
-349.432
-392.888
-402.798
-389.049
-360.327
-327.63
-296.633
-265.239
-233.481
-201.278
-169.17
-141.087
-119.281
-103.349
-92.499
-85.276
-80.112
-76.549
-74.119
-71.45
-67.441
-61.82
-54.659
-46.472
-38.075
-29.866
-22.31
-16.37
-12.703
-11.545
-12.929
-16.442
-21.507
-27.681
-34.397
-40.991
-47.021
-52.173
-56.222
-59.131
-60.886
-61.461
-60.925
-59.367
-56.86
-53.489
-49.337
-44.508
-39.153
-33.454
-27.607
-21.762
-16.022
-10.47
-5.18
-0.203
4.423
8.694
12.636
16.265
19.596
22.646
25.442
28.029
30.467
32.821
35.162
37.544
40.007
42.582
45.293
48.154
51.175
54.354
57.678
61.141
64.741
68.476
72.342
76.332
80.433
84.629
88.906
93.245
97.631
102.045
106.469
110.887
115.281
119.633
123.929
128.148
132.269
136.269
140.123
143.807
147.296
150.566
153.594
156.355
158.829
160.997
162.84
164.344
165.496
166.28
166.685
166.701
166.319
165.535
164.35
162.757
160.752
158.348
155.559
152.397
148.883
145.019
140.801
136.257
131.42
126.273
120.812
115.036
108.938
102.568
96.005
89.245
82.263
75.224
68.322
61.484
54.746
48.165
41.414
35.469
31.284
27.554
23.897
17.897
6.654
-6.586
-19.654
-29.334
-31.211
-29.167
-26.496
-25.45
-29.763
-36.758
-43.724
-50.059
-54.111
-56.842
-59.488
-61.819
-64
-65.955
-67.444
-68.641
-69.688
-70.554
-71.241
-71.778
-72.174
-72.434
-72.566
-72.561
-72.403
-72.117
-71.728
-71.244
-70.678
-70.042
-69.343
-68.597
-67.817
-67.01
-66.184
-65.347
-64.507
-63.67
-62.845
-62.036
-61.25
-60.491
-59.764
-59.072
-58.419
-57.808
-57.24
-56.717
-56.241
-55.813
-55.434
-55.104
-54.823
-54.59
-54.405
-54.268
-54.177
-54.13
-54.126
-54.164
-54.243
-54.359
-54.513
-54.703
-54.926
-55.182
-55.469
-55.786
-56.13
-56.501
-56.895
-57.312
-57.75
-58.206
-58.679
-59.166
-59.665
-60.175
-60.692
-61.215
-61.741
-62.266
-62.789
-63.306
-63.816
-64.316
-64.803
-65.276
-65.734
-66.175
-66.596
-66.998
-67.378
-67.736
-68.07
-68.379
-68.662
-68.919
-69.149
-69.35
-69.524
-69.668
-69.783
-69.869
-69.924
-69.948
-69.941
-69.902
-69.831
-69.728
-69.592
-69.424
-69.224
-68.991
-68.727
-68.43
-68.1
-67.736
-67.338
-66.903
-66.43
-65.917
-65.361
-64.76
-64.111
-63.413
-62.662
-61.856
-60.991
-60.066
-59.077
-58.022
-56.898
-55.704
-54.439
-53.101
-51.69
-50.208
-48.653
-47.03
-45.338
-43.583
-41.766
-39.892
-37.966
-35.993
-33.979
-31.932
-29.859
-27.769
-25.675
-23.588
-21.524
-19.498
-17.525
-15.622
-13.807
-12.097
-10.507
-9.051
-7.743
-6.597
-5.625
-4.845
-4.27
-3.91
-3.778
-3.88
-4.224
-4.814
-5.65
-6.726
-8.035
-9.571
-11.336
-13.339
-15.588
-18.081
-20.814
-23.774
-26.946
-30.313
-33.844
-37.492
-41.207
-44.941
-48.651
-52.308
-55.873
-59.296
-62.512
-65.435
-67.992
-70.127
-71.795
-72.967
-73.639
-73.82
-73.548
-72.891
-71.929
-70.76
-69.501
-68.257
-67.136
-66.246
-65.759
-65.946
-67.01
-68.993
-71.712
-74.769
-77.786
-80.452
-82.338
-82.855
-81.548
-78.348
-73.953
-69.599
-66.314
-65.122
-67.041
-72.685
-82.582
-95.497
-107.315
-115.14
-117.189
-112.914
-105.287
-91.434
-63.018
-13.139
65.837
171.75
291.539
413.159
524.188
617.155
692.183
748.034
783.155
795.96
783.619
745.859
684.518
602.647
504.685
395.16
278.882
160.8
45.164
-64.177
-163.998
-251.8
-325.486
-383.563
-425.684
-452.433
-464.784
-463.994
-451.137
-427.614
-395.629
-357.714
-316.215
-272.946
-229.452
-187.398
-148.939
-115.958
-89.185
-68.485
-53.289
-43.052
-37.221
-34.858
-34.261
-33.577
-31.816
-28.728
-24.469
-19.308
-13.414
-7.123
-1.306
2.96
5.112
5.089
3.161
-0.249
-4.839
-10.31
-16.132
-21.637
-26.328
-29.942
-32.43
-33.882
-34.356
-33.868
-32.479
-30.306
-27.477
-24.11
-20.289
-16.054
-11.441
-6.536
-1.45
3.685
8.737
13.624
18.306
22.755
26.958
30.912
34.625
38.128
41.468
44.687
47.817
50.883
53.899
56.895
59.909
62.986
66.175
69.506
72.994
76.649
80.475
84.469
88.623
92.919
97.327
101.824
106.391
111.009
115.663
120.332
124.992
129.62
134.191
138.679
143.061
147.314
151.414
155.339
159.067
162.58
165.861
168.892
171.655
174.132
176.306
178.159
179.677
180.846
181.652
182.085
182.136
181.798
181.067
179.943
178.424
176.512
174.213
171.532
168.475
165.054
161.278
157.162
152.717
147.961
142.908
137.578
131.989
126.163
120.118
113.877
107.463
100.899
94.209
87.415
80.539
73.603
66.63
59.645
52.675
45.737
38.848
32.041
25.343
18.781
12.384
6.159
0.101
-5.759
-11.392
-16.825
-22.075
-27.156
-32.093
-36.852
-41.37
-45.673
-49.817
-53.647
-56.984
-59.935
-62.492
-64.621
-66.712
-67.73
-66.669
-64.98
-63.106
-63.706
-69.963
-78.374
-86.606
-91.186
-87.336
-79.303
-70.691
-63.971
-63.223
-65.551
-68.023
-69.994
-69.682
-68.141
-66.723
-65.184
-63.708
-62.215
-60.445
-58.585
-56.789
-55.019
-53.275
-51.581
-49.943
-48.359
-46.83
-45.338
-43.859
-42.411
-41.011
-39.659
-38.36
-37.117
-35.929
-34.803
-33.744
-32.749
-31.818
-30.95
-30.145
-29.402
-28.719
-28.096
-27.53
-27.021
-26.567
-26.165
-25.815
-25.513
-25.258
-25.047
-24.879
-24.751
-24.661
-24.606
-24.583
-24.59
-24.624
-24.683
-24.764
-24.863
-24.979
-25.107
-25.245
-25.391
-25.543
-25.697
-25.853
-26.008
-26.162
-26.313
-26.461
-26.605
-26.744
-26.879
-27.008
-27.131
-27.249
-27.361
-27.467
-27.565
-27.657
-27.741
-27.817
-27.885
-27.944
-27.994
-28.035
-28.066
-28.088
-28.101
-28.105
-28.1
-28.086
-28.065
-28.037
-28.001
-27.96
-27.912
-27.859
-27.801
-27.738
-27.67
-27.596
-27.515
-27.428
-27.333
-27.229
-27.116
-26.992
-26.858
-26.714
-26.559
-26.394
-26.217
-26.031
-25.836
-25.634
-25.427
-25.216
-25.005
-24.796
-24.593
-24.4
-24.22
-24.056
-23.911
-23.793
-23.709
-23.669
-23.682
-23.759
-23.906
-24.136
-24.456
-24.872
-25.389
-26.01
-26.735
-27.572
-28.529
-29.614
-30.839
-32.206
-33.713
-35.355
-37.122
-39.002
-40.983
-43.055
-45.21
-47.456
-49.803
-52.26
-54.836
-57.531
-60.33
-63.211
-66.129
-69.039
-71.911
-74.734
-77.515
-80.251
-82.904
-85.413
-87.717
-89.75
-91.479
-92.842
-93.717
-94.072
-94.016
-93.812
-93.779
-94.074
-94.6
-95.204
-95.913
-96.706
-97.375
-97.424
-96.294
-93.953
-90.975
-88.161
-85.901
-84.247
-83.327
-83.59
-85.554
-89.081
-93.313
-97.06
-99.805
-102.011
-104.377
-107.451
-111.772
-116.964
-121.801
-125.7
-127.021
-126.98
-130.833
-139.564
-151.884
-158.298
-138.599
-81.699
15.677
145.957
283.94
411.97
519.527
599.841
660.682
705.834
734.202
746.334
736.051
699.657
637.975
553.202
452.651
342.282
225.899
106.299
-17.122
-139.264
-250.257
-341.447
-403.169
-434.662
-444.283
-439.139
-426.951
-411.301
-389.879
-362.67
-330.56
-294.862
-258.92
-224.895
-194.082
-167.573
-145.328
-126.865
-111.703
-99.473
-89.855
-82.254
-75.538
-68.552
-60.785
-52.22
-43.177
-34.059
-25.126
-16.837
-10.051
-5.485
-3.413
-3.784
-6.19
-10.092
-15.107
-20.744
-26.33
-31.347
-35.404
-38.255
-39.891
-40.337
-39.583
-37.68
-34.712
-30.757
-25.952
-20.432
-14.302
-7.717
-0.819
6.24
13.28
20.158
26.763
33.006
38.849
44.271
49.253
53.794
57.91
61.619
64.966
67.996
70.745
73.262
75.602
77.82
79.99
82.165
84.38
86.664
89.031
91.488
94.047
96.708
99.464
102.308
105.233
108.235
111.313
114.46
117.665
120.915
124.193
127.486
130.781
134.066
137.327
140.551
143.723
146.829
149.858
152.795
155.623
158.322
160.872
163.255
165.45
167.439
169.201
170.718
171.974
172.952
173.639
174.02
174.084
173.82
173.219
172.274
170.978
169.327
167.321
164.957
162.239
159.17
155.755
152.004
147.925
143.528
138.828
133.838
128.574
123.054
117.297
111.322
105.15
98.804
92.307
85.682
78.953
72.144
65.28
58.386
51.486
44.604
37.764
30.988
24.299
17.718
11.266
4.962
-1.176
-7.131
-12.887
-18.43
-23.747
-28.826
-33.659
-38.235
-42.549
-46.595
-50.367
-53.865
-57.085
-60.029
-62.697
-65.092
-67.218
-69.079
-70.68
-72.029
-73.133
-74
-74.639
-75.06
-75.273
-75.29
-75.122
-74.78
-74.277
-73.625
-72.835
-71.92
-70.89
-69.759
-68.535
-67.231
-65.856
-64.421
-62.935
-61.408
-59.847
-58.261
-56.657
-55.043
-53.424
-51.806
-50.195
-48.596
-47.014
-45.452
-43.914
-42.405
-40.926
-39.481
-38.071
-36.699
-35.366
-34.072
-32.818
-31.604
-30.431
-29.299
-28.207
-27.156
-26.146
-25.176
-24.248
-23.36
-22.513
-21.707
-20.942
-20.219
-19.537
-18.898
-18.301
-17.748
-17.239
-16.774
-16.355
-15.983
-15.657
-15.378
-15.146
-14.962
-14.824
-14.735
-14.693
-14.699
-14.752
-14.854
-15.005
-15.203
-15.449
-15.743
-16.083
-16.467
-16.895
-17.365
-17.875
-18.422
-19.003
-19.616
-20.257
-20.924
-21.611
-22.316
-23.034
-23.759
-24.488
-25.214
-25.933
-26.639
-27.327
-27.991
-28.629
-29.233
-29.801
-30.326
-30.804
-31.231
-31.602
-31.912
-32.158
-32.335
-32.439
-32.469
-32.421
-32.294
-32.087
-31.798
-31.429
-30.98
-30.452
-29.848
-29.171
-28.425
-27.614
-26.744
-25.822
-24.855
-23.852
-22.821
-21.776
-20.729
-19.693
-18.68
-17.706
-16.783
-15.925
-15.145
-14.453
-13.859
-13.372
-13.003
-12.766
-12.673
-12.732
-12.954
-13.344
-13.91
-14.656
-15.583
-16.685
-17.955
-19.39
-20.992
-22.774
-24.745
-26.905
-29.25
-31.771
-34.451
-37.275
-40.212
-43.215
-46.236
-49.234
-52.171
-55.027
-57.774
-60.368
-62.751
-64.854
-66.612
-67.984
-68.942
-69.464
-69.555
-69.242
-68.577
-67.641
-66.522
-65.309
-64.092
-62.961
-62.014
-61.359
-61.161
-61.658
-63.028
-65.296
-68.321
-71.792
-75.338
-78.604
-81.134
-82.343
-81.823
-79.593
-76.162
-72.409
-69.436
-68.352
-70.079
-75.442
-83.897
-93.099
-100.384
-103.642
-103.97
-104.386
-105.59
-104.01
-87.659
-43.041
36.399
149.596
280.23
406.612
513.859
591.104
640.55
671.687
689.254
697.19
693.73
672.532
630.711
567.398
485.008
389.122
284.604
175.893
66.832
-39.249
-138.041
-225.111
-298.063
-356.552
-399.718
-426.966
-436.023
-422.434
-389.337
-344.985
-298.477
-261.519
-235.643
-213.868
-191.284
-162.229
-127.428
-94.117
-65.84
-44.615
-30.942
-22.409
-17.822
-16.701
-17.541
-19.009
-20.392
-21.203
-21.212
-20.396
-18.645
-16.024
-13.289
-11.426
-10.882
-11.638
-13.406
-15.836
-18.765
-21.892
-24.627
-26.544
-27.316
-26.785
-25.366
-22.24
-16.552
-9.743
-2.351
2.913
2.833
0.577
-1.766
-0.936
7.581
19.673
31.849
41.703
45.329
45.515
45.104
44.749
46.186
48.445
50.277
51.978
53.446
54.833
56.462
58.213
59.989
61.869
63.891
66.062
68.399
70.913
73.602
76.488
79.599
82.922
86.443
90.157
94.05
98.106
102.311
106.642
111.075
115.592
120.172
124.793
129.435
134.075
138.691
143.26
147.754
152.146
156.406
160.506
164.416
168.107
171.55
174.718
177.585
180.125
182.319
184.145
185.584
186.621
187.24
187.431
187.182
186.489
185.346
183.753
181.71
179.222
176.295
172.938
169.164
164.987
160.423
155.49
150.208
144.6
138.689
132.5
126.061
119.399
112.544
105.524
98.371
91.115
83.786
76.415
69.031
61.662
54.337
47.083
39.924
32.885
25.989
19.256
12.705
6.354
0.219
-5.687
-11.352
-16.766
-21.921
-26.81
-31.43
-35.776
-39.848
-43.646
-47.172
-50.429
-53.422
-56.157
-58.64
-60.882
-62.891
-64.677
-66.252
-67.628
-68.817
-69.832
-70.685
-71.39
-71.959
-72.405
-72.74
-72.975
-73.122
-73.191
-73.192
-73.134
-73.024
-72.872
-72.683
-72.463
-72.218
-71.953
-71.671
-71.376
-71.072
-70.761
-70.443
-70.122
-69.798
-69.471
-69.141
-68.809
-68.473
-68.132
-67.786
-67.433
-67.071
-66.698
-66.314
-65.915
-65.502
-65.073
-64.626
-64.163
-63.684
-63.188
-62.678
-62.155
-61.622
-61.082
-60.536
-59.989
-59.445
-58.906
-58.378
-57.863
-57.368
-56.894
-56.448
-56.031
-55.65
-55.306
-55.004
-54.746
-54.536
-54.376
-54.269
-54.218
-54.223
-54.287
-54.411
-54.597
-54.844
-55.152
-55.52
-55.946
-56.429
-56.964
-57.547
-58.174
-58.841
-59.54
-60.266
-61.011
-61.77
-62.535
-63.298
-64.05
-64.785
-65.495
-66.17
-66.805
-67.391
-67.921
-68.389
-68.787
-69.112
-69.357
-69.518
-69.59
-69.567
-69.446
-69.225
-68.904
-68.482
-67.958
-67.333
-66.604
-65.779
-64.867
-63.861
-62.759
-61.561
-60.264
-58.887
-57.456
-55.966
-54.412
-52.842
-51.295
-49.805
-48.418
-47.12
-45.871
-44.717
-43.73
-42.783
-41.719
-40.657
-39.603
-38.539
-37.848
-36.548
-33.68
-30.637
-27.847
-27.863
-33.734
-42.103
-50.731
-56.281
-54.165
-48.439
-42.539
-38.811
-41.139
-46.731
-52.758
-58.593
-62.52
-65.529
-68.898
-72.367
-76.076
-79.914
-83.59
-87.226
-90.917
-94.574
-98.145
-101.624
-104.968
-108.12
-111.033
-113.615
-115.782
-117.523
-118.8
-119.58
-119.873
-119.692
-119.088
-118.182
-117.01
-115.581
-114.064
-112.592
-111.351
-110.608
-110.41
-110.789
-111.985
-114.148
-117.033
-120.24
-123.056
-124.625
-124.714
-123.191
-119.643
-113.802
-106.205
-98.182
-91.735
-89.063
-89.984
-92.433
-95.428
-99.451
-108.174
-126.892
-155.13
-184.466
-199.641
-183.903
-128.994
-39.543
69.202
180.748
284.473
377.827
464.68
546.267
619.16
677.796
715.261
727.808
715.404
678.716
619.295
540.026
444.444
337.125
223.828
109.747
-0.699
-102.746
-192.429
-266.92
-324.134
-363.902
-387.753
-397.31
-394.356
-381.448
-360.902
-335.065
-306.661
-277.071
-246.552
-216.838
-189.649
-164.831
-143.3
-122.992
-100.755
-80.003
-63.004
-52.708
-52.917
-58.332
-64.153
-67.572
-64.737
-58.093
-50.426
-42.449
-35.969
-30.932
-27.131
-25.09
-24.644
-25.899
-27.659
-28.565
-29.464
-30.213
-32.847
-39.991
-48.213
-55.422
-58.493
-53.055
-43.161
-32.238
-22.64
-18.282
-16.608
-15.01
-13.044
-9.15
-4.365
-0.009
4.1
7.756
11.002
14.094
16.897
19.302
21.376
23.146
24.616
25.841
26.896
27.851
28.803
29.833
30.968
32.239
33.681
35.317
37.167
39.237
41.518
44.01
46.719
49.651
52.813
56.199
59.8
63.605
67.601
71.774
76.11
80.59
85.197
89.913
94.721
99.603
104.541
109.513
114.494
119.461
124.384
129.237
133.991
138.619
143.09
147.379
151.459
155.305
158.894
162.203
165.213
167.902
170.252
172.248
173.874
175.118
175.968
176.418
176.46
176.092
175.313
174.125
172.532
170.541
168.161
165.402
162.277
158.8
154.99
150.864
146.442
141.745
136.798
131.624
126.248
120.695
114.991
109.163
103.237
97.237
91.19
85.12
79.053
73.011
67.02
61.101
55.276
49.565
43.988
38.563
33.305
28.231
23.351
18.679
14.223
9.992
5.993
2.23
-1.293
-4.574
-7.613
-10.411
-12.97
-15.294
-17.389
-19.26
-20.914
-22.359
-23.604
-24.657
-25.528
-26.227
-26.765
-27.152
-27.399
-27.519
-27.522
-27.419
-27.223
-26.945
-26.595
-26.183
-25.72
-25.215
-24.676
-24.112
-23.529
-22.935
-22.335
-21.735
-21.139
-20.551
-19.974
-19.411
-18.862
-18.33
-17.814
-17.314
-16.831
-16.363
-15.909
-15.469
-15.041
-14.624
-14.215
-13.812
-13.414
-13.018
-12.622
-12.223
-11.819
-11.407
-10.986
-10.554
-10.11
-9.653
-9.181
-8.695
-8.195
-7.681
-7.154
-6.616
-6.068
-5.512
-4.953
-4.392
-3.833
-3.281
-2.739
-2.212
-1.705
-1.222
-0.767
-0.344
0.041
0.386
0.686
0.936
1.134
1.275
1.357
1.375
1.328
1.213
1.028
0.772
0.444
0.044
-0.428
-0.971
-1.584
-2.264
-3.008
-3.814
-4.678
-5.593
-6.556
-7.559
-8.595
-9.657
-10.738
-11.828
-12.919
-14.002
-15.068
-16.109
-17.117
-18.083
-18.998
-19.855
-20.646
-21.364
-22.002
-22.553
-23.011
-23.372
-23.631
-23.785
-23.831
-23.768
-23.594
-23.309
-22.914
-22.412
-21.807
-21.1
-20.3
-19.412
-18.446
-17.41
-16.317
-15.179
-14.009
-12.823
-11.638
-10.472
-9.343
-8.268
-7.267
-6.357
-5.558
-4.885
-4.353
-3.975
-3.766
-3.74
-3.913
-4.295
-4.898
-5.733
-6.806
-8.126
-9.695
-11.509
-13.561
-15.844
-18.355
-21.096
-24.067
-27.257
-30.655
-34.248
-38.012
-41.92
-45.931
-49.988
-54.033
-58.016
-61.888
-65.619
-69.176
-72.512
-75.58
-78.318
-80.665
-82.588
-84.059
-85.04
-85.523
-85.533
-85.117
-84.386
-83.443
-82.336
-81.107
-79.788
-78.421
-77.111
-75.985
-75.146
-74.709
-74.831
-75.647
-77.226
-79.427
-81.794
-83.709
-84.581
-83.913
-81.107
-75.547
-67.126
-56.446
-44.818
-34.005
-24.513
-15.389
-6.707
0.141
1.731
-6.507
-24.558
-45.604
-57.648
-47.573
-7.442
60.937
147.286
240.395
332.326
420.364
506.895
592.046
671.235
737.993
784.916
806.881
802.536
771.932
715.604
635.515
535.457
420.52
297.089
171.666
49.624
-63.743
-163.415
-245.615
-308.016
-350.195
-373.518
-380.066
-372.093
-352.61
-325.022
-292.769
-259.175
-226.31
-195.405
-167.605
-143.686
-123.987
-108.348
-95.961
-85.62
-76.632
-68.407
-60.005
-50.787
-40.258
-28.258
-15.256
-1.982
10.856
22.461
32.07
39.117
43.304
44.925
43.154
37.421
29.42
19.656
12.129
11.115
12.276
13.341
8.599
-9.34
-32.791
-55.989
-73.031
-75.221
-69.576
-62.471
-57.07
-59.29
-65.239
-70.716
-75.333
-77.103
-77.237
-77.451
-77.41
-77.267
-77.074
-76.615
-76.09
-75.668
-75.306
-74.981
-74.703
-74.447
-74.126
-73.667
-72.996
-72.036
-70.773
-69.191
-67.246
-64.896
-62.101
-58.842
-55.13
-50.996
-46.469
-41.575
-36.333
-30.763
-24.9
-18.775
-12.419
-5.861
0.891
7.832
14.947
22.214
29.613
37.135
44.801
52.653
60.724
69.017
77.502
86.129
94.857
103.632
112.397
121.084
129.584
137.796
145.633
153.008
159.839
166.025
171.429
175.891
179.266
181.436
182.331
181.921
180.171
177.08
172.653
166.909
159.93
151.796
142.582
132.389
121.316
109.481
97.062
84.266
71.3
58.389
45.708
33.39
21.578
10.38
-0.091
-9.718
-18.447
-26.235
-33.04
-38.861
-43.693
-47.539
-50.47
-52.585
-54.004
-54.89
-55.365
-55.51
-55.421
-55.171
-54.844
-54.544
-54.332
-54.246
-54.325
-54.587
-55.052
-55.75
-56.661
-57.74
-58.928
-60.133
-61.295
-62.385
-63.371
-64.231
-64.94
-65.461
-65.781
-65.911
-65.856
-65.624
-65.221
-64.645
-63.914
-63.066
-62.142
-61.192
-60.252
-59.341
-58.478
-57.679
-56.954
-56.317
-55.767
-55.295
-54.894
-54.562
-54.296
-54.097
-53.96
-53.871
-53.819
-53.792
-53.778
-53.772
-53.764
-53.748
-53.717
-53.669
-53.602
-53.517
-53.414
-53.29
-53.142
-52.968
-52.767
-52.538
-52.278
-51.988
-51.666
-51.314
-50.934
-50.527
-50.098
-49.648
-49.182
-48.703
-48.215
-47.724
-47.233
-46.748
-46.274
-45.816
-45.379
-44.969
-44.591
-44.25
-43.95
-43.697
-43.494
-43.344
-43.25
-43.215
-43.239
-43.325
-43.473
-43.683
-43.956
-44.289
-44.683
-45.135
-45.642
-46.202
-46.809
-47.461
-48.15
-48.873
-49.623
-50.394
-51.179
-51.971
-52.764
-53.55
-54.321
-55.071
-55.79
-56.472
-57.109
-57.691
-58.212
-58.665
-59.042
-59.338
-59.546
-59.662
-59.68
-59.597
-59.41
-59.114
-58.708
-58.19
-57.558
-56.812
-55.955
-54.985
-53.906
-52.719
-51.429
-50.038
-48.551
-46.973
-45.308
-43.561
-41.739
-39.849
-37.898
-35.893
-33.844
-31.759
-29.648
-27.521
-25.389
-23.261
-21.149
-19.062
-17.011
-15.007
-13.061
-11.182
-9.384
-7.68
-6.084
-4.607
-3.264
-2.066
-1.026
-0.155
0.538
1.048
1.369
1.496
1.423
1.141
0.644
-0.073
-1.011
-2.173
-3.558
-5.167
-6.993
-9.021
-11.24
-13.64
-16.218
-18.983
-21.937
-25.076
-28.389
-31.862
-35.475
-39.206
-43.018
-46.854
-50.662
-54.39
-57.994
-61.451
-64.725
-67.765
-70.511
-72.888
-74.827
-76.29
-77.251
-77.687
-77.603
-77.027
-76.017
-74.667
-73.083
-71.367
-69.626
-67.983
-66.571
-65.525
-65.03
-65.327
-66.568
-68.764
-71.736
-75.084
-78.357
-81.168
-83.035
-83.379
-81.856
-78.485
-73.858
-69.182
-65.702
-64.355
-65.882
-70.814
-79.145
-90.118
-101.791
-111.043
-114.403
-108.637
-91.059
-59.458
-12.269
50.848
128.49
217.577
313.667
411.721
507.012
594.551
669.161
726.558
763.533
778.033
769.981
740.341
689.987
621.069
536.892
440.929
337.449
231.018
125.053
22.837
-71.727
-155.655
-226.536
-282.367
-322.871
-348.651
-360.238
-358.889
-346.623
-325.594
-298.725
-269.112
-238.801
-209.564
-182.845
-159.486
-140.317
-125.642
-114.615
-106.017
-98.758
-91.583
-83.818
-75.146
-64.871
-52.763
-39.301
-25.163
-11.363
0.936
11.226
19.302
24.829
27.78
28.318
26.666
23.4
19.219
14.515
9.544
4.517
-0.451
-5.149
-9.328
-12.853
-15.674
-17.761
-19.096
-19.649
-19.38
-18.314
-16.525
-14.108
-11.166
-7.766
-3.953
0.227
4.704
9.374
14.117
18.815
23.393
27.802
32.01
35.989
39.722
43.231
46.553
49.741
52.844
55.881
58.852
61.784
64.713
67.641
70.583
73.561
76.575
79.667
82.9
86.254
89.676
93.291
97.24
101.399
105.755
110.319
114.731
119.893
126.678
133.788
140.814
145.388
144.684
141.781
138.722
138.562
145.509
155.8
166.246
174.658
177.428
177.104
176.273
175.495
176.339
177.871
178.893
179.617
179.882
179.758
179.479
178.882
177.841
176.396
174.557
172.314
169.676
166.658
163.276
159.562
155.557
151.264
146.686
141.846
136.761
131.45
125.935
120.235
114.367
108.356
102.225
95.997
89.694
83.339
76.953
70.559
64.177
57.829
51.534
45.314
39.187
33.17
27.281
21.534
15.946
10.527
5.291
0.247
-4.596
-9.23
-13.649
-17.847
-21.821
-25.567
-29.086
-32.376
-35.439
-38.276
-40.891
-43.287
-45.47
-47.444
-49.217
-50.794
-52.183
-53.392
-54.428
-55.3
-56.017
-56.587
-57.018
-57.321
-57.505
-57.577
-57.548
-57.425
-57.218
-56.933
-56.58
-56.166
-55.697
-55.181
-54.623
-54.028
-53.403
-52.752
-52.079
-51.389
-50.684
-49.967
-49.241
-48.509
-47.775
-47.039
-46.298
-45.555
-44.809
-44.061
-43.318
-42.573
-41.821
-41.075
-40.342
-39.631
-38.953
-38.298
-37.645
-37.011
-36.414
-35.813
-35.18
-34.491
-33.711
-32.87
-32.03
-31.159
-30.196
-29.304
-28.67
-28.184
-27.858
-27.73
-27.395
-27.949
-30.457
-33.401
-36.321
-36.428
-30.378
-21.873
-13.381
-8.573
-12.495
-20.685
-29.36
-35.93
-36.11
-32.963
-29.59
-26.682
-26.126
-26.825
-27.364
-28.01
-28.579
-29.163
-30.045
-31.034
-31.977
-32.919
-33.868
-34.8
-35.716
-36.623
-37.52
-38.43
-39.381
-40.354
-41.331
-42.311
-43.289
-44.26
-45.221
-46.163
-47.079
-47.965
-48.819
-49.635
-50.411
-51.14
-51.818
-52.44
-53.002
-53.5
-53.929
-54.286
-54.567
-54.77
-54.891
-54.928
-54.878
-54.74
-54.512
-54.193
-53.782
-53.279
-52.685
-52
-51.229
-50.372
-49.433
-48.416
-47.325
-46.164
-44.938
-43.653
-42.314
-40.928
-39.501
-38.04
-36.555
-35.053
-33.546
-32.045
-30.563
-29.113
-27.708
-26.362
-25.089
-23.904
-22.82
-21.847
-20.996
-20.277
-19.699
-19.274
-19.01
-18.919
-19.008
-19.286
-19.759
-20.431
-21.305
-22.379
-23.648
-25.108
-26.758
-28.606
-30.657
-32.916
-35.38
-38.044
-40.894
-43.907
-47.046
-50.259
-53.49
-56.68
-59.774
-62.729
-65.502
-68.05
-70.32
-72.247
-73.766
-74.826
-75.391
-75.43
-74.944
-73.976
-72.605
-70.966
-69.2
-67.426
-65.773
-64.381
-63.388
-62.924
-63.114
-64.052
-65.884
-68.846
-73.028
-78.34
-84.528
-91.104
-97.572
-103.508
-108.314
-111.164
-111.555
-109.511
-105.451
-100.295
-94.996
-90.198
-86.678
-85.535
-86.243
-86.288
-83.329
-75.281
-63.065
-50.104
-35.791
-14.34
23.849
87.467
177.909
288.347
408.085
528.492
642.991
744.994
825.974
875.549
886.879
861.046
806.647
733.683
649.412
556.658
453.887
341.787
224.427
107.06
-3.451
-101.891
-185.651
-252.908
-303.025
-336.811
-355.539
-360.772
-354.666
-339.364
-317.119
-290.543
-261.813
-232.248
-202.852
-174.662
-148.821
-126.425
-107.894
-92.962
-81.279
-72.641
-66.854
-63.4
-61.122
-58.83
-56.007
-52.594
-48.776
-44.808
-40.791
-37.042
-34.381
-33.507
-34.657
-37.793
-42.548
-48.448
-55.198
-62.39
-69.401
-75.744
-81.066
-85.148
-88.002
-89.676
-90.163
-89.517
-87.825
-85.161
-81.657
-77.428
-72.557
-67.162
-61.358
-55.266
-49.044
-42.816
-36.679
-30.708
-24.938
-19.387
-14.075
-9.007
-4.174
0.438
4.859
9.12
13.239
17.247
21.174
25.059
28.955
32.897
36.906
40.993
45.162
49.407
53.729
58.117
62.551
67.017
71.496
75.975
80.444
84.891
89.299
93.649
97.921
102.098
106.165
110.109
113.916
117.572
121.064
124.384
127.524
130.474
133.224
135.764
138.081
140.167
142.013
143.61
144.949
146.024
146.828
147.359
147.614
147.592
147.291
146.712
145.857
144.73
143.333
141.673
139.755
137.585
135.173
132.526
129.656
126.571
123.283
119.803
116.144
112.317
108.336
104.212
99.96
95.592
91.121
86.562
81.927
77.229
72.483
67.701
62.896
58.081
53.269
48.47
43.698
38.961
34.271
29.637
25.07
20.576
16.165
11.843
7.62
3.5
-0.509
-4.403
-8.175
-11.822
-15.338
-18.721
-21.967
-25.073
-28.037
-30.856
-33.529
-36.054
-38.43
-40.656
-42.733
-44.661
-46.44
-48.072
-49.559
-50.904
-52.107
-53.174
-54.107
-54.91
-55.587
-56.143
-56.581
-56.907
-57.127
-57.244
-57.265
-57.197
-57.044
-56.812
-56.509
-56.14
-55.71
-55.227
-54.697
-54.125
-53.519
-52.883
-52.226
-51.552
-50.868
-50.18
-49.493
-48.813
-48.143
-47.489
-46.853
-46.241
-45.654
-45.095
-44.566
-44.07
-43.607
-43.179
-42.786
-42.428
-42.105
-41.816
-41.56
-41.335
-41.142
-40.978
-40.841
-40.73
-40.644
-40.581
-40.539
-40.516
-40.511
-40.522
-40.548
-40.586
-40.637
-40.698
-40.77
-40.853
-40.947
-41.053
-41.171
-41.304
-41.454
-41.623
-41.814
-42.03
-42.275
-42.554
-42.869
-43.228
-43.633
-44.092
-44.609
-45.189
-45.837
-46.558
-47.358
-48.239
-49.206
-50.263
-51.413
-52.657
-53.999
-55.44
-56.979
-58.617
-60.353
-62.184
-64.107
-66.118
-68.211
-70.382
-72.621
-74.923
-77.278
-79.675
-82.105
-84.555
-87.013
-89.465
-91.896
-94.292
-96.637
-98.915
-101.11
-103.207
-105.189
-107.042
-108.749
-110.295
-111.667
-112.849
-113.83
-114.596
-115.135
-115.439
-115.499
-115.307
-114.86
-114.151
-113.182
-111.95
-110.459
-108.712
-106.714
-104.473
-101.997
-99.299
-96.39
-93.286
-90.005
-86.568
-82.998
-79.32
-75.562
-71.751
-67.916
-64.087
-60.292
-56.559
-52.914
-49.383
-45.991
-42.766
-39.737
-36.933
-34.378
-32.095
-30.106
-28.429
-27.08
-26.069
-25.397
-25.066
-25.079
-25.45
-26.198
-27.338
-28.874
-30.804
-33.119
-35.801
-38.827
-42.157
-45.729
-49.483
-53.36
-57.311
-61.301
-65.287
-69.204
-72.973
-76.495
-79.685
-82.476
-84.817
-86.669
-88.012
-88.856
-89.244
-89.248
-88.961
-88.482
-87.91
-87.353
-86.937
-86.791
-87.112
-88.179
-90.16
-93.041
-96.598
-100.36
-103.817
-106.593
-108.219
-108.031
-105.663
-101.299
-95.742
-90.526
-87.209
-86.66
-89.45
-96.198
-106.798
-119.987
-133.327
-142.884
-144.358
-134.61
-111.16
-71.582
-14.533
59.667
149.087
249.484
355.259
461.537
563.521
655.723
733.145
791.754
828.433
842.147
833.617
803.356
752.534
683.822
600.386
506.108
405.652
303.035
201.561
105.231
17.744
-58.086
-119.802
-166.536
-199.049
-218.397
-226.01
-224.316
-215.942
-203.756
-190.908
-179.206
-169.249
-161.327
-155.205
-150.274
-145.929
-141.109
-134.49
-125.573
-114.46
-101.512
-87.43
-72.837
-58.203
-44.193
-31.517
-20.582
-11.591
-4.555
0.685
4.274
6.362
7.15
6.879
5.779
4.049
1.874
-0.579
-3.182
-5.832
-8.423
-10.88
-13.1
-14.948
-16.325
-17.143
-17.347
-16.937
-15.914
-14.29
-12.108
-9.425
-6.313
-2.864
0.868
4.856
9.063
13.454
17.972
22.521
27.033
31.459
35.756
39.908
43.902
47.722
51.379
54.901
58.318
61.666
64.968
68.229
71.465
74.694
77.942
81.253
84.652
88.156
91.779
95.527
99.404
103.413
107.542
111.77
116.075
120.436
124.834
129.253
133.672
138.068
142.413
146.681
150.844
154.879
158.761
162.464
165.962
169.232
172.254
175.009
177.479
179.644
181.487
182.99
184.136
184.912
185.306
185.305
184.9
184.084
182.852
181.203
179.137
176.654
173.759
170.46
166.765
162.686
158.237
153.434
148.296
142.843
137.098
131.085
124.828
118.355
111.692
104.867
97.909
90.847
83.709
76.524
69.322
62.129
54.974
47.884
40.883
33.998
27.251
20.666
14.263
8.064
2.085
-3.655
-9.141
-14.361
-19.301
-23.952
-28.306
-32.358
-36.102
-39.538
-42.664
-45.483
-47.999
-50.216
-52.142
-53.785
-55.155
-56.262
-57.118
-57.737
-58.13
-58.313
-58.299
-58.103
-57.741
-57.227
-56.577
-55.806
-54.929
-53.962
-52.919
-51.814
-50.664
-49.481
-48.279
-47.071
-45.871
-44.689
-43.538
-42.427
-41.367
-40.364
-39.427
-38.562
-37.775
-37.07
-36.451
-35.92
-35.481
-35.133
-34.88
-34.719
-34.653
-34.678
-34.795
-35.001
-35.295
-35.674
-36.134
-36.674
-37.289
-37.975
-38.729
-39.546
-40.42
-41.346
-42.32
-43.334
-44.384
-45.463
-46.565
-47.685
-48.817
-49.956
-51.096
-52.233
-53.362
-54.479
-55.579
-56.66
-57.718
-58.748
-59.749
-60.718
-61.652
-62.549
-63.408
-64.227
-65.004
-65.738
-66.43
-67.079
-67.684
-68.247
-68.769
-69.251
-69.696
-70.106
-70.484
-70.834
-71.16
-71.465
-71.753
-72.029
-72.298
-72.562
-72.825
-73.093
-73.368
-73.654
-73.953
-74.27
-74.605
-74.962
-75.343
-75.747
-76.176
-76.631
-77.111
-77.616
-78.145
-78.697
-79.269
-79.86
-80.467
-81.084
-81.708
-82.334
-82.954
-83.562
-84.152
-84.715
-85.244
-85.731
-86.167
-86.543
-86.852
-87.084
-87.233
-87.289
-87.244
-87.092
-86.826
-86.441
-85.93
-85.289
-84.515
-83.606
-82.561
-81.378
-80.058
-78.602
-77.013
-75.294
-73.449
-71.485
-69.408
-67.229
-64.958
-62.61
-60.2
-57.744
-55.26
-52.767
-50.283
-47.827
-45.417
-43.07
-40.802
-38.632
-36.578
-34.66
-32.896
-31.305
-29.902
-28.704
-27.724
-26.973
-26.455
-26.172
-26.124
-26.319
-26.769
-27.488
-28.483
-29.76
-31.32
-33.154
-35.253
-37.589
-40.121
-42.8
-45.577
-48.404
-51.248
-54.069
-56.822
-59.456
-61.896
-64.077
-65.945
-67.444
-68.534
-69.203
-69.456
-69.345
-68.965
-68.395
-67.733
-67.096
-66.575
-66.3
-66.4
-66.965
-68.169
-70.25
-73.35
-77.526
-82.682
-88.474
-94.514
-100.433
-105.632
-109.404
-111.24
-110.923
-108.743
-105.468
-102.133
-99.75
-99.345
-102.285
-108.371
-115.696
-122.544
-125.963
-125.559
-124.487
-121.45
-113.894
-95.591
-53.3
18.586
122.39
257.316
408.876
563.017
702.772
806.784
867.833
886.117
868.867
832.281
784.217
725.281
653.631
564.162
457.117
338.643
215.907
96.384
-13.68
-110.166
-190.212
-251.803
-294.48
-319.511
-328.914
-325.36
-312.586
-294.319
-274.022
-254.854
-238.393
-224.94
-214.39
-206.095
-198.95
-191.855
-183.552
-172.907
-159.714
-144.406
-127.67
-110.362
-93.245
-76.963
-62.213
-49.66
-39.644
-32.205
-27.181
-24.264
-23.146
-23.569
-25.247
-27.818
-30.926
-34.221
-37.357
-40.122
-42.383
-44.016
-44.937
-45.064
-44.302
-42.631
-40.09
-36.727
-32.616
-27.835
-22.448
-16.582
-10.401
-4.084
2.175
8.244
14.054
19.545
24.676
29.412
33.711
37.567
41.012
44.07
46.763
49.114
51.137
52.876
54.4
55.779
57.091
58.394
59.722
61.113
62.595
64.193
65.931
67.818
69.852
72.037
74.384
76.9
79.599
82.481
85.542
88.773
92.166
95.711
99.398
103.216
107.148
111.181
115.299
119.488
123.732
128.014
132.309
136.593
140.841
145.025
149.117
153.089
156.912
160.557
163.997
167.206
170.158
172.83
175.197
177.238
178.933
180.262
181.209
181.757
181.894
181.608
180.89
179.735
178.137
176.096
173.613
170.691
167.338
163.563
159.375
154.788
149.82
144.487
138.811
132.814
126.521
119.958
113.153
106.135
98.934
91.581
84.106
76.541
68.917
61.265
53.616
46.001
38.448
30.989
23.65
16.46
9.445
2.631
-3.96
-10.306
-16.384
-22.179
-27.671
-32.847
-37.694
-42.202
-46.361
-50.166
-53.612
-56.698
-59.426
-61.796
-63.816
-65.491
-66.832
-67.848
-68.553
-68.959
-69.083
-68.941
-68.55
-67.927
-67.093
-66.067
-64.868
-63.518
-62.036
-60.444
-58.762
-57.011
-55.21
-53.381
-51.54
-49.708
-47.902
-46.138
-44.432
-42.799
-41.251
-39.801
-38.458
-37.232
-36.13
-35.158
-34.318
-33.615
-33.049
-32.619
-32.324
-32.16
-32.124
-32.21
-32.413
-32.725
-33.138
-33.645
-34.237
-34.903
-35.636
-36.423
-37.257
-38.125
-39.018
-39.926
-40.838
-41.745
-42.638
-43.507
-44.344
-45.141
-45.891
-46.588
-47.226
-47.8
-48.306
-48.741
-49.104
-49.393
-49.609
-49.753
-49.825
-49.829
-49.767
-49.643
-49.462
-49.227
-48.943
-48.616
-48.251
-47.853
-47.428
-46.982
-46.521
-46.049
-45.573
-45.097
-44.627
-44.165
-43.718
-43.287
-42.876
-42.487
-42.123
-41.786
-41.476
-41.194
-40.94
-40.714
-40.514
-40.339
-40.186
-40.053
-39.937
-39.834
-39.739
-39.649
-39.559
-39.465
-39.362
-39.248
-39.115
-38.961
-38.782
-38.573
-38.331
-38.051
-37.733
-37.372
-36.968
-36.521
-36.029
-35.494
-34.917
-34.3
-33.646
-32.96
-32.244
-31.503
-30.743
-29.969
-29.187
-28.405
-27.629
-26.869
-26.133
-25.435
-24.786
-24.198
-23.685
-23.259
-22.931
-22.713
-22.614
-22.639
-22.794
-23.084
-23.516
-24.097
-24.833
-25.726
-26.778
-27.987
-29.352
-30.869
-32.528
-34.312
-36.21
-38.213
-40.322
-42.549
-44.9
-47.373
-49.961
-52.652
-55.431
-58.279
-61.158
-64.013
-66.791
-69.44
-71.919
-74.199
-76.238
-77.981
-79.361
-80.295
-80.713
-80.572
-79.86
-78.578
-76.751
-74.413
-71.614
-68.47
-65.133
-61.763
-58.469
-55.339
-52.489
-50.104
-48.505
-47.946
-48.476
-49.938
-52.129
-54.853
-57.658
-60.045
-61.393
-60.972
-59.656
-58.666
-57.896
-58.288
-58.505
-57.1
-57.319
-59.559
-65.631
-77.588
-91.241
-106.304
-119.439
-124.062
-115.465
-82.22
-18.809
75.154
198.026
335.263
473.643
599.125
693.133
749.824
768.848
755.021
723.063
680.962
629.859
568.604
491.958
398.92
293.943
182.858
71.6
-35.653
-135.484
-224.805
-300.916
-361.26
-405.163
-433.469
-446.7
-445.693
-432.1
-407.767
-375.592
-339.02
-299.963
-259.579
-219.391
-180.893
-145.892
-116.148
-91.908
-72.495
-57.822
-47.837
-42.186
-40.235
-40.273
-40.293
-39.411
-37.459
-34.315
-30.005
-24.553
-18.128
-11.68
-6.436
-2.992
-1.459
-1.641
-3.17
-5.776
-9.193
-12.898
-16.214
-18.703
-20.166
-20.596
-20.122
-18.827
-16.74
-13.939
-10.574
-6.779
-2.665
1.662
6.152
10.724
15.249
19.617
23.731
27.52
30.967
34.071
36.831
39.263
41.395
43.259
44.905
46.38
47.721
48.975
50.189
51.416
52.725
54.171
55.795
57.632
59.699
62.009
64.572
67.388
70.449
73.745
77.265
80.999
84.942
89.08
93.396
97.871
102.48
107.199
112.006
116.877
121.786
126.709
131.618
136.489
141.298
146.018
150.62
155.075
159.353
163.422
167.255
170.823
174.098
177.053
179.665
181.912
183.775
185.236
186.28
186.894
187.067
186.791
186.063
184.878
183.237
181.143
178.602
175.622
172.215
168.392
164.171
159.567
154.601
149.294
143.669
137.752
131.567
125.144
118.51
111.696
104.733
97.65
90.479
83.252
75.998
68.749
61.534
54.381
47.319
40.374
33.572
26.935
20.486
14.246
8.232
2.463
-3.048
-8.288
-13.247
-17.915
-22.286
-26.355
-30.119
-33.578
-36.732
-39.584
-42.138
-44.4
-46.377
-48.079
-49.516
-50.7
-51.643
-52.359
-52.863
-53.171
-53.297
-53.257
-53.07
-52.751
-52.317
-51.785
-51.172
-50.491
-49.76
-48.997
-48.216
-47.432
-46.656
-45.897
-45.17
-44.49
-43.857
-43.267
-42.723
-42.216
-41.764
-41.389
-41.078
-40.815
-40.64
-40.582
-40.663
-40.916
-41.309
-41.777
-42.349
-43.081
-43.81
-44.342
-44.783
-45.116
-45.299
-45.725
-45.306
-42.983
-40.251
-37.562
-37.672
-43.883
-52.53
-61.168
-66.162
-62.517
-54.646
-46.287
-40.005
-40.036
-43.349
-46.877
-49.937
-50.661
-50.139
-49.771
-49.295
-48.896
-48.484
-47.783
-46.984
-46.241
-45.513
-44.797
-44.116
-43.474
-42.868
-42.299
-41.749
-41.191
-40.645
-40.129
-39.644
-39.195
-38.787
-38.42
-38.101
-37.837
-37.628
-37.475
-37.379
-37.34
-37.358
-37.434
-37.565
-37.751
-37.988
-38.274
-38.604
-38.974
-39.381
-39.82
-40.285
-40.771
-41.273
-41.785
-42.299
-42.81
-43.31
-43.794
-44.254
-44.685
-45.079
-45.433
-45.74
-45.996
-46.197
-46.339
-46.418
-46.434
-46.382
-46.261
-46.07
-45.809
-45.479
-45.081
-44.617
-44.092
-43.512
-42.885
-42.219
-41.524
-40.812
-40.091
-39.374
-38.672
-37.994
-37.349
-36.745
-36.194
-35.706
-35.295
-34.973
-34.752
-34.642
-34.652
-34.793
-35.072
-35.492
-36.052
-36.752
-37.599
-38.609
-39.799
-41.18
-42.756
-44.529
-46.491
-48.631
-50.923
-53.326
-55.79
-58.266
-60.706
-63.077
-65.346
-67.475
-69.41
-71.08
-72.419
-73.378
-73.923
-74.039
-73.731
-73.022
-71.985
-70.736
-69.391
-68.083
-66.945
-66.095
-65.689
-65.885
-66.828
-68.717
-71.786
-76.165
-81.864
-88.698
-96.227
-103.969
-111.452
-118.072
-123.169
-126.252
-127.134
-126.233
-124.557
-123.21
-123.106
-124.954
-129.312
-136.359
-145.614
-155.453
-163.074
-165.136
-158.372
-140.058
-107.784
-59.686
4.975
85.426
179.054
281.588
387.983
493.131
591.391
676.954
744.675
790.013
809.977
803.857
771.816
714.601
634.633
535.374
422.209
303.054
184.358
69.703
-40.469
-148.31
-252.456
-345.991
-417.505
-455.826
-458.023
-430.774
-388.505
-346.317
-312.413
-287.72
-268.174
-249.606
-231.256
-215.204
-203.693
-196.814
-192.854
-189.262
-183.893
-176.162
-166.056
-153.258
-137.759
-119.967
-100.812
-81.922
-64.645
-49.648
-37.294
-27.459
-21.174
-19.377
-20.44
-23.365
-24.782
-21.01
-15.242
-9.625
-7.599
-13.85
-23.896
-33.937
-41.353
-41.954
-38.643
-34.364
-29.736
-26.563
-23.817
-20.228
-16.179
-11.621
-6.752
-1.913
3.014
8.09
13.159
18.076
22.745
27.1
31.097
34.71
37.897
40.615
42.886
44.77
46.322
47.594
48.626
49.441
50.073
50.57
50.984
51.376
51.794
52.271
52.832
53.501
54.297
55.239
56.331
57.566
58.936
60.438
62.07
63.837
65.734
67.753
69.882
72.108
74.42
76.806
79.252
81.743
84.261
86.79
89.314
91.82
94.291
96.708
99.05
101.297
103.429
105.427
107.27
108.939
110.417
111.686
112.733
113.543
114.105
114.407
114.441
114.198
113.673
112.86
111.758
110.365
108.682
106.713
104.463
101.94
99.152
96.109
92.824
89.313
85.59
81.672
77.579
73.329
68.944
64.445
59.853
55.192
50.483
45.749
41.012
36.294
31.618
27.002
22.468
18.034
13.718
9.536
5.506
1.64
-2.048
-5.546
-8.844
-11.932
-14.805
-17.455
-19.88
-22.077
-24.047
-25.79
-27.31
-28.612
-29.703
-30.589
-31.28
-31.787
-32.121
-32.294
-32.321
-32.214
-31.989
-31.66
-31.243
-30.752
-30.204
-29.613
-28.994
-28.362
-27.73
-27.112
-26.52
-25.967
-25.464
-25.021
-24.647
-24.351
-24.139
-24.018
-23.992
-24.064
-24.236
-24.509
-24.883
-25.354
-25.92
-26.577
-27.32
-28.142
-29.035
-29.993
-31.006
-32.066
-33.163
-34.287
-35.429
-36.577
-37.723
-38.856
-39.966
-41.044
-42.081
-43.069
-44
-44.866
-45.661
-46.379
-47.016
-47.566
-48.027
-48.397
-48.674
-48.857
-48.948
-48.949
-48.861
-48.688
-48.436
-48.109
-47.714
-47.257
-46.746
-46.187
-45.59
-44.963
-44.313
-43.65
-42.981
-42.316
-41.662
-41.028
-40.422
-39.849
-39.318
-38.832
-38.399
-38.021
-37.702
-37.446
-37.253
-37.126
-37.065
-37.069
-37.138
-37.268
-37.457
-37.702
-37.996
-38.335
-38.712
-39.119
-39.549
-39.993
-40.442
-40.889
-41.325
-41.739
-42.124
-42.47
-42.767
-43.009
-43.185
-43.288
-43.309
-43.243
-43.082
-42.822
-42.458
-41.988
-41.407
-40.716
-39.913
-38.999
-37.974
-36.842
-35.605
-34.268
-32.835
-31.315
-29.715
-28.043
-26.313
-24.538
-22.733
-20.914
-19.096
-17.297
-15.535
-13.825
-12.185
-10.627
-9.163
-7.807
-6.575
-5.482
-4.544
-3.774
-3.186
-2.789
-2.593
-2.606
-2.832
-3.264
-3.9
-4.737
-5.781
-7.052
-8.561
-10.314
-12.311
-14.544
-17
-19.66
-22.491
-25.439
-28.45
-31.473
-34.466
-37.404
-40.255
-42.974
-45.5
-47.753
-49.662
-51.175
-52.256
-52.88
-53.048
-52.783
-52.15
-51.248
-50.186
-49.082
-48.051
-47.214
-46.707
-46.657
-47.248
-48.73
-51.273
-54.926
-59.543
-64.721
-69.97
-74.852
-78.819
-81.243
-81.709
-80.104
-76.95
-73.462
-71.004
-70.762
-73.649
-80.286
-90.789
-104.502
-119.506
-132.625
-140.076
-138.078
-123.51
-93.772
-46.912
17.684
98.968
194.094
298.537
406.983
514.208
614.582
702.321
772.431
820.639
844.002
841.598
813.499
760.514
685.048
590.733
482.052
364.69
244.538
126.751
16.56
-81.299
-163.464
-227.679
-273.302
-301.583
-314.743
-315.374
-306.744
-292.053
-273.903
-254.509
-235.111
-215.907
-196.645
-176.973
-156.498
-135.224
-113.772
-92.864
-73.323
-56.185
-42.392
-32.515
-26.739
-24.551
-24.658
-25.825
-27.218
-28.136
-28.109
-26.959
-24.659
-21.646
-18.876
-17.084
-16.565
-17.374
-19.321
-22.137
-25.609
-29.375
-32.882
-35.723
-37.676
-38.654
-38.738
-38.007
-36.49
-34.249
-31.395
-28.023
-24.242
-20.157
-15.828
-11.333
-6.778
-2.244
2.199
6.494
10.611
14.542
18.276
21.818
25.186
28.392
31.453
34.39
37.228
40
42.743
45.498
48.31
51.218
54.25
57.427
60.759
64.249
67.899
71.7
75.638
79.699
83.873
88.144
92.502
96.929
101.405
105.907
110.412
114.893
119.328
123.693
127.966
132.124
136.147
140.014
143.709
147.212
150.504
153.563
156.371
158.908
161.157
163.1
164.72
166.004
166.939
167.515
167.724
167.561
167.022
166.103
164.807
163.134
161.089
158.679
155.912
152.797
149.347
145.574
141.495
137.125
132.482
127.584
122.45
117.098
111.55
105.825
99.943
93.926
87.793
81.564
75.261
68.903
62.509
56.099
49.691
43.302
36.951
30.652
24.421
18.271
12.215
6.264
0.429
-5.281
-10.86
-16.299
-21.595
-26.743
-31.74
-36.583
-41.271
-45.804
-50.182
-54.405
-58.475
-62.393
-66.161
-69.78
-73.251
-76.578
-79.761
-82.802
-85.703
-88.465
-91.089
-93.578
-95.933
-98.155
-100.246
-102.207
-104.039
-105.743
-107.32
-108.771
-110.095
-111.292
-112.362
-113.305
-114.119
-114.803
-115.355
-115.775
-116.061
-116.21
-116.221
-116.093
-115.825
-115.416
-114.867
-114.177
-113.348
-112.381
-111.28
-110.047
-108.686
-107.202
-105.599
-103.882
-102.059
-100.134
-98.115
-96.008
-93.82
-91.56
-89.235
-86.854
-84.424
-81.955
-79.456
-76.936
-74.406
-71.875
-69.354
-66.854
-64.385
-61.958
-59.585
-57.274
-55.036
-52.881
-50.818
-48.854
-46.997
-45.255
-43.632
-42.133
-40.763
-39.525
-38.421
-37.454
-36.623
-35.929
-35.371
-34.948
-34.659
-34.501
-34.47
-34.564
-34.778
-35.107
-35.546
-36.088
-36.727
-37.455
-38.262
-39.141
-40.08
-41.069
-42.098
-43.155
-44.229
-45.309
-46.384
-47.442
-48.474
-49.468
-50.415
-51.306
-52.13
-52.879
-53.546
-54.122
-54.599
-54.972
-55.235
-55.382
-55.408
-55.309
-55.08
-54.718
-54.22
-53.584
-52.809
-51.893
-50.838
-49.644
-48.316
-46.858
-45.275
-43.572
-41.759
-39.843
-37.834
-35.743
-33.579
-31.355
-29.082
-26.773
-24.442
-22.103
-19.77
-17.459
-15.19
-12.978
-10.844
-8.806
-6.883
-5.093
-3.454
-1.984
-0.694
0.4
1.286
1.95
2.378
2.556
2.476
2.13
1.511
0.617
-0.553
-1.995
-3.698
-5.652
-7.85
-10.294
-12.992
-15.951
-19.167
-22.632
-26.336
-30.26
-34.383
-38.669
-43.062
-47.504
-51.945
-56.336
-60.646
-64.831
-68.829
-72.561
-75.936
-78.861
-81.283
-83.159
-84.453
-85.153
-85.267
-84.821
-83.914
-82.672
-81.198
-79.609
-77.999
-76.44
-75.119
-74.313
-74.249
-75.06
-76.697
-78.898
-81.397
-83.96
-86.166
-87.413
-87.18
-85.231
-81.892
-77.987
-74.593
-72.794
-73.644
-78.412
-86.931
-97.138
-106.755
-112.738
-114.938
-117.123
-119.54
-119.84
-109.835
-73.801
-3.104
104.707
243.933
395.229
540.873
664.68
753.476
806.935
829.7
829.517
815.318
789.602
749.962
692.575
615.958
522.605
418.016
309.114
200.466
95.02
-3.529
-92.109
-167.997
-228.754
-274.039
-304.753
-321.319
-324.466
-315.989
-298.152
-273.896
-246.322
-217.281
-187.985
-160.032
-135.236
-115.027
-100.04
-89.956
-83.898
-81.267
-81.635
-84.096
-87.13
-89.252
-89.583
-87.855
-84.318
-79.333
-73.173
-66.403
-59.983
-54.691
-50.897
-48.653
-47.68
-47.609
-48.167
-48.983
-49.555
-49.541
-48.772
-47.202
-44.936
-42.071
-38.624
-34.646
-30.257
-25.572
-20.733
-15.863
-10.992
-6.177
-1.526
2.92
7.165
11.201
15.095
18.903
22.537
25.924
29.107
31.934
34.098
35.649
36.747
37.31
37.829
38.001
35.983
32.221
28.548
27.649
35.715
54.13
76.881
96.59
102.318
88.257
62.336
35.858
20.936
26.683
47.668
72.955
94.328
104.385
105.438
105.066
105.336
108.348
111.988
110.979
107.747
104.518
104.273
111.646
122.898
134.454
143.979
147.824
148.506
148.612
148.74
150.495
152.945
154.921
156.644
157.918
158.805
159.538
159.94
159.872
159.367
158.419
157.008
155.137
152.819
150.061
146.893
143.348
139.425
135.125
130.468
125.468
120.144
114.518
108.609
102.435
96.025
89.407
82.607
75.656
68.58
61.411
54.176
46.907
39.631
32.379
25.177
18.054
11.037
4.151
-2.58
-9.131
-15.481
-21.61
-27.5
-33.133
-38.495
-43.57
-48.349
-52.82
-56.975
-60.807
-64.31
-67.481
-70.318
-72.822
-74.994
-76.837
-78.357
-79.562
-80.46
-81.061
-81.378
-81.424
-81.212
-80.758
-80.079
-79.192
-78.113
-76.862
-75.457
-73.917
-72.26
-70.505
-68.67
-66.773
-64.831
-62.862
-60.881
-58.904
-56.946
-55.021
-53.142
-51.323
-49.575
-47.91
-46.337
-44.865
-43.504
-42.258
-41.136
-40.141
-39.276
-38.545
-37.948
-37.485
-37.157
-36.961
-36.893
-36.951
-37.129
-37.422
-37.825
-38.33
-38.931
-39.621
-40.393
-41.239
-42.152
-43.126
-44.152
-45.225
-46.337
-47.481
-48.652
-49.844
-51.049
-52.263
-53.48
-54.695
-55.903
-57.1
-58.282
-59.446
-60.587
-61.704
-62.793
-63.852
-64.88
-65.875
-66.836
-67.762
-68.653
-69.509
-70.33
-71.116
-71.868
-72.586
-73.269
-73.918
-74.532
-75.111
-75.653
-76.158
-76.624
-77.048
-77.431
-77.769
-78.06
-78.301
-78.49
-78.623
-78.696
-78.708
-78.652
-78.526
-78.326
-78.048
-77.689
-77.246
-76.715
-76.094
-75.379
-74.568
-73.659
-72.649
-71.537
-70.322
-69.001
-67.575
-66.044
-64.41
-62.674
-60.84
-58.909
-56.887
-54.779
-52.591
-50.33
-48.003
-45.619
-43.187
-40.719
-38.224
-35.715
-33.208
-30.716
-28.259
-25.852
-23.513
-21.262
-19.116
-17.093
-15.211
-13.483
-11.923
-10.545
-9.362
-8.388
-7.639
-7.127
-6.865
-6.862
-7.127
-7.665
-8.481
-9.57
-10.927
-12.545
-14.423
-16.571
-18.994
-21.694
-24.668
-27.906
-31.39
-35.1
-39.001
-43.039
-47.162
-51.314
-55.444
-59.517
-63.492
-67.319
-70.941
-74.277
-77.254
-79.814
-81.901
-83.475
-84.529
-85.074
-85.16
-84.884
-84.316
-83.543
-82.674
-81.813
-81.1
-80.676
-80.652
-81.212
-82.612
-85.021
-88.462
-92.715
-97.307
-101.778
-105.735
-108.655
-109.928
-109.124
-106.214
-101.96
-97.64
-94.315
-92.963
-94.491
-99.454
-108.198
-119.311
-128.693
-133.215
-130.82
-120.8
-105.705
-82.823
-44.732
14.486
101.25
212.966
337.345
463.252
579.219
678.131
759.608
822.094
863.823
883.091
877.149
845.372
789.026
710.843
615.118
506.413
389.878
270.985
154.419
44.786
-53.722
-138.385
-207.254
-259.199
-294.966
-316.355
-325.202
-324.024
-315.291
-300.639
-282.057
-261.568
-239.921
-217.288
-194.049
-170.297
-146.648
-124.622
-104.872
-87.359
-72.555
-60.899
-52.445
-47.238
-44.433
-42.196
-39.546
-36.252
-32.028
-26.922
-21.055
-14.387
-7.514
-1.612
2.694
5.212
5.925
5.179
3.221
0.127
-3.762
-7.934
-12.013
-15.696
-18.799
-21.31
-23.184
-24.36
-24.839
-24.646
-23.827
-22.453
-20.58
-18.252
-15.507
-12.374
-8.885
-5.077
-1.008
3.24
7.581
11.92
16.184
20.326
24.31
28.112
31.731
35.177
38.477
41.669
44.779
47.826
50.824
53.785
56.729
59.687
62.692
65.782
68.989
72.33
75.819
79.463
83.26
87.2
91.266
95.431
99.672
103.97
108.303
112.654
117.003
121.324
125.593
129.781
133.862
137.809
141.596
145.196
148.584
151.738
154.635
157.259
159.591
161.613
163.305
164.652
165.638
166.249
166.473
166.3
165.72
164.73
163.324
161.505
159.274
156.634
153.593
150.16
146.347
142.166
137.635
132.771
127.594
122.125
116.387
110.404
104.204
97.812
91.256
84.566
77.77
70.897
63.978
57.041
50.114
43.226
36.404
29.675
23.063
16.593
10.288
4.17
-1.743
-7.431
-12.878
-18.071
-22.995
-27.641
-31.999
-36.062
-39.826
-43.287
-46.444
-49.297
-51.85
-54.105
-56.068
-57.748
-59.152
-60.29
-61.175
-61.818
-62.234
-62.436
-62.439
-62.26
-61.914
-61.416
-60.785
-60.035
-59.182
-58.242
-57.23
-56.162
-55.051
-53.911
-52.754
-51.594
-50.442
-49.308
-48.202
-47.133
-46.109
-45.138
-44.225
-43.375
-42.594
-41.884
-41.248
-40.689
-40.207
-39.803
-39.476
-39.225
-39.049
-38.944
-38.909
-38.941
-39.035
-39.188
-39.397
-39.657
-39.966
-40.318
-40.712
-41.142
-41.606
-42.1
-42.621
-43.166
-43.731
-44.315
-44.915
-45.529
-46.154
-46.789
-47.432
-48.082
-48.738
-49.397
-50.058
-50.72
-51.383
-52.043
-52.702
-53.356
-54.005
-54.648
-55.284
-55.911
-56.526
-57.129
-57.716
-58.285
-58.832
-59.354
-59.848
-60.309
-60.733
-61.117
-61.456
-61.746
-61.982
-62.159
-62.273
-62.318
-62.29
-62.183
-61.993
-61.714
-61.342
-60.873
-60.302
-59.626
-58.842
-57.946
-56.936
-55.809
-54.565
-53.201
-51.717
-50.113
-48.39
-46.55
-44.596
-42.532
-40.362
-38.091
-35.727
-33.276
-30.747
-28.148
-25.488
-22.776
-20.025
-17.244
-14.448
-11.647
-8.856
-6.089
-3.365
-0.699
1.889
4.382
6.762
9.01
11.108
13.038
14.787
16.341
17.686
18.808
19.695
20.33
20.702
20.801
20.617
20.145
19.378
18.316
16.965
15.333
13.425
11.242
8.777
6.023
2.984
-0.337
-3.93
-7.775
-11.847
-16.11
-20.508
-24.986
-29.491
-33.971
-38.393
-42.715
-46.886
-50.846
-54.523
-57.845
-60.764
-63.233
-65.216
-66.726
-67.79
-68.475
-68.892
-69.122
-69.266
-69.453
-69.79
-70.403
-71.435
-72.991
-75.247
-78.473
-82.778
-88.103
-94.267
-100.833
-107.325
-113.36
-118.344
-121.538
-122.568
-121.537
-118.948
-115.695
-112.909
-111.582
-112.466
-116.617
-123.443
-129.982
-134.629
-136.147
-134.279
-132.052
-126.401
-108.423
-70.1
-2.433
93.708
206.528
324.793
436.744
535.95
622.169
693.036
745.989
777.738
784.21
764.415
718.675
648.398
557.652
451.067
333.839
212.219
91.043
-25.508
-132.443
-225.857
-303.117
-362.253
-403.499
-428.785
-439.447
-437.253
-424.976
-404.768
-379.207
-351.274
-322.176
-292.166
-262.024
-232.198
-203.232
-176.525
-152.433
-130.462
-111.012
-94.629
-81.464
-71.766
-64.918
-59.299
-54.153
-49.392
-44.709
-40.012
-35.253
-30.222
-25.359
-21.696
-19.703
-19.425
-20.749
-23.239
-26.542
-30.439
-34.48
-38.032
-40.691
-42.233
-42.582
-41.866
-40.169
-37.527
-34.036
-29.834
-25.059
-19.845
-14.323
-8.591
-2.771
2.987
8.559
13.835
18.74
23.24
27.322
30.99
34.263
37.171
39.752
42.049
44.107
45.966
47.675
49.289
50.866
52.477
54.176
56.01
58.012
60.206
62.605
65.219
68.05
71.09
74.332
77.77
81.396
85.207
89.194
93.343
97.639
102.06
106.586
111.2
115.878
120.6
125.344
130.084
134.799
139.468
144.065
148.564
152.937
157.154
161.187
165.008
168.589
171.902
174.921
177.623
179.984
181.985
183.607
184.833
185.649
186.041
186
185.518
184.591
183.214
181.388
179.114
176.397
173.244
169.665
165.67
161.273
156.49
151.338
145.837
140.01
133.878
127.467
120.804
113.916
106.831
99.578
92.188
84.69
77.115
69.492
61.852
54.223
46.634
39.113
31.686
24.377
17.212
10.213
3.4
-3.206
-9.588
-15.729
-21.615
-27.232
-32.569
-37.616
-42.364
-46.807
-50.94
-54.759
-58.264
-61.453
-64.33
-66.897
-69.16
-71.124
-72.797
-74.189
-75.31
-76.172
-76.785
-77.164
-77.323
-77.277
-77.039
-76.625
-76.051
-75.331
-74.481
-73.515
-72.448
-71.294
-70.066
-68.779
-67.445
-66.077
-64.687
-63.285
-61.883
-60.492
-59.12
-57.777
-56.472
-55.21
-54
-52.847
-51.757
-50.733
-49.779
-48.898
-48.092
-47.362
-46.708
-46.129
-45.625
-45.195
-44.835
-44.545
-44.322
-44.162
-44.064
-44.025
-44.04
-44.109
-44.227
-44.392
-44.6
-44.85
-45.137
-45.461
-45.817
-46.205
-46.62
-47.06
-47.524
-48.007
-48.509
-49.027
-49.558
-50.101
-50.653
-51.214
-51.782
-52.356
-52.935
-53.516
-54.1
-54.685
-55.269
-55.852
-56.431
-57.004
-57.57
-58.126
-58.672
-59.203
-59.717
-60.211
-60.681
-61.124
-61.535
-61.91
-62.245
-62.534
-62.772
-62.956
-63.082
-63.143
-63.137
-63.059
-62.904
-62.669
-62.35
-61.942
-61.443
-60.848
-60.154
-59.361
-58.467
-57.47
-56.37
-55.167
-53.864
-52.461
-50.962
-49.369
-47.687
-45.921
-44.078
-42.164
-40.188
-38.16
-36.09
-33.993
-31.884
-29.778
-27.691
-25.64
-23.643
-21.715
-19.874
-18.134
-16.507
-15.006
-13.646
-12.443
-11.413
-10.571
-9.929
-9.499
-9.291
-9.315
-9.578
-10.076
-10.805
-11.764
-12.958
-14.401
-16.107
-18.081
-20.32
-22.82
-25.564
-28.532
-31.691
-34.986
-38.364
-41.771
-45.161
-48.507
-51.779
-54.93
-57.901
-60.616
-63
-65.01
-66.608
-67.759
-68.471
-68.771
-68.727
-68.457
-68.057
-67.614
-67.231
-67.009
-67.066
-67.554
-68.595
-70.36
-73.111
-76.954
-81.832
-87.519
-93.455
-99.034
-103.795
-107.147
-108.389
-107.232
-103.83
-98.89
-94.004
-90.718
-89.958
-92.533
-99.049
-109.291
-122.144
-135.307
-144.834
-146.561
-137.276
-114.062
-74.505
-17.466
56.913
146.694
247.365
353.356
459.331
559.364
647.363
718.002
766.433
789.218
785.486
755.561
700.51
623.13
527.327
417.801
300.543
181.415
65.193
-43.316
-139.921
-221.708
-286.469
-333.613
-364.468
-380.674
-383.958
-376.882
-361.857
-341.375
-318.299
-294.351
-270.195
-246.752
-224.961
-205.357
-188.649
-174.887
-163.346
-153.738
-145.974
-139.476
-133.383
-126.886
-119.058
-109.524
-98.588
-86.537
-73.758
-60.944
-48.937
-38.428
-30.009
-23.967
-20.174
-18.408
-18.341
-19.47
-21.256
-23.301
-25.309
-27.066
-28.458
-29.371
-29.694
-29.41
-28.551
-27.125
-25.132
-22.572
-19.451
-15.831
-11.826
-7.54
-3.05
1.576
6.285
10.999
15.612
20.043
24.235
28.156
31.797
35.143
38.184
40.926
43.402
45.655
47.739
49.703
51.58
53.409
55.229
57.087
59.042
61.134
63.394
65.844
68.499
71.372
74.477
77.813
81.369
85.133
89.09
93.228
97.539
102.005
106.606
111.32
116.12
120.98
125.877
130.785
135.675
140.519
145.288
149.955
154.493
158.876
163.074
167.057
170.796
174.261
177.427
180.267
182.755
184.869
186.587
187.892
188.769
189.203
189.185
188.705
187.758
186.34
184.451
182.093
179.272
175.995
172.272
168.118
163.548
158.58
153.234
147.532
141.498
135.159
128.543
121.678
114.594
107.323
99.898
92.349
84.712
77.018
69.3
61.59
53.922
46.325
38.83
31.466
24.261
17.24
10.427
3.847
-2.48
-8.536
-14.303
-19.766
-24.914
-29.735
-34.222
-38.368
-42.17
-45.627
-48.74
-51.511
-53.946
-56.05
-57.834
-59.306
-60.48
-61.369
-61.986
-62.348
-62.472
-62.376
-62.078
-61.596
-60.952
-60.164
-59.254
-58.24
-57.144
-55.985
-54.783
-53.556
-52.322
-51.098
-49.901
-48.746
-47.645
-46.611
-45.655
-44.786
-44.012
-43.339
-42.772
-42.314
-41.967
-41.73
-41.604
-41.586
-41.673
-41.861
-42.144
-42.517
-42.972
-43.502
-44.098
-44.752
-45.453
-46.192
-46.958
-47.739
-48.526
-49.307
-50.072
-50.809
-51.51
-52.163
-52.761
-53.295
-53.758
-54.145
-54.449
-54.669
-54.8
-54.842
-54.796
-54.663
-54.445
-54.146
-53.771
-53.325
-52.814
-52.246
-51.627
-50.966
-50.271
-49.55
-48.814
-48.072
-47.334
-46.61
-45.91
-45.245
-44.624
-44.057
-43.554
-43.123
-42.774
-42.513
-42.349
-42.287
-42.333
-42.491
-42.763
-43.15
-43.653
-44.269
-44.995
-45.826
-46.754
-47.773
-48.873
-50.045
-51.279
-52.563
-53.885
-55.233
-56.594
-57.954
-59.299
-60.616
-61.89
-63.106
-64.251
-65.312
-66.275
-67.128
-67.858
-68.455
-68.908
-69.206
-69.342
-69.308
-69.097
-68.704
-68.126
-67.362
-66.412
-65.281
-63.974
-62.502
-60.877
-59.111
-57.219
-55.221
-53.132
-50.973
-48.763
-46.517
-44.255
-41.996
-39.761
-37.572
-35.453
-33.423
-31.502
-29.71
-28.064
-26.584
-25.282
-24.165
-23.242
-22.521
-22.022
-21.771
-21.791
-22.094
-22.692
-23.585
-24.769
-26.238
-27.968
-29.915
-32.035
-34.277
-36.6
-38.976
-41.364
-43.715
-45.961
-48.013
-49.797
-51.255
-52.344
-53.04
-53.333
-53.232
-52.788
-52.084
-51.23
-50.355
-49.579
-49.033
-48.859
-49.16
-50.109
-51.963
-54.865
-58.868
-63.841
-69.36
-75.052
-80.697
-85.928
-90.24
-93.267
-94.72
-94.952
-95.104
-96.056
-98.225
-101.895
-107.295
-114.659
-124.069
-133.455
-138.361
-134.868
-120.956
-98.828
-73.081
-45.495
-12.3
36.934
111.694
215.913
343.962
477.754
600.544
698.807
764.806
804.657
823.045
822.387
805.774
767.969
706.189
623.496
522.725
410.408
293.877
177.157
64.259
-39.935
-131.756
-208.457
-268.083
-310.94
-338.584
-351.92
-352.161
-341.643
-322.88
-298.722
-271.984
-244.103
-215.912
-188.733
-164.088
-143.084
-126.11
-112.743
-102.178
-94.018
-88.09
-83.757
-79.759
-74.873
-68.497
-60.619
-51.695
-42.19
-32.362
-22.705
-14.113
-7.37
-2.909
-0.81
-0.767
-2.362
-5.259
-9.04
-13.164
-17.182
-20.732
-23.567
-25.597
-26.787
-27.117
-26.606
-25.298
-23.228
-20.43
-16.968
-12.915
-8.367
-3.43
1.797
7.222
12.74
18.219
23.557
28.668
33.5
38.037
42.261
46.149
49.698
52.919
55.837
58.492
60.92
63.143
65.197
67.118
68.951
70.754
72.566
74.414
76.316
78.282
80.322
82.444
84.649
86.925
89.263
91.653
94.088
96.566
99.078
101.61
104.147
106.671
109.169
111.627
114.031
116.367
118.621
120.78
122.833
124.769
126.578
128.246
129.761
131.109
132.277
133.255
134.03
134.592
134.931
135.04
134.913
134.546
133.934
133.075
131.968
130.611
129.008
127.159
125.067
122.738
120.178
117.393
114.392
111.184
107.781
104.194
100.433
96.512
92.444
88.244
83.926
79.503
74.992
70.407
65.764
61.078
56.363
51.634
46.905
42.19
37.501
32.852
28.253
23.715
19.25
14.866
10.574
6.381
2.296
-1.673
-5.521
-9.241
-12.826
-16.273
-19.577
-22.734
-25.742
-28.599
-31.302
-33.851
-36.246
-38.488
-40.577
-42.517
-44.309
-45.956
-47.462
-48.831
-50.066
-51.172
-52.152
-53.013
-53.757
-54.39
-54.916
-55.341
-55.669
-55.905
-56.053
-56.121
-56.111
-56.03
-55.883
-55.676
-55.414
-55.103
-54.747
-54.354
-53.928
-53.475
-53
-52.507
-52
-51.484
-50.963
-50.439
-49.916
-49.396
-48.882
-48.375
-47.879
-47.395
-46.924
-46.469
-46.031
-45.613
-45.215
-44.839
-44.488
-44.163
-43.866
-43.599
-43.362
-43.159
-42.99
-42.857
-42.759
-42.699
-42.675
-42.689
-42.741
-42.83
-42.957
-43.122
-43.325
-43.567
-43.847
-44.166
-44.524
-44.921
-45.357
-45.832
-46.346
-46.897
-47.486
-48.111
-48.771
-49.464
-50.188
-50.939
-51.714
-52.508
-53.318
-54.138
-54.962
-55.784
-56.6
-57.403
-58.187
-58.946
-59.676
-60.369
-61.021
-61.624
-62.173
-62.661
-63.082
-63.43
-63.698
-63.881
-63.973
-63.97
-63.865
-63.655
-63.335
-62.902
-62.353
-61.684
-60.895
-59.984
-58.951
-57.8
-56.531
-55.151
-53.663
-52.075
-50.393
-48.626
-46.784
-44.875
-42.909
-40.898
-38.852
-36.784
-34.706
-32.632
-30.579
-28.562
-26.601
-24.713
-22.917
-21.232
-19.676
-18.268
-17.023
-15.954
-15.074
-14.395
-13.93
-13.693
-13.696
-13.949
-14.459
-15.231
-16.268
-17.573
-19.142
-20.96
-23.019
-25.309
-27.826
-30.58
-33.575
-36.806
-40.266
-43.937
-47.799
-51.829
-55.986
-60.211
-64.444
-68.624
-72.698
-76.634
-80.386
-83.899
-87.105
-89.916
-92.254
-94.071
-95.325
-95.998
-96.096
-95.645
-94.705
-93.38
-91.784
-90.055
-88.342
-86.777
-85.487
-84.595
-84.278
-84.812
-86.392
-89.032
-92.523
-96.448
-100.402
-104.061
-106.966
-108.461
-108.032
-105.549
-101.628
-97.418
-93.84
-91.787
-92.159
-95.522
-102.404
-111.569
-119.059
-122.204
-119.361
-110.299
-98.106
-79.82
-47.421
5.842
87.498
195.201
316.52
440.196
554.387
652.079
733.116
795.718
837.728
856.821
849.404
814.039
751.507
664.415
557.23
435.256
304.433
170.535
39.296
-82.863
-190.49
-279.304
-346.989
-394.59
-422.546
-430.351
-417.765
-383.305
-331.318
-272.2
-216.122
-174.464
-150.909
-139.634
-135.049
-129.994
-121.664
-114.094
-108.984
-107.119
-107.621
-106.516
-102.106
-94.563
-84.255
-72.576
-60.67
-49.143
-39.135
-31.618
-26.887
-25.031
-25.822
-28.762
-33.455
-39.413
-45.924
-52.473
-58.72
-64.374
-69.323
-73.456
-76.633
-78.833
-80.093
-80.424
-79.86
-78.428
-76.146
-73.108
-69.426
-65.201
-60.561
-55.603
-50.427
-45.168
-39.934
-34.811
-29.864
-25.118
-20.585
-16.286
-12.218
-8.361
-4.693
-1.169
2.249
5.586
8.88
12.166
15.482
18.88
22.396
26.051
29.861
33.832
37.965
42.261
46.713
51.302
56.012
60.825
65.724
70.697
75.728
80.796
85.879
90.953
95.993
100.981
105.893
110.708
115.402
119.954
124.343
128.552
132.56
136.346
139.888
143.167
146.16
148.849
151.216
153.242
154.913
156.214
157.133
157.663
157.795
157.524
156.846
155.759
154.264
152.363
150.06
147.363
144.278
140.817
136.992
132.817
128.308
123.483
118.36
112.961
107.305
101.418
95.321
89.04
82.6
76.026
69.345
62.584
55.767
48.923
42.076
35.252
28.476
21.773
15.165
8.674
2.321
-3.874
-9.893
-15.719
-21.336
-26.732
-31.892
-36.806
-41.464
-45.859
-49.984
-53.836
-57.41
-60.706
-63.725
-66.468
-68.939
-71.142
-73.083
-74.77
-76.211
-77.416
-78.394
-79.157
-79.717
-80.086
-80.277
-80.303
-80.178
-79.917
-79.532
-79.038
-78.449
-77.778
-77.039
-76.245
-75.407
-74.539
-73.652
-72.756
-71.862
-70.978
-70.114
-69.277
-68.473
-67.708
-66.988
-66.316
-65.694
-65.126
-64.612
-64.152
-63.746
-63.394
-63.093
-62.842
-62.639
-62.481
-62.364
-62.285
-62.24
-62.226
-62.239
-62.275
-62.329
-62.398
-62.479
-62.567
-62.659
-62.753
-62.845
-62.934
-63.018
-63.094
-63.161
-63.219
-63.267
-63.305
-63.334
-63.355
-63.368
-63.377
-63.383
-63.389
-63.399
-63.414
-63.438
-63.474
-63.525
-63.593
-63.68
-63.79
-63.923
-64.082
-64.269
-64.484
-64.728
-65
-65.302
-65.63
-65.984
-66.361
-66.757
-67.171
-67.597
-68.03
-68.467
-68.902
-69.329
-69.742
-70.135
-70.5
-70.83
-71.117
-71.353
-71.529
-71.637
-71.669
-71.617
-71.472
-71.228
-70.878
-70.415
-69.834
-69.129
-68.296
-67.33
-66.229
-64.99
-63.611
-62.093
-60.436
-58.642
-56.716
-54.661
-52.483
-50.188
-47.784
-45.279
-42.682
-40.003
-37.253
-34.444
-31.591
-28.706
-25.805
-22.904
-20.02
-17.173
-14.383
-11.668
-9.051
-6.55
-4.186
-1.979
0.053
1.893
3.527
4.941
6.119
7.049
7.716
8.107
8.214
8.027
7.543
6.756
5.667
4.285
2.62
0.679
-1.532
-4.016
-6.776
-9.804
-13.095
-16.634
-20.399
-24.36
-28.481
-32.703
-36.969
-41.227
-45.423
-49.524
-53.492
-57.282
-60.839
-64.094
-66.973
-69.422
-71.393
-72.847
-73.786
-74.23
-74.234
-73.894
-73.294
-72.529
-71.698
-70.879
-70.165
-69.666
-69.487
-69.809
-70.876
-72.812
-75.643
-79.263
-83.315
-87.358
-90.935
-93.392
-94.034
-92.486
-88.636
-82.779
-75.928
-69.421
-64.553
-62.67
-63.961
-67.041
-70.59
-73.613
-77.313
-84.063
-92.729
-97.374
-85.942
-45.841
27.971
131.201
250.527
371.209
483.848
584.728
674.083
750.899
811.505
851.073
864.932
851.459
811.324
746.205
659.71
556.24
440.489
318.301
195.301
76.183
-34.375
-132.454
-215.453
-281.504
-329.898
-361.596
-378.102
-381.022
-372.431
-354.281
-328.626
-297.91
-264.198
-228.835
-193.011
-158.033
-125.4
-96.655
-72.641
-53.434
-38.848
-28.614
-22.313
-19.09
-17.412
-15.726
-13.159
-9.377
-4.431
1.408
7.867
14.367
19.825
23.343
24.548
23.409
20.26
15.587
9.773
3.35
-2.925
-8.466
-12.912
-16.067
-17.966
-18.683
-18.224
-16.659
-14.107
-10.677
-6.5
-1.696
3.657
9.445
15.529
21.765
27.973
34.009
39.783
45.229
50.319
55.042
59.388
63.361
66.992
70.314
73.369
76.196
78.826
81.3
83.67
85.993
88.34
90.761
93.288
95.945
98.744
101.692
104.796
108.054
111.451
114.974
118.616
122.367
126.225
130.179
134.215
138.316
142.461
146.635
150.82
154.998
159.151
163.26
167.304
171.267
175.13
178.876
182.481
185.923
189.181
192.23
195.051
197.622
199.922
201.932
203.635
205.015
206.06
206.759
207.1
207.076
206.68
205.909
204.76
203.232
201.327
199.047
196.399
193.39
190.029
186.327
182.298
177.957
173.32
168.406
163.236
157.83
152.211
146.402
140.429
134.316
128.089
121.774
115.397
108.982
102.556
96.144
89.77
83.455
77.223
71.094
65.088
59.224
53.519
47.989
42.649
37.512
32.59
27.896
23.437
19.223
15.259
11.55
8.101
4.913
1.986
-0.679
-3.087
-5.239
-7.141
-8.8
-10.222
-11.416
-12.391
-13.157
-13.724
-14.104
-14.307
-14.346
-14.231
-13.975
-13.59
-13.088
-12.479
-11.776
-10.99
-10.132
-9.212
-8.242
-7.231
-6.19
-5.127
-4.051
-2.972
-1.897
-0.834
0.21
1.229
2.218
3.17
4.083
4.952
5.775
6.549
7.273
7.945
8.566
9.134
9.651
10.116
10.531
10.897
11.214
11.485
11.71
11.893
12.035
12.138
12.204
12.236
12.236
12.205
12.147
12.063
11.957
11.83
11.684
11.522
11.346
11.158
10.959
10.751
10.535
10.311
10.081
9.844
9.6
9.349
9.09
8.822
8.545
8.257
7.957
7.645
7.317
6.974
6.613
6.232
5.83
5.406
4.957
4.481
3.978
3.446
2.885
2.293
1.669
1.014
0.328
-0.39
-1.139
-1.918
-2.725
-3.56
-4.418
-5.299
-6.197
-7.11
-8.032
-8.958
-9.882
-10.799
-11.701
-12.582
-13.435
-14.252
-15.025
-15.748
-16.41
-17.004
-17.521
-17.952
-18.289
-18.523
-18.646
-18.65
-18.528
-18.274
-17.881
-17.344
-16.658
-15.82
-14.826
-13.675
-12.366
-10.898
-9.274
-7.497
-5.57
-3.501
-1.295
1.035
3.478
6.02
8.645
11.337
14.077
16.847
19.627
22.397
25.142
27.842
30.478
33.03
35.478
37.796
39.964
41.962
43.768
45.365
46.735
47.863
48.743
49.368
49.73
49.815
49.599
49.062
48.192
46.981
45.428
43.545
41.348
38.869
36.162
33.279
30.273
27.194
24.074
20.952
17.878
14.914
12.139
9.632
7.449
5.638
4.237
3.238
2.61
2.28
2.124
2.041
1.923
1.647
1.096
0.135
-1.37
-3.528
-6.506
-10.54
-15.767
-22.159
-29.462
-37.17
-44.782
-51.836
-57.718
-61.705
-63.283
-62.39
-59.707
-56.387
-53.385
-51.616
-52.043
-55.383
-62.116
-70.729
-77.077
-78.272
-72.357
-59.015
-41.007
-14.911
26.967
90.623
182.612
299.423
427.984
556.853
673.813
771.06
848.058
903.241
935.151
943.177
925.544
881.996
814.621
727.364
625.171
513.348
397.46
281.883
170.487
67.859
-22.407
-98.084
-157.467
-200.505
-228.668
-243.237
-245.847
-239.307
-226
-207.898
-187.371
-165.726
-143.208
-120.206
-97.06
-73.753
-50.961
-29.822
-10.59
6.329
20.081
30.176
36.346
38.552
37.776
35.687
33.144
30.659
28.782
27.702
27.595
28.558
29.994
30.84
30.545
28.973
26.197
22.582
18.391
13.769
9.085
4.881
1.529
-0.783
-2.024
-2.337
-1.831
-0.536
1.473
4.09
7.202
10.672
14.375
18.225
22.122
25.978
29.723
33.286
36.609
39.668
42.458
44.99
47.285
49.36
51.224
52.897
54.406
55.79
57.094
58.368
59.661
61.016
62.466
64.042
65.767
67.651
69.701
71.916
74.284
76.802
79.466
82.27
85.209
88.273
91.448
94.718
98.062
101.462
104.898
108.347
111.789
115.203
118.569
121.865
125.073
128.171
131.135
133.941
136.564
138.979
141.161
143.087
144.732
146.076
147.097
147.778
148.104
148.059
147.632
146.812
145.591
143.963
141.925
139.476
136.617
133.352
129.686
125.629
121.191
116.387
111.232
105.743
99.94
93.845
87.479
80.867
74.035
67.009
59.817
52.488
45.051
37.535
29.968
22.382
14.803
7.261
-0.219
-7.609
-14.887
-22.028
-29.011
-35.815
-42.423
-48.818
-54.983
-60.908
-66.579
-71.989
-77.129
-81.996
-86.584
-90.895
-94.927
-98.684
-102.169
-105.389
-108.352
-111.066
-113.542
-115.791
-117.827
-119.664
-121.316
-122.798
-124.127
-125.319
-126.389
-127.355
-128.23
-129.032
-129.776
-130.475
-131.144
-131.796
-132.444
-133.099
-133.771
-134.472
-135.208
-135.989
-136.819
-137.704
-138.649
-139.656
-140.726
-141.862
-143.062
-144.325
-145.648
-147.029
-148.463
-149.946
-151.47
-153.031
-154.621
-156.233
-157.86
-159.494
-161.127
-162.753
-164.364
-165.954
-167.514
-169.04
-170.525
-171.963
-173.349
-174.68
-175.951
-177.159
-178.302
-179.379
-180.389
-181.331
-182.208
-183.02
-183.77
-184.46
-185.096
-185.68
-186.22
-186.719
-187.186
-187.626
-188.047
-188.457
-188.863
-189.275
-189.698
-190.142
-190.613
-191.121
-191.671
-192.271
-192.927
-193.646
-194.434
-195.296
-196.237
-197.261
-198.371
-199.57
-200.859
-202.24
-203.712
-205.274
-206.925
-208.662
-210.48
-212.376
-214.343
-216.376
-218.466
-220.605
-222.786
-224.998
-227.231
-229.475
-231.718
-233.951
-236.161
-238.337
-240.468
-242.542
-244.547
-246.472
-248.305
-250.037
-251.656
-253.153
-254.518
-255.741
-256.817
-257.736
-258.493
-259.084
-259.502
-259.747
-259.815
-259.708
-259.427
-258.973
-258.35
-257.566
-256.626
-255.539
-254.316
-252.965
-251.499
-249.931
-248.276
-246.548
-244.763
-242.936
-241.088
-239.245
-237.429
-235.666
-233.978
-232.383
-230.906
-229.577
-228.411
-227.407
-226.568
-225.896
-225.407
-225.148
-225.137
-225.359
-225.841
-226.656
-227.862
-229.515
-231.617
-234.085
-236.886
-240.104
-243.678
-247.301
-250.883
-254.52
-258.158
-262.087
-265.753
-267.158
-266.503
-265.593
-267.18
-276.746
-294.362
-314.311
-331.037
-336.648
-329.945
-318.38
-307.763
-304.192
-309.209
-317.229
-324.686
-329.37
-330.475
-330.375
-330.346
-330.422
-330.837
-331.405
-332.147
-333.562
-336.022
-339.62
-344.355
-350.054
-356.281
-362.585
-368.604
-373.811
-377.561
-379.492
-379.564
-378.281
-376.763
-376.065
-376.923
-379.964
-385.716
-394.257
-404.921
-415.845
-424.204
-426.953
-421.026
-403.874
-373.241
-327.066
-265.771
-191.42
-105.601
-12.121
86.697
188.901
285.813
369.663
432.43
465.796
471.157
451.142
408.232
347.198
268.182
172.406
63.777
-53.839
-174.11
-291.249
-400.947
-499.072
-582.916
-650.629
-700.971
-734.569
-753.035
-758.024
-751.678
-735.948
-712.583
-683.921
-652.183
-618.49
-583.533
-548.137
-513.178
-480.249
-451.094
-426.35
-406.107
-390.723
-380.394
-374.973
-373.874
-375.416
-377.531
-379.066
-379.483
-378.371
-375.576
-371.064
-365.038
-358.489
-352.72
-348.424
-345.817
-344.849
-345.247
-346.807
-349.311
-352.205
-354.78
-356.594
-357.444
-357.333
-356.409
-354.741
-352.348
-349.313
-345.779
-341.878
-337.719
-333.359
-328.812
-324.122
-319.38
-314.711
-310.23
-306.003
-302.059
-298.397
-295.014
-291.91
-289.074
-286.47
-284.052
-281.774
-279.597
-277.498
-275.449
-273.41
-271.332
-269.151
-266.817
-264.296
-261.564
-258.606
-255.412
-251.971
-248.284
-244.363
-240.224
-235.878
-231.335
-226.603
-221.693
-216.624
-211.418
-206.099
-200.69
-195.213
-189.695
-184.16
-178.636
-173.148
-167.722
-162.382
-157.153
-152.063
-147.139
-142.41
-137.903
-133.644
-129.66
-125.977
-122.618
-119.603
-116.954
-114.685
-112.813
-111.349
-110.303
-109.684
-109.495
-109.739
-110.417
-111.524
-113.056
-115.005
-117.359
-120.106
-123.232
-126.717
-130.544
-134.691
-139.135
-143.851
-148.814
-153.996
-159.369
-164.905
-170.573
-176.344
-182.187
-188.072
-193.969
-199.849
-205.681
-211.439
-217.094
-222.622
-227.997
-233.197
-238.2
-242.986
-247.538
-251.84
-255.876
-259.634
-263.104
-266.276
-269.145
-271.705
-273.952
-275.888
-277.511
-278.824
-279.833
-280.541
-280.957
-281.089
-280.947
-280.54
-279.881
-278.983
-277.858
-276.521
-274.986
-273.267
-271.378
-269.336
-267.153
-264.843
-262.421
-259.9
-257.292
-254.609
-251.864
-249.065
-246.225
-243.352
-240.454
-237.539
-234.614
-231.683
-228.751
-225.823
-222.9
-219.985
-217.078
-214.18
-211.289
-208.406
-205.527
-202.652
-199.776
-196.897
-194.011
-191.114
-188.203
-185.274
-182.322
-179.345
-176.338
-173.299
-170.225
-167.113
-163.96
-160.764
-157.524
-154.237
-150.904
-147.521
-144.09
-140.61
-137.08
-133.503
-129.878
-126.209
-122.495
-118.741
-114.948
-111.12
-107.26
-103.37
-99.455
-95.517
-91.561
-87.589
-83.605
-79.613
-75.614
-71.613
-67.612
-63.612
-59.614
-55.621
-51.633
-47.649
-43.671
-39.697
-35.727
-31.761
-27.798
-23.835
-19.873
-15.908
-11.94
-7.965
-3.98
0.017
4.031
8.064
12.121
16.206
20.323
24.476
28.67
32.909
37.198
41.541
45.943
50.408
54.941
59.547
64.229
68.993
73.84
78.774
83.799
88.916
94.128
99.438
104.846
110.356
115.969
121.686
127.509
133.44
139.479
145.626
151.881
158.243
164.713
171.289
177.968
184.749
191.629
198.605
205.674
212.831
220.071
227.389
234.779
242.233
249.742
257.296
264.882
272.489
280.105
287.716
295.308
302.867
310.381
317.839
325.231
332.546
339.772
346.896
353.904
360.784
367.523
374.109
380.534
386.786
392.861
398.76
404.483
410.033
415.404
420.583
425.558
430.325
434.885
439.244
443.42
447.434
451.323
455.144
458.956
462.817
466.783
470.89
475.181
479.709
484.535
489.741
495.409
501.593
508.343
515.695
523.642
532.162
541.194
550.609
560.291
570.124
579.97
589.714
599.225
608.325
616.86
624.622
631.332
636.831
641.049
644.066
646.262
648.076
649.923
652.403
656.164
661.63
669.047
678.129
687.846
697.178
705.232
711.129
714.354
714.756
712.591
709.246
707.403
710.068
720.476
741.765
776.282
825.952
891.997
973.973
1069.753
1175.99
1287.781
1399.471
1505.61
1600.548
1679.127
1737.285
1771.669
1780.412
1764.129
1724.817
1665.483
1588.566
1494.493
1385.179
1265.018
1142.747
1030.464
933.606
848.105
759.628
648.494
507.021
