Name,John Breau
Date of Birth,"Dec 20, 1971"
Recorded Date,2023-05-29 11:19:10 -0500
Classification,Poor Recording
Symptoms,
Software Version,1.90
Device,"Watch6,3"
Sample Rate,512 hertz


Lead,Lead I
Unit,µV

122.725
108.291
94.3
80.866
68.075
56.074
45.051
35.1
26.252
18.46
11.581
5.519
0.227
-4.346
-8.237
-11.496
-14.195
-16.376
-18.054
-19.275
-20.1
-20.639
-21.055
-21.44
-21.826
-22.197
-22.47
-22.597
-22.57
-22.368
-21.973
-21.375
-20.561
-19.552
-18.401
-17.132
-15.752
-14.246
-12.562
-10.686
-8.63
-6.424
-4.12
-1.76
0.635
3.031
5.394
7.701
9.934
12.096
14.209
16.282
18.315
20.304
22.236
24.104
25.91
27.655
29.344
30.98
32.565
34.105
35.605
37.069
38.492
39.867
41.178
42.41
43.553
44.589
45.502
46.276
46.897
47.354
47.64
47.745
47.657
47.362
46.849
46.109
45.135
43.917
42.44
40.694
38.672
36.383
33.844
31.064
28.042
24.77
21.227
17.409
13.325
8.972
4.347
-0.547
-5.697
-11.061
-16.552
-22.091
-27.618
-33.096
-38.529
-43.897
-49.137
-54.154
-58.821
-63.057
-66.848
-70.18
-72.993
-75.192
-76.747
-77.835
-78.894
-80.352
-82.447
-85.153
-88.298
-92.013
-96.519
-101.706
-107.016
-111.534
-114.495
-115.885
-116.233
-115.612
-113.819
-110.966
-107.741
-105.817
-107.076
-112.42
-121.851
-135.368
-153.07
-174.651
-198.766
-222.483
-242.053
-253.641
-253.805
-239.971
-209.455
-160.998
-96.246
-16.227
77.802
184.39
304.491
432.598
556.681
664.077
740.042
779.716
788.946
774.019
743.183
698.297
634.505
551.102
449.185
332.944
210.864
88.513
-30.213
-140.328
-238.386
-321.421
-386.452
-432.997
-462.296
-475.286
-473.746
-460.549
-438.163
-409.807
-379.175
-348.387
-318.793
-291.606
-267.114
-245.435
-227.092
-211.479
-197.292
-183.768
-170.058
-155.735
-141.144
-126.251
-110.65
-94.641
-78.9
-64.175
-51.562
-41.594
-34.173
-29.356
-27.217
-27.57
-30.149
-34.393
-39.407
-44.584
-49.567
-54.054
-57.883
-60.869
-62.766
-63.474
-63.021
-61.431
-58.754
-55.023
-50.238
-44.473
-37.859
-30.565
-22.792
-14.728
-6.54
1.637
9.703
17.569
25.151
32.398
39.286
45.807
51.98
57.815
63.316
68.506
73.418
78.103
82.625
87.046
91.432
95.827
100.262
104.758
109.331
113.981
118.705
123.487
128.302
133.13
137.956
142.764
147.535
152.247
156.873
161.386
165.756
169.955
173.957
177.738
181.275
184.548
187.538
190.228
192.607
194.659
196.37
197.725
198.709
199.31
199.516
199.319
198.71
197.684
196.24
194.378
192.103
189.422
186.343
182.877
179.038
174.841
170.304
165.448
160.294
154.865
149.187
143.287
137.193
130.933
124.54
118.042
111.47
104.854
98.226
91.616
85.052
78.564
72.18
65.926
59.83
53.914
48.202
42.715
37.473
32.491
27.785
23.367
19.247
15.43
11.923
8.726
5.839
3.259
0.98
-1.006
-2.71
-4.143
-5.319
-6.256
-6.971
-7.482
-7.812
-7.981
-8.013
-7.93
-7.757
-7.519
-7.241
-6.947
-6.662
-6.411
-6.219
-6.109
-6.105
-6.229
-6.503
-6.947
-7.58
-8.421
-9.484
-10.785
-12.336
-14.147
-16.227
-18.582
-21.215
-24.129
-27.323
-30.795
-34.54
-38.551
-42.821
-47.338
-52.09
-57.064
-62.244
-67.611
-73.148
-78.834
-84.648
-90.567
-96.568
-102.625
-108.713
-114.806
-120.876
-126.896
-132.838
-138.672
-144.371
-149.905
-155.247
-160.37
-165.246
-169.848
-174.153
-178.136
-181.775
-185.048
-187.936
-190.421
-192.485
-194.115
-195.298
-196.022
-196.278
-196.059
-195.359
-194.175
-192.505
-190.349
-187.71
-184.591
-180.999
-176.943
-172.431
-167.478
-162.097
-156.305
-150.118
-143.558
-136.646
-129.404
-121.857
-114.027
-105.943
-97.63
-89.118
-80.434
-71.606
-62.664
-53.638
-44.556
-35.449
-26.344
-17.271
-8.257
0.669
9.48
18.149
26.649
34.955
43.042
50.886
58.464
65.752
72.731
79.382
85.686
91.627
97.189
102.358
107.122
111.467
115.383
118.856
121.874
124.429
126.513
128.119
129.242
129.878
130.029
129.699
128.895
127.623
125.888
123.695
121.055
117.977
114.478
110.571
106.271
101.596
96.572
91.228
85.593
79.688
73.525
67.106
60.445
53.561
46.484
39.24
31.861
24.387
16.869
9.385
2.008
-5.201
-12.192
-18.922
-25.335
-31.36
-36.91
-41.906
-46.283
-49.999
-53.034
-55.38
-57.058
-58.112
-58.608
-58.669
-58.433
-58.042
-57.647
-57.379
-57.339
-57.708
-58.753
-60.635
-63.393
-66.854
-70.588
-74.219
-77.474
-79.909
-80.936
-80.157
-77.473
-73.475
-69.349
-66.015
-64.232
-64.912
-68.894
-76.662
-86.813
-95.548
-98.879
-94.14
-83.081
-69.817
-54.78
-34.238
3.556
71.765
174.818
309.239
457.341
595.51
706.499
777.906
811.421
817.443
802.794
774.044
730.714
666.907
582.547
479.65
362.835
240.49
117.814
-1.835
-113.776
-214.137
-299.799
-367.857
-417.374
-449.162
-463.323
-460.073
-441.731
-411.556
-373.333
-331.23
-288.18
-246.068
-207.593
-175.774
-151.974
-136.355
-128.046
-125.263
-126.706
-131.417
-137.608
-142.868
-145.644
-145.282
-141.874
-136.263
-129.162
-121.07
-112.885
-105.862
-100.78
-97.851
-96.932
-97.457
-98.9
-100.983
-103.294
-105.295
-106.666
-107.249
-106.996
-106.048
-104.48
-102.23
-99.336
-95.89
-91.993
-87.832
-83.552
-79.226
-74.967
-70.868
-66.986
-63.375
-60.045
-56.952
-54.075
-51.395
-48.904
-46.638
-44.606
-42.794
-41.173
-39.678
-38.253
-36.857
-35.44
-33.951
-32.354
-30.617
-28.733
-26.721
-24.593
-22.353
-20.008
-17.55
-14.979
-12.304
-9.536
-6.688
-3.777
-0.821
2.158
5.131
8.069
10.946
13.738
16.427
18.992
21.406
23.646
25.689
27.509
29.084
30.386
31.391
32.072
32.41
32.383
31.975
31.169
29.953
28.314
26.246
23.741
20.797
17.413
13.59
9.333
4.649
-0.454
-5.961
-11.858
-18.129
-24.753
-31.709
-38.972
-46.518
-54.32
-62.351
-70.581
-78.982
-87.524
-96.176
-104.909
-113.693
-122.496
-131.29
-140.044
-148.731
-157.322
-165.793
-174.119
-182.276
-190.244
-198.002
-205.533
-212.822
-219.853
-226.615
-233.098
-239.294
-245.197
-250.805
-256.115
-261.128
-265.847
-270.275
-274.418
-278.283
-281.877
-285.211
-288.295
-291.14
-293.758
-296.162
-298.366
-300.382
-302.225
-303.908
-305.446
-306.851
-308.137
-309.318
-310.407
-311.414
-312.354
-313.237
-314.074
-314.876
-315.652
-316.41
-317.159
-317.904
-318.652
-319.407
-320.173
-320.952
-321.747
-322.558
-323.386
-324.23
-325.089
-325.96
-326.842
-327.731
-328.624
-329.517
-330.406
-331.286
-332.154
-333.006
-333.836
-334.642
-335.42
-336.165
-336.873
-337.54
-338.162
-338.737
-339.259
-339.726
-340.135
-340.481
-340.762
-340.976
-341.121
-341.193
-341.192
-341.116
-340.963
-340.732
-340.423
-340.036
-339.569
-339.022
-338.396
-337.689
-336.902
-336.034
-335.085
-334.054
-332.941
-331.744
-330.462
-329.094
-327.639
-326.094
-324.458
-322.728
-320.903
-318.98
-316.956
-314.829
-312.597
-310.258
-307.81
-305.252
-302.582
-299.799
-296.902
-293.892
-290.768
-287.53
-284.179
-280.715
-277.14
-273.459
-269.673
-265.787
-261.806
-257.736
-253.583
-249.357
-245.065
-240.717
-236.322
-231.892
-227.439
-222.977
-218.519
-214.082
-209.682
-205.341
-201.078
-196.915
-192.871
-188.969
-185.227
-181.666
-178.303
-175.151
-172.223
-169.532
-167.094
-164.923
-163.033
-161.432
-160.128
-159.128
-158.435
-158.055
-157.981
-158.199
-158.699
-159.475
-160.529
-161.875
-163.516
-165.44
-167.634
-170.082
-172.759
-175.636
-178.665
-181.77
-184.881
-187.932
-190.874
-193.672
-196.273
-198.603
-200.581
-202.114
-203.132
-203.601
-203.486
-202.756
-201.418
-199.495
-197.053
-194.232
-191.171
-187.998
-184.867
-181.909
-179.253
-177.11
-175.74
-175.328
-175.931
-177.4
-179.358
-181.414
-183.207
-184.257
-183.973
-181.86
-177.728
-172.035
-165.886
-160.512
-156.957
-156.035
-158.364
-164.23
-173.299
-183.927
-193.156
-197.409
-193.047
-177.074
-146.966
-100.538
-36.625
44.196
139.458
244.891
355.153
465.11
569.252
661.46
736.137
788.382
814.563
813.385
784.984
729.998
650.568
550.41
434.093
307.531
177.122
48.13
-74.472
-185.694
-281.538
-359.061
-416.592
-454.415
-474.097
-477.168
-465.579
-442.291
-410.66
-374.081
-335.497
-296.827
-259.263
-224.371
-193.979
-168.786
-148.577
-132.712
-120.25
-110.624
-103.57
-98.058
-92.314
-85.289
-76.654
-66.549
-55.68
-44.55
-33.379
-22.818
-13.91
-7.31
-3.254
-1.592
-1.731
-3.094
-5.251
-7.703
-9.898
-11.436
-12.062
-11.613
-10.055
-7.39
-3.606
1.262
7.132
13.947
21.639
30.086
39.135
48.592
58.234
67.916
77.554
87.07
96.413
105.528
114.349
122.856
131.06
138.955
146.539
153.806
160.748
167.396
173.813
180.066
186.231
192.358
198.471
204.59
210.727
216.886
223.067
229.254
235.418
241.543
247.616
253.628
259.573
265.433
271.183
276.796
282.246
287.508
292.561
297.382
301.951
306.25
310.266
313.988
317.41
320.522
323.313
325.772
327.889
329.654
331.061
332.102
332.773
333.07
332.995
332.548
331.737
330.567
329.047
327.186
324.998
322.494
319.69
316.602
313.245
309.64
305.806
301.763
297.534
293.142
288.609
283.96
279.218
274.407
269.55
264.67
259.79
254.933
250.121
245.376
240.718
236.169
231.747
227.471
223.358
219.425
215.686
212.154
208.84
205.757
202.914
200.318
197.979
195.902
194.094
192.56
191.305
190.332
189.644
189.244
189.133
189.313
189.785
190.549
191.606
192.955
194.596
196.528
198.75
201.26
204.057
207.138
210.501
214.143
218.061
222.252
226.712
231.438
236.425
241.669
247.164
252.906
258.887
265.102
271.541
278.196
285.058
292.116
299.359
306.775
314.351
322.073
329.926
337.893
345.959
354.106
362.316
370.57
378.849
387.135
395.407
403.647
411.835
419.951
427.976
435.89
443.674
451.311
458.781
466.067
473.151
480.019
486.655
493.045
499.177
505.04
510.624
515.921
520.924
525.628
530.031
534.13
537.927
541.423
544.623
547.534
550.163
552.52
554.616
556.462
558.073
559.461
560.642
561.629
562.439
563.087
563.59
563.965
564.228
564.396
564.485
564.512
564.491
564.438
564.366
564.286
564.208
564.143
564.1
564.084
564.101
564.153
564.241
564.364
564.521
564.705
564.907
565.117
565.323
565.51
565.663
565.764
565.793
565.731
565.556
565.247
564.782
564.137
563.289
562.214
560.885
559.276
557.356
555.095
552.467
549.441
545.991
542.097
537.739
532.904
527.588
521.788
515.508
508.752
501.522
493.823
485.671
477.09
468.11
458.772
449.112
439.175
429.022
418.706
408.274
397.762
387.174
376.518
365.813
355.084
344.371
333.718
323.154
312.709
302.426
292.346
282.543
273.08
263.989
255.326
247.139
239.542
232.776
226.957
222.067
218.004
214.476
211.242
208.283
205.421
202.36
199.272
196.531
194.886
195.819
200.447
209.423
223.595
243.376
268.237
297.335
328.948
360.142
388.533
411.951
427.754
434.344
431.458
419.201
398.779
373.011
344.399
317.172
298.172
291.55
299.28
320.894
352.313
394.127
451.901
532.304
641.425
776.783
926.76
1074.597
1203.675
1302.99
1368.626
1404.739
1416.139
1406.537
1378.75
1330.752
1263.501
1180.989
1087.093
989.074
892.859
801.977
720.69
652.065
597.521
558.351
534.809
525.431
528.773
543.304
566.654
596.77
632.238
671.302
712.191
754.079
796.324
838.173
879.12
918.043
953.024
982.655
1006.299
1023.231
1032.767
1034.515
1028.299
1014.774
995.695
972.8
947.1
919.305
889.951
859.461
828.192
796.104
762.459
726.299
687.18
645.112
600.392
553.438
504.629
454.362
403.273
352.19
301.667
251.956
203.1
154.952
107.436
60.599
14.45
-31.055
-75.899
-120.058
-163.465
-205.894
-247.212
-287.409
-326.356
-363.905
-399.794
-433.463
-464.348
-492.035
-515.957
-535.527
-550.647
-561.462
-568.469
-572.83
-575.543
-577.313
-579.165
-581.953
-585.54
-589.112
-591.178
-589.35
-581.306
-564.837
-537.517
-497.237
-444.445
-382.38
-313.024
-238.147
-158.506
-72.022
15.524
92.124
147.367
169.25
155.916
117.286
62.23
1.433
-58.483
-119.014
-179.792
-239.643
-296.62
-345.807
-384.582
-413.088
-432.857
-446.835
-457.682
-467.381
-477.514
-489.4
-503.855
-520.966
-540.143
-560.347
-580.427
-599.294
-616.32
-631.177
-643.809
-654.578
-663.963
-672.466
-680.674
-689.14
-698.215
-708.158
-719.103
-730.998
-743.8
-757.448
-771.814
-786.779
-802.206
-817.906
-833.682
-849.32
-864.594
-879.345
-893.454
-906.815
-919.354
-930.993
-941.675
-951.393
-960.15
-967.942
-974.776
-980.65
-985.578
-989.618
-992.844
-995.337
-997.195
-998.485
-999.26
-999.571
-999.458
-998.952
-998.078
-996.845
-995.252
-993.315
-991.051
-988.481
-985.627
-982.502
-979.113
-975.468
-971.575
-967.439
-963.071
-958.477
-953.667
-948.655
-943.455
-938.083
-932.559
-926.898
-921.112
-915.214
-909.212
-903.116
-896.937
-890.683
-884.362
-877.981
-871.552
-865.084
-858.589
-852.077
-845.56
-839.049
-832.555
-826.09
-819.664
-813.289
-806.975
-800.731
-794.569
-788.496
-782.523
-776.659
-770.911
-765.289
-759.798
-754.444
-749.233
-744.166
-739.247
-734.477
-729.856
-725.382
-721.055
-716.87
-712.823
-708.909
-705.123
-701.457
-697.901
-694.445
-691.075
-687.78
-684.543
-681.35
-678.182
-675.022
-671.85
-668.647
-665.395
-662.074
-658.664
-655.147
-651.503
-647.714
-643.762
-639.632
-635.306
-630.771
-626.014
-621.023
-615.79
-610.305
-604.564
-598.562
-592.297
-585.769
-578.981
-571.937
-564.643
-557.108
-549.341
-541.358
-533.173
-524.806
-516.276
-507.605
-498.822
-489.958
-481.044
-472.112
-463.196
-454.333
-445.556
-436.904
-428.409
-420.099
-412.005
-404.16
-396.594
-389.343
-382.435
-375.898
-369.757
-364.039
-358.764
-353.952
-349.612
-345.745
-342.356
-339.453
-337.049
-335.162
-333.803
-332.967
-332.647
-332.826
-333.478
-334.57
-336.051
-337.848
-339.9
-342.154
-344.564
-347.095
-349.697
-352.302
-354.846
-357.259
-359.48
-361.462
-363.175
-364.608
-365.788
-366.772
-367.622
-368.418
-369.233
-370.144
-371.245
-372.632
-374.408
-376.661
-379.503
-383.108
-387.551
-392.753
-398.43
-404.044
-409.008
-412.865
-415.137
-415.212
-412.807
-408.133
-401.916
-395.545
-390.434
-387.396
-387.097
-390.32
-397.076
-406.291
-415.903
-422.567
-422.745
-413.941
-393.821
-359.788
-310.405
-245.796
-167.684
-80.004
12.372
105.135
193.363
271.013
332.572
373.306
389.722
380.792
346.83
288.426
207.74
108.825
-3.516
-123.325
-244.289
-361.417
-470.139
-566.143
-646.568
-709.629
-754.363
-781.842
-794.265
-793.569
-782.205
-762.48
-735.909
-704.492
-670.304
-634.21
-596.777
-558.754
-520.616
-483.501
-448.948
-417.479
-389.228
-364.587
-343.568
-326.009
-311.501
-298.76
-286.507
-274.241
-261.744
-248.906
-235.846
-222.668
-209.795
-198.208
-188.673
-181.414
-176.351
-173.185
-171.585
-171.281
-171.839
-172.529
-172.671
-171.842
-169.831
-166.618
-162.235
-156.647
-149.833
-141.872
-132.883
-122.993
-112.338
-100.975
-88.933
-76.304
-63.213
-49.836
-36.397
-23.042
-9.849
3.11
15.787
28.143
40.13
51.753
63.054
74.068
84.824
95.338
105.603
115.639
125.483
135.184
144.801
154.37
163.9
173.398
182.866
192.299
201.689
211.011
220.223
229.293
238.195
246.908
255.416
263.699
271.729
279.482
286.934
294.066
300.862
307.305
313.382
319.082
324.397
329.324
333.864
338.015
341.777
345.15
348.134
350.731
352.946
354.783
356.248
357.352
358.103
358.516
358.606
358.388
357.88
357.099
356.066
354.799
353.32
351.648
349.807
347.816
345.699
343.477
341.17
338.798
336.382
333.941
331.492
329.054
326.641
324.27
321.954
319.708
317.544
315.473
313.505
311.649
309.913
308.304
306.827
305.486
304.285
303.226
302.308
301.532
300.897
300.402
300.044
299.819
299.724
299.756
299.91
300.181
300.566
301.058
301.654
302.35
303.14
304.022
304.992
306.046
307.182
308.396
309.686
311.05
312.485
313.991
315.565
317.206
318.913
320.686
322.525
324.429
326.397
328.431
330.53
332.695
334.924
337.219
339.578
342.003
344.491
347.043
349.657
352.331
355.065
357.855
360.699
363.594
366.536
369.52
372.543
375.6
378.684
381.791
384.914
388.047
391.182
394.315
397.436
400.539
403.617
406.66
409.661
412.613
415.505
418.332
421.083
423.75
426.325
428.799
431.165
433.415
435.542
437.537
439.395
441.111
442.68
444.096
445.355
446.454
447.389
448.157
448.756
449.183
449.438
449.519
449.426
449.158
448.716
448.101
447.313
446.353
445.224
443.926
442.462
440.834
439.045
437.097
434.994
432.74
430.34
427.798
425.117
422.303
419.358
416.286
413.087
409.759
406.3
402.709
398.985
395.125
391.129
386.995
382.727
378.332
373.816
369.182
364.432
359.565
354.586
349.498
344.307
339.019
333.64
328.178
322.648
317.073
311.465
305.832
300.168
294.454
288.68
282.848
276.966
271.046
265.107
259.169
253.278
247.496
241.887
236.501
231.37
226.515
221.973
217.792
214.049
210.828
208.174
206.109
204.627
203.707
203.316
203.417
203.907
204.616
205.416
206.179
206.788
207.134
207.052
206.281
204.518
201.641
197.517
192.125
186.057
179.869
173.962
169.316
165.584
161.987
159.83
158.957
160.82
167.095
172.636
173.914
166.314
145.905
120.735
96.85
79.557
74.726
77.113
86.425
108.143
146.659
212.608
310.645
434.903
574.906
712.556
828.389
909.504
951.08
958.385
943.296
916.413
882.707
839.773
781.029
702.729
605.233
493.729
377.301
260.346
143.877
28.182
-89.822
-205.226
-306.104
-382.337
-422.366
-425.041
-401.102
-361.153
-317.31
-275.527
-233.68
-191.338
-148.788
-108.737
-76.355
-53.3
-38.991
-31.887
-28.982
-28.366
-28.506
-26.959
-22.292
-14.096
-2.419
11.718
26.944
42.339
56.756
68.731
77.458
82.562
84.006
82.352
78.245
72.258
65.095
57.503
50.042
43.114
36.996
31.81
27.638
24.55
22.567
21.675
21.857
23.1
25.344
28.508
32.489
37.124
42.257
47.736
53.373
59.023
64.575
69.923
75.008
79.805
84.28
88.421
92.246
95.768
99.019
102.05
104.896
107.612
110.262
112.912
115.643
118.515
121.564
124.82
128.295
131.992
135.915
140.052
144.377
148.869
153.507
158.267
163.13
168.073
173.061
178.06
183.032
187.941
192.752
197.435
201.955
206.281
210.381
214.229
217.799
221.064
223.996
226.565
228.743
230.503
231.82
232.672
233.034
232.888
232.219
231.015
229.267
226.97
224.12
220.718
216.766
212.273
207.246
201.7
195.648
189.109
182.105
174.66
166.799
158.552
149.949
141.022
131.804
122.331
112.637
102.761
92.737
82.605
72.401
62.163
51.928
41.732
31.612
21.6
11.73
2.033
-7.462
-16.726
-25.737
-34.47
-42.906
-51.027
-58.817
-66.264
-73.357
-80.09
-86.457
-92.456
-98.088
-103.356
-108.266
-112.825
-117.044
-120.934
-124.511
-127.79
-130.789
-133.527
-136.024
-138.302
-140.384
-142.292
-144.052
-145.686
-147.22
-148.676
-150.08
-151.455
-152.822
-154.205
-155.625
-157.102
-158.655
-160.303
-162.061
-163.946
-165.97
-168.146
-170.483
-172.99
-175.671
-178.531
-181.571
-184.792
-188.192
-191.765
-195.507
-199.41
-203.463
-207.657
-211.977
-216.41
-220.939
-225.549
-230.221
-234.937
-239.678
-244.425
-249.157
-253.858
-258.506
-263.083
-267.57
-271.948
-276.199
-280.306
-284.251
-288.018
-291.591
-294.956
-298.101
-301.016
-303.69
-306.117
-308.291
-310.207
-311.863
-313.26
-314.399
-315.283
-315.917
-316.307
-316.464
-316.399
-316.124
-315.653
-315.002
-314.188
-313.23
-312.145
-310.953
-309.672
-308.322
-306.923
-305.495
-304.059
-302.638
-301.254
-299.93
-298.693
-297.57
-296.585
-295.763
-295.125
-294.694
-294.488
-294.52
-294.802
-295.343
-296.151
-297.236
-298.607
-300.267
-302.218
-304.461
-306.991
-309.804
-312.891
-316.237
-319.818
-323.618
-327.628
-331.845
-336.281
-340.936
-345.795
-350.845
-356.069
-361.438
-366.918
-372.448
-377.941
-383.317
-388.504
-393.437
-398.078
-402.353
-406.174
-409.459
-412.103
-414.039
-415.251
-415.705
-415.376
-414.289
-412.474
-410.035
-407.193
-404.138
-401.05
-398.14
-395.55
-393.519
-392.406
-392.455
-393.787
-396.29
-399.598
-403.361
-407.293
-410.943
-413.718
-415.062
-414.619
-412.862
-410.783
-409.295
-409.564
-412.319
-417.875
-426.949
-438.155
-448.544
-456.544
-459.007
-454.89
-444.629
-422.185
-382.643
-320.864
-232.423
-124.419
-4.861
118.098
235.099
344.491
443.477
527.029
592.576
635.335
651.892
642.441
606.738
545.487
461.629
358.678
240.906
113.933
-16.744
-146.468
-270.134
-382.693
-480.227
-559.596
-618.973
-658.546
-679.467
-682.927
-670.768
-645.586
-610.398
-568.716
-523.665
-477.182
-430.74
-386.061
-345.045
-309.197
-279.061
-254.189
-233.876
-217.814
-205.684
-196.723
-189.43
-182.088
-173.834
-164.629
-154.772
-144.525
-134.079
-123.762
-114.471
-107.437
-103.288
-102.062
-103.454
-106.944
-112.124
-118.641
-125.866
-132.949
-139.253
-144.391
-148.186
-150.671
-151.816
-151.532
-149.808
-146.689
-142.25
-136.609
-129.87
-122.113
-113.474
-104.102
-94.159
-83.837
-73.257
-62.495
-51.631
-40.719
-29.829
-19.045
-8.435
1.929
11.938
21.53
30.703
39.505
48.065
56.486
64.801
73.035
81.196
89.3
97.431
105.687
114.111
122.809
131.978
141.783
152.413
163.952
176.17
188.793
201.735
214.947
228.48
242.715
257.987
274.696
293.65
315.359
339.665
366.177
393.993
421.53
447.405
470.228
488.187
500.125
505.752
505.093
498.923
488.681
475.394
460.085
444.157
428.481
413.463
399.35
385.79
372.118
358.121
343.687
328.541
312.663
296.095
278.898
261.475
244.334
227.723
211.771
196.562
182.065
168.281
155.227
142.77
130.714
118.921
107.289
95.788
84.452
73.291
62.302
51.505
40.934
30.642
20.701
11.158
2.044
-6.606
-14.75
-22.329
-29.273
-35.534
-41.086
-45.915
-50.02
-53.402
-56.067
-58.033
-59.334
-60.007
-60.086
-59.605
-58.591
-57.08
-55.109
-52.718
-49.948
-46.837
-43.418
-39.723
-35.784
-31.633
-27.3
-22.811
-18.188
-13.456
-8.642
-3.769
1.138
6.055
10.963
15.842
20.672
25.437
30.122
34.715
39.204
43.579
47.832
51.954
55.939
59.782
63.478
67.026
70.423
73.667
76.76
79.7
82.491
85.132
87.627
89.978
92.188
94.262
96.203
98.016
99.706
101.28
102.744
104.104
105.367
106.541
107.634
108.656
109.613
110.515
111.369
112.185
112.97
113.735
114.486
115.233
115.985
116.752
117.543
118.366
119.231
120.146
121.119
122.159
123.273
124.468
125.749
127.121
128.589
130.161
131.838
133.623
135.518
137.523
139.638
141.86
144.184
146.6
149.098
151.666
154.293
156.966
159.671
162.393
165.118
167.837
170.539
173.21
175.832
178.385
180.851
183.215
185.458
187.564
189.513
191.286
192.876
194.279
195.486
196.485
197.251
197.751
197.96
197.868
197.465
196.744
195.704
194.354
192.721
190.863
188.829
186.659
184.382
182.015
179.594
177.176
174.82
172.586
170.516
168.628
166.94
165.461
164.16
162.977
161.827
160.568
159.064
157.186
154.783
151.736
147.953
143.27
137.473
130.416
122.067
112.606
102.394
91.76
81.006
70.598
61.181
53.366
47.428
42.944
39.074
35.117
30.407
24.149
15.318
2.94
-11.961
-25.882
-35.287
-37.925
-35.532
-32.359
-28.37
-18.53
7.547
61.436
147.634
263.478
398.862
538.573
666.2
764.772
822.613
836.137
810.18
757.726
690.204
613.036
527.263
429.457
318.49
198.483
74.998
-45.692
-158.197
-259.099
-346.169
-417.592
-471.878
-508.824
-528.298
-530.087
-515.559
-487.044
-447.14
-399.26
-347.131
-293.593
-241.857
-195.603
-156.894
-126.562
-104.794
-90.546
-82.115
-78.064
-76.299
-74.016
-69.504
-61.968
-51.116
-37.562
-22.275
-6.014
10.044
24.28
35.742
44.034
49.082
51.381
51.552
50.047
47.518
44.812
42.465
40.849
40.236
40.613
41.972
44.375
47.772
52.091
57.296
63.291
69.979
77.299
85.119
93.3
101.711
110.168
118.535
126.718
134.621
142.2
149.436
156.303
162.802
168.954
174.772
180.283
185.532
190.552
195.4
200.146
204.858
209.609
214.452
219.418
224.515
229.734
235.031
240.345
245.624
250.82
255.909
260.893
265.767
270.529
275.18
279.716
284.134
288.443
292.637
296.699
300.649
304.524
308.405
312.424
316.66
321.136
325.847
330.741
335.743
340.775
345.716
350.406
354.708
358.495
361.672
364.189
365.951
366.833
366.677
365.269
362.466
358.202
352.44
345.192
336.516
326.496
315.293
303.143
290.239
276.743
262.787
248.451
233.855
219.153
204.513
190.134
176.176
162.746
149.946
137.853
126.499
115.887
105.956
96.576
87.661
79.162
71.048
63.327
55.988
48.998
42.331
35.961
29.863
24.023
18.422
13.035
7.861
2.917
-1.757
-6.09
-10.037
-13.578
-16.699
-19.408
-21.713
-23.619
-25.145
-26.322
-27.175
-27.725
-27.991
-27.983
-27.721
-27.229
-26.538
-25.681
-24.69
-23.587
-22.396
-21.139
-19.834
-18.496
-17.136
-15.759
-14.371
-12.982
-11.601
-10.24
-8.909
-7.616
-6.37
-5.18
-4.054
-2.998
-2.016
-1.112
-0.289
0.452
1.106
1.674
2.153
2.542
2.839
3.042
3.152
3.166
3.085
2.908
2.633
2.262
1.792
1.224
0.555
-0.215
-1.088
-2.065
-3.148
-4.337
-5.631
-7.029
-8.53
-10.13
-11.826
-13.615
-15.493
-17.455
-19.496
-21.613
-23.798
-26.046
-28.351
-30.705
-33.101
-35.53
-37.985
-40.455
-42.934
-45.413
-47.883
-50.335
-52.762
-55.153
-57.502
-59.801
-62.041
-64.215
-66.316
-68.339
-70.28
-72.135
-73.905
-75.589
-77.193
-78.721
-80.182
-81.584
-82.936
-84.247
-85.531
-86.798
-88.058
-89.321
-90.6
-91.907
-93.26
-94.679
-96.179
-97.777
-99.491
-101.337
-103.333
-105.493
-107.82
-110.323
-113.01
-115.899
-119.019
-122.393
-126.031
-129.94
-134.121
-138.562
-143.248
-148.147
-153.196
-158.341
-163.53
-168.717
-173.882
-178.995
-184.006
-188.86
-193.481
-197.808
-201.818
-205.492
-208.813
-211.811
-214.542
-217.107
-219.674
-222.376
-225.333
-228.665
-232.45
-236.802
-241.864
-247.742
-254.608
-262.657
-271.889
-282.257
-293.625
-305.533
-317.47
-328.91
-339.036
-347.078
-352.702
-355.67
-356.033
-354.709
-352.836
-351.244
-351.119
-352.584
-353.714
-354.354
-354.994
-356.139
-361.015
-366.779
-364.332
-344.628
-296.49
-217.925
-118.515
-8.041
101.804
204.386
300.956
389.18
465.239
524.476
559.528
566.884
546.506
498.594
425.072
329.756
216.968
92.344
-37.33
-166.637
-291.064
-405.773
-506.667
-590.849
-656.196
-702.211
-730.214
-741.534
-737.468
-719.995
-691.251
-653.574
-609.766
-562.268
-512.592
-462.181
-412.898
-366.701
-325.509
-290.855
-263.182
-242.255
-227.95
-219.964
-217.277
-218.261
-220.925
-223.229
-224.045
-223.063
-220.018
-214.768
-207.553
-198.923
-189.788
-181.295
-174.009
-167.924
-162.999
-159.061
-155.867
-153.201
-150.609
-147.478
-143.503
-138.63
-132.888
-126.477
-119.581
-112.326
-104.969
-97.784
-90.926
-84.523
-78.608
-73.133
-68.115
-63.582
-59.519
-55.948
-52.881
-50.293
-48.204
-46.614
-45.43
-44.557
-43.872
-43.24
-42.598
-41.891
-41.063
-40.083
-38.902
-37.472
-35.796
-33.865
-31.63
-29.062
-26.103
-22.691
-18.879
-14.722
-10.257
-5.549
-0.614
4.532
9.838
15.261
20.768
26.317
31.895
37.487
43.026
48.453
53.7
58.683
63.406
67.868
72.044
75.925
79.481
82.679
85.516
87.991
90.074
91.744
92.976
93.744
94.057
93.924
93.353
92.362
90.94
89.076
86.776
84.048
80.9
77.353
73.413
69.091
64.421
59.435
54.165
48.65
42.915
36.988
30.903
24.693
18.393
12.043
5.675
-0.676
-6.975
-13.189
-19.287
-25.235
-31.011
-36.592
-41.956
-47.085
-51.961
-56.568
-60.895
-64.931
-68.669
-72.103
-75.229
-78.045
-80.555
-82.762
-84.67
-86.289
-87.627
-88.694
-89.504
-90.069
-90.406
-90.53
-90.459
-90.21
-89.803
-89.257
-88.592
-87.826
-86.98
-86.073
-85.123
-84.15
-83.17
-82.2
-81.256
-80.353
-79.505
-78.725
-78.023
-77.409
-76.892
-76.48
-76.179
-75.993
-75.925
-75.977
-76.151
-76.445
-76.858
-77.387
-78.028
-78.774
-79.62
-80.557
-81.576
-82.667
-83.818
-85.018
-86.253
-87.51
-88.775
-90.034
-91.272
-92.475
-93.627
-94.713
-95.718
-96.627
-97.426
-98.1
-98.633
-99.013
-99.226
-99.261
-99.106
-98.75
-98.184
-97.399
-96.386
-95.141
-93.657
-91.929
-89.954
-87.73
-85.259
-82.541
-79.581
-76.382
-72.953
-69.301
-65.438
-61.375
-57.126
-52.704
-48.125
-43.408
-38.569
-33.629
-28.609
-23.532
-18.423
-13.31
-8.222
-3.187
1.764
6.603
11.301
15.828
20.16
24.274
28.149
31.763
35.093
38.115
40.81
43.161
45.151
46.769
48.004
48.845
49.296
49.364
49.055
48.374
47.313
45.859
44.002
41.749
39.107
36.088
32.712
29.007
25.017
20.812
16.459
12.02
7.547
3.073
-1.349
-5.649
-9.751
-13.559
-16.998
-20.022
-22.585
-24.651
-26.227
-27.333
-28.017
-28.403
-28.606
-28.746
-28.97
-29.383
-30.083
-31.248
-33.113
-35.883
-39.66
-44.314
-49.505
-54.884
-60.1
-64.667
-67.98
-69.47
-68.886
-66.71
-63.97
-61.722
-61.112
-63.372
-69.612
-80.641
-95.287
-109.877
-120.505
-124.116
-121.814
-117.157
-110.104
-96.494
-63.454
3.484
109.784
252.691
412.92
564.215
687.521
768.261
807.895
818.413
807.038
781.14
740.939
679.774
597.063
494.802
377.36
253.353
129.11
8.541
-104.249
-205.967
-293.972
-365.745
-419.936
-456.915
-477.586
-482.739
-473.677
-452.363
-421.345
-383.839
-342.839
-300.399
-258.372
-219.001
-184.823
-157.972
-139.35
-128.617
-124.941
-127.588
-135.648
-147.603
-160.996
-173.165
-182.477
-188.339
-190.738
-189.834
-185.824
-179.177
-171.057
-162.961
-155.771
-149.757
-144.795
-140.577
-136.924
-133.709
-130.579
-127.014
-122.714
-117.607
-111.793
-105.502
-98.881
-91.988
-84.908
-77.757
-70.635
-63.626
-56.781
-50.086
-43.531
-37.119
-30.845
-24.711
-18.705
-12.795
-6.944
-1.125
4.68
10.483
16.285
22.094
27.923
33.782
39.684
45.633
51.633
57.685
63.794
69.959
76.175
82.43
88.709
94.996
101.278
107.54
113.766
119.94
126.04
132.045
137.934
143.681
149.259
154.639
159.791
164.684
169.29
173.579
177.525
181.099
184.277
187.034
189.348
191.196
192.56
193.42
193.763
193.573
192.842
191.56
189.723
187.328
184.378
180.875
176.828
172.246
167.142
161.532
155.436
148.874
141.872
134.457
126.657
118.506
110.036
101.285
92.288
83.085
73.713
64.213
54.624
44.986
35.337
25.716
16.162
6.71
-2.602
-11.74
-20.671
-29.363
-37.788
-45.917
-53.727
-61.193
-68.297
-75.02
-81.346
-87.264
-92.762
-97.834
-102.474
-106.679
-110.45
-113.789
-116.701
-119.192
-121.272
-122.951
-124.241
-125.157
-125.714
-125.927
-125.814
-125.392
-124.68
-123.697
-122.462
-120.995
-119.314
-117.439
-115.39
-113.186
-110.845
-108.384
-105.821
-103.173
-100.453
-97.676
-94.856
-92.005
-89.133
-86.25
-83.365
-80.484
-77.614
-74.76
-71.923
-69.107
-66.311
-63.534
-60.776
-58.033
-55.301
-52.577
-49.854
-47.128
-44.393
-41.643
-38.87
-36.069
-33.231
-30.349
-27.416
-24.424
-21.365
-18.232
-15.016
-11.712
-8.315
-4.817
-1.215
2.495
6.318
10.257
14.311
18.484
22.774
27.182
31.705
36.339
41.079
45.917
50.848
55.86
60.944
66.089
71.281
76.507
81.754
87.007
92.25
97.466
102.639
107.749
112.777
117.702
122.5
127.147
131.62
135.894
139.947
143.755
147.298
150.557
153.516
156.163
158.482
160.457
162.073
163.318
164.181
164.655
164.735
164.418
163.702
162.598
161.121
159.285
157.1
154.568
151.679
148.433
144.842
140.918
136.681
132.159
127.383
122.405
117.302
112.147
107.007
101.935
96.97
92.164
87.59
83.325
79.465
76.083
73.219
70.907
69.181
68.032
67.443
67.357
67.629
68.129
68.748
69.355
69.846
70.092
69.86
68.883
66.99
64.109
60.324
55.895
51.153
46.507
42.561
40.018
39.358
40.77
44.075
48.429
52.501
54.892
54.139
50.063
44.348
38.579
33.541
27.03
15.43
-0.647
-14.273
-10.606
25.828
101.612
211.819
340.14
468.756
586.352
688.985
778.425
854.935
915.465
955.325
969.273
955.759
916.154
852.089
766.666
664.001
547.777
423.741
299.678
179.668
66.159
-39.141
-140.144
-236.012
-317.346
-375.39
-397.473
-376.778
-326.006
-262.518
-204.436
-166.819
-145.866
-130.491
-113.383
-88.711
-59.457
-33.207
-12.717
0.885
8.584
13.704
18.198
23.714
31.421
41.199
52.63
65.015
77.674
90.167
101.736
111.273
117.989
121.507
121.882
119.6
115.156
109
101.68
93.843
86.062
78.735
72.118
66.334
61.442
57.506
54.562
52.59
51.562
51.458
52.209
53.743
55.977
58.771
61.995
65.517
69.166
72.813
76.364
79.723
82.846
85.715
88.302
90.604
92.644
94.437
96.017
97.434
98.717
99.915
101.081
102.274
103.563
105.004
106.626
108.451
110.488
112.737
115.194
117.847
120.664
123.622
126.694
129.854
133.08
136.346
139.617
142.859
146.033
149.104
152.038
154.804
157.37
159.705
161.781
163.571
165.053
166.204
166.999
167.416
167.431
167.023
166.175
164.87
163.095
160.838
158.092
154.853
151.123
146.903
142.201
137.024
131.387
125.303
118.792
111.873
104.569
96.906
88.91
80.613
72.045
63.239
54.229
45.051
35.74
26.335
16.872
7.389
-2.077
-11.49
-20.814
-30.012
-39.052
-47.901
-56.527
-64.903
-72.999
-80.793
-88.26
-95.381
-102.14
-108.521
-114.513
-120.107
-125.298
-130.081
-134.456
-138.424
-141.989
-145.157
-147.936
-150.336
-152.371
-154.054
-155.403
-156.435
-157.171
-157.631
-157.839
-157.819
-157.594
-157.19
-156.633
-155.946
-155.157
-154.29
-153.37
-152.421
-151.468
-150.533
-149.637
-148.802
-148.047
-147.388
-146.844
-146.427
-146.151
-146.026
-146.064
-146.271
-146.655
-147.22
-147.97
-148.907
-150.031
-151.34
-152.829
-154.494
-156.326
-158.316
-160.452
-162.72
-165.107
-167.596
-170.17
-172.812
-175.503
-178.224
-180.953
-183.671
-186.355
-188.985
-191.539
-193.996
-196.334
-198.534
-200.575
-202.439
-204.108
-205.565
-206.793
-207.776
-208.499
-208.948
-209.111
-208.975
-208.531
-207.772
-206.692
-205.29
-203.564
-201.517
-199.157
-196.491
-193.532
-190.292
-186.788
-183.039
-179.064
-174.885
-170.526
-166.008
-161.357
-156.6
-151.763
-146.876
-141.971
-137.076
-132.224
-127.448
-122.778
-118.247
-113.882
-109.705
-105.739
-102.007
-98.536
-95.364
-92.517
-90.017
-87.879
-86.113
-84.723
-83.706
-83.036
-82.664
-82.54
-82.614
-82.853
-83.252
-83.78
-84.386
-85.014
-85.588
-86.064
-86.439
-86.693
-86.775
-86.702
-86.576
-86.549
-86.833
-87.584
-88.839
-90.625
-93.053
-96.07
-99.352
-102.892
-106.924
-111.451
-116.895
-122.754
-126.88
-129.623
-132.849
-139.138
-153.875
-176.202
-199.053
-215.417
-215.882
-199.409
-174.955
-150.626
-135.537
-131.693
-131.656
-131.154
-127.303
-122.481
-126.424
-141.516
-163.331
-179.939
-170.738
-123.712
-38.246
75.62
197.688
312.976
414.832
503.016
582.119
652.003
708.372
746.265
760.452
749.875
716.23
660.705
585.601
494.127
389.678
276.689
160.026
43.35
-69.973
-175.726
-270.113
-350.242
-413.924
-460.301
-489.728
-502.434
-498.818
-480.651
-450.523
-411.29
-366.081
-317.758
-268.6
-221.194
-178.536
-142.794
-114.984
-95.277
-83.064
-77.319
-76.989
-80.544
-85.658
-90.12
-92.657
-92.81
-90.701
-86.76
-81.372
-75.059
-68.861
-63.932
-60.821
-59.522
-59.691
-60.831
-62.602
-64.77
-66.892
-68.406
-68.932
-68.256
-66.358
-63.372
-59.373
-54.395
-48.537
-41.953
-34.847
-27.477
-20.028
-12.587
-5.214
2.066
9.227
16.218
23.014
29.61
36.013
42.231
48.261
54.086
59.711
65.166
70.513
75.841
81.221
86.692
92.281
97.999
103.856
109.861
116.005
122.263
128.61
135.028
141.505
148.033
154.6
161.18
167.745
174.258
180.685
186.998
193.162
199.144
204.914
210.44
215.698
220.666
225.322
229.641
233.598
237.167
240.323
243.045
245.312
247.103
248.401
249.194
249.469
249.22
248.443
247.136
245.299
242.938
240.059
236.671
232.788
228.423
223.595
218.324
212.631
206.542
200.083
193.282
186.169
178.776
171.135
163.279
155.242
147.056
138.757
130.378
121.953
113.514
105.094
96.724
88.434
80.254
72.211
64.33
56.634
49.144
41.88
34.858
28.093
21.597
15.379
9.448
3.81
-1.533
-6.578
-11.326
-15.779
-19.942
-23.82
-27.42
-30.751
-33.822
-36.644
-39.229
-41.589
-43.737
-45.686
-47.45
-49.043
-50.479
-51.77
-52.931
-53.974
-54.911
-55.754
-56.514
-57.2
-57.821
-58.386
-58.902
-59.374
-59.808
-60.207
-60.576
-60.915
-61.226
-61.51
-61.765
-61.99
-62.184
-62.344
-62.467
-62.548
-62.584
-62.57
-62.501
-62.372
-62.18
-61.919
-61.585
-61.173
-60.681
-60.105
-59.442
-58.69
-57.847
-56.912
-55.885
-54.77
-53.566
-52.279
-50.911
-49.469
-47.96
-46.392
-44.772
-43.109
-41.414
-39.697
-37.97
-36.245
-34.536
-32.856
-31.218
-29.639
-28.134
-26.72
-25.412
-24.226
-23.177
-22.284
-21.562
-21.026
-20.693
-20.577
-20.697
-21.07
-21.716
-22.65
-23.887
-25.442
-27.329
-29.559
-32.139
-35.07
-38.352
-41.984
-45.966
-50.3
-54.982
-60.006
-65.365
-71.05
-77.051
-83.358
-89.95
-96.795
-103.868
-111.147
-118.618
-126.279
-134.117
-142.114
-150.246
-158.487
-166.801
-175.151
-183.478
-191.702
-199.748
-207.549
-215.047
-222.204
-228.963
-235.256
-241.012
-246.15
-250.618
-254.373
-257.378
-259.627
-261.147
-261.994
-262.263
-262.06
-261.493
-260.694
-259.801
-258.946
-258.289
-257.971
-258.176
-259.195
-261.161
-264.02
-267.592
-271.411
-274.912
-277.654
-279.062
-278.378
-275.269
-269.939
-262.963
-255.572
-249.342
-245.538
-245.079
-248.972
-256.397
-264.188
-270.407
-272.858
-270.593
-266.33
-257.368
-236.762
-196.221
-124.433
-19.174
112.291
256.316
392.712
506.638
588.699
637.253
659.536
660.36
644.425
612.789
559.933
484.432
387.68
272.927
149.349
25.067
-96.695
-211.763
-318.782
-417.452
-500.647
-563.758
-603.1
-614.926
-605.113
-579.378
-543.196
-504.115
-462.685
-419.324
-375.589
-330.919
-288.225
-250.757
-219.277
-194.602
-176.172
-162.429
-153.081
-148.142
-146.584
-146.979
-148.051
-148.304
-147.37
-145.826
-143.283
-139.188
-133.636
-126.809
-119.127
-111.497
-103.91
-95.728
-87.279
-78.839
-70.37
-62.105
-53.933
-45.403
-36.66
-28.051
-19.3
-10.33
-1.241
8.102
17.561
26.905
36.217
45.552
54.707
63.597
72.19
80.396
88.283
95.9
103.185
110.109
116.707
123.023
129.133
135.108
140.957
146.697
152.362
157.989
163.62
169.272
174.937
180.607
186.281
191.968
197.679
203.418
209.179
214.957
220.741
226.522
232.292
238.036
243.734
249.364
254.9
260.319
265.602
270.724
275.66
280.385
284.869
289.087
293.013
296.621
299.883
302.772
305.264
307.335
308.964
310.134
310.825
311.024
310.718
309.896
308.552
306.682
304.282
301.354
297.903
293.935
289.461
284.493
279.049
273.146
266.808
260.058
252.925
245.439
237.631
229.535
221.186
212.62
203.875
194.988
185.997
176.939
167.854
158.778
149.749
140.802
131.971
123.291
114.793
106.506
98.459
90.678
83.186
76.005
69.153
62.648
56.503
50.73
45.339
40.336
35.725
31.507
27.683
24.247
21.196
18.521
16.212
14.259
12.647
11.362
10.387
9.706
9.299
9.149
9.234
9.535
10.032
10.703
11.53
12.49
13.565
14.734
15.981
17.285
18.632
20.004
21.386
22.764
24.126
25.461
26.757
28.007
29.202
30.337
31.407
32.408
33.338
34.197
34.984
35.703
36.356
36.947
37.482
37.967
38.41
38.819
39.203
39.57
39.931
40.295
40.671
41.07
41.502
41.974
42.498
43.08
43.73
44.455
45.262
46.159
47.15
48.239
49.431
50.727
52.129
53.637
55.249
56.965
58.78
60.69
62.69
64.773
66.932
69.158
71.438
73.762
76.116
78.487
80.86
83.219
85.546
87.828
90.047
92.187
94.231
96.164
97.968
99.628
101.127
102.447
103.569
104.474
105.146
105.569
105.729
105.612
105.21
104.514
103.526
102.244
100.668
98.795
96.627
94.165
91.417
88.39
85.094
81.539
77.743
73.73
69.528
65.164
60.657
56.016
51.239
46.331
41.31
36.197
31.017
25.802
20.59
15.439
10.432
5.644
1.142
-3.024
-6.819
-10.192
-13.083
-15.415
-17.109
-18.105
-18.37
-17.9
-16.7
-14.812
-12.292
-9.235
-5.813
-2.225
1.338
4.71
7.738
10.28
12.121
12.909
12.454
10.8
8.125
4.835
1.37
-1.96
-4.66
-5.874
-5.115
-2.552
1.306
5.368
8.247
8.951
6.672
0.148
-9.986
-20.302
-28.961
-34.348
-35.642
-35.896
-31.451
-12.186
29.248
99.998
198.196
311.365
431.985
554.848
674.641
786.787
877.517
930.448
937.455
900.035
830.848
744.537
649.438
547.583
436.012
314.111
186.126
58.399
-61.376
-167.509
-257.326
-329.275
-382.888
-418.98
-439.118
-445.512
-441.185
-429.071
-411.472
-390.289
-366.874
-341.843
-315.368
-287.305
-257.232
-225
-191.105
-156.64
-122.969
-91.396
-63.075
-39.041
-20.022
-6.271
2.644
7.995
11.168
13.128
14.654
16.323
18.391
20.977
23.817
26.047
26.999
26.499
24.513
21.27
17.163
12.446
7.544
3.148
-0.303
-2.6
-3.633
-3.52
-2.38
-0.241
2.76
6.433
10.637
15.199
19.985
24.918
29.849
34.646
39.212
43.434
47.26
50.686
53.693
56.297
58.538
60.445
62.065
63.461
64.67
65.747
66.754
67.746
68.804
69.99
71.344
72.906
74.697
76.723
78.993
81.5
84.219
87.135
90.228
93.477
96.866
100.375
103.974
107.633
111.317
114.992
118.626
122.188
125.645
128.966
132.122
135.083
137.826
140.325
142.552
144.477
146.074
147.315
148.178
148.64
148.679
148.279
147.426
146.109
144.322
142.062
139.327
136.119
132.442
128.307
123.722
118.705
113.27
107.44
101.236
94.687
87.819
80.664
73.255
65.624
57.807
49.839
41.758
33.6
25.403
17.205
9.043
0.954
-7.025
-14.859
-22.515
-29.961
-37.168
-44.108
-50.756
-57.091
-63.093
-68.745
-74.034
-78.949
-83.481
-87.627
-91.383
-94.751
-97.735
-100.341
-102.58
-104.463
-106.004
-107.223
-108.136
-108.765
-109.133
-109.262
-109.18
-108.912
-108.486
-107.93
-107.273
-106.544
-105.773
-104.988
-104.217
-103.488
-102.828
-102.262
-101.814
-101.506
-101.358
-101.391
-101.621
-102.064
-102.732
-103.637
-104.788
-106.191
-107.85
-109.767
-111.942
-114.372
-117.052
-119.976
-123.136
-126.52
-130.118
-133.915
-137.896
-142.045
-146.344
-150.773
-155.312
-159.941
-164.637
-169.379
-174.143
-178.908
-183.651
-188.349
-192.981
-197.525
-201.96
-206.266
-210.423
-214.415
-218.222
-221.83
-225.224
-228.39
-231.316
-233.993
-236.411
-238.561
-240.436
-242.034
-243.349
-244.381
-245.128
-245.592
-245.774
-245.679
-245.313
-244.681
-243.791
-242.653
-241.275
-239.67
-237.85
-235.829
-233.62
-231.238
-228.699
-226.021
-223.22
-220.314
-217.319
-214.253
-211.135
-207.984
-204.816
-201.651
-198.506
-195.403
-192.364
-189.41
-186.562
-183.841
-181.266
-178.858
-176.633
-174.607
-172.788
-171.185
-169.808
-168.669
-167.778
-167.144
-166.772
-166.666
-166.828
-167.261
-167.962
-168.921
-170.123
-171.554
-173.207
-175.085
-177.2
-179.555
-182.145
-184.958
-187.98
-191.188
-194.556
-198.035
-201.558
-205.061
-208.491
-211.81
-214.989
-217.985
-220.741
-223.186
-225.241
-226.846
-227.966
-228.579
-228.682
-228.3
-227.475
-226.28
-224.847
-223.298
-221.74
-220.268
-218.959
-217.909
-217.298
-217.39
-218.36
-220.277
-223.093
-226.53
-230.234
-233.82
-236.714
-238.155
-237.677
-235.108
-230.508
-224.878
-219.601
-215.88
-215.386
-218.305
-222.44
-225.977
-227.11
-227.608
-233.777
-248.035
-268.075
-280.691
-263.707
-202.109
-89.146
63.699
228.957
381.386
497.783
568.96
601.15
604.125
591.858
572.205
544.748
506.11
450.252
376.024
287.091
188.601
87.331
-12.549
-109.063
-199.616
-281.952
-353.865
-412.995
-458.188
-489.345
-506.337
-509.109
-498.043
-474.273
-439.843
-397.389
-349.612
-298.923
-247.63
-198.504
-154.6
-117.925
-89.291
-68.675
-55.205
-47.811
-45.406
-46.043
-47.082
-46.727
-44.095
-38.915
-31.673
-22.933
-13.157
-3.374
4.965
10.966
14.284
15
13.644
10.718
6.621
1.939
-2.62
-6.546
-9.512
-11.373
-12.185
-11.984
-10.773
-8.609
-5.585
-1.799
2.631
7.582
12.965
18.67
24.553
30.504
36.435
42.264
47.941
53.438
58.725
63.793
68.656
73.32
77.798
82.116
86.304
90.405
94.471
98.557
102.726
107.024
111.483
116.122
120.949
125.96
131.148
136.496
141.975
147.558
153.225
158.948
164.704
170.465
176.196
181.858
187.415
192.827
198.06
203.079
207.854
212.353
216.55
220.419
223.939
227.087
229.84
232.175
234.069
235.501
236.454
236.912
236.86
236.286
235.184
233.548
231.379
228.679
225.452
221.707
217.453
212.704
207.476
201.787
195.658
189.112
182.175
174.874
167.239
159.301
151.092
142.646
133.996
125.176
116.222
107.167
98.048
88.898
79.752
70.644
61.606
52.671
43.871
35.234
26.788
18.562
10.578
2.859
-4.575
-11.706
-18.518
-24.998
-31.136
-36.921
-42.347
-47.409
-52.104
-56.433
-60.395
-63.995
-67.238
-70.129
-72.679
-74.895
-76.79
-78.374
-79.662
-80.668
-81.405
-81.89
-82.138
-82.166
-81.99
-81.629
-81.099
-80.418
-79.603
-78.67
-77.637
-76.52
-75.334
-74.094
-72.814
-71.508
-70.189
-68.868
-67.557
-66.266
-65.005
-63.782
-62.604
-61.48
-60.414
-59.411
-58.477
-57.613
-56.823
-56.108
-55.469
-54.907
-54.421
-54.011
-53.676
-53.412
-53.218
-53.091
-53.026
-53.018
-53.065
-53.159
-53.297
-53.471
-53.677
-53.909
-54.16
-54.425
-54.697
-54.969
-55.235
-55.488
-55.722
-55.929
-56.104
-56.238
-56.327
-56.363
-56.343
-56.259
-56.108
-55.883
-55.581
-55.196
-54.725
-54.164
-53.507
-52.753
-51.898
-50.939
-49.876
-48.706
-47.43
-46.046
-44.555
-42.958
-41.256
-39.451
-37.544
-35.538
-33.437
-31.245
-28.967
-26.608
-24.174
-21.672
-19.109
-16.495
-13.836
-11.142
-8.421
-5.683
-2.938
-0.197
2.531
5.235
7.905
10.526
13.081
15.55
17.916
20.161
22.269
24.223
26.009
27.616
29.041
30.279
31.328
32.183
32.838
33.282
33.512
33.53
33.341
32.958
32.396
31.674
30.813
29.831
28.737
27.531
26.198
24.72
23.088
21.296
19.352
17.287
15.127
12.909
10.673
8.424
6.179
3.974
1.845
-0.135
-1.879
-3.336
-4.411
-4.966
-4.973
-4.475
-3.594
-2.659
-1.951
-1.52
-1.454
-1.794
-2.257
-2.527
-2.217
-0.61
2.777
7.839
14.465
22.367
30.588
38.292
44.776
48.998
50.357
48.899
44.317
36.451
26.259
14.279
0.61
-14.304
-30.636
-47.154
-59.962
-65.893
-64.256
-58.086
-52.861
-49.688
-42.717
-19.475
33.507
122.161
244.385
388.733
538.631
678.309
791.127
866.118
900.79
899.03
872.448
832.004
782.141
722.239
648.241
558.174
454.567
343.022
229.828
119.329
14.992
-79.922
-163.12
-232.248
-285.392
-322.251
-342.452
-345.644
-333.273
-307.887
-272.425
-230.414
-185.307
-139.659
-96.312
-58.488
-27.904
-4.973
10.56
19.906
24.687
26.119
25.898
26.433
29.167
34.666
43.082
53.713
65.544
77.877
89.684
99.58
106.848
111.213
112.647
111.685
108.932
104.846
100.086
95.337
90.96
87.211
84.219
81.959
80.504
79.935
80.23
81.362
83.295
85.979
89.387
93.447
98.008
102.906
107.963
113.051
118.122
123.132
128.051
132.853
137.496
141.962
146.268
150.415
154.41
158.264
161.981
165.601
169.196
172.837
176.605
180.56
184.727
189.13
193.78
198.681
203.832
209.223
214.825
220.617
226.585
232.712
238.983
245.373
251.845
258.362
264.882
271.365
277.773
284.069
290.211
296.166
301.899
307.38
312.582
317.474
322.025
326.202
329.976
333.317
336.197
338.59
340.474
341.826
342.63
342.872
342.544
341.639
340.153
338.086
335.441
332.225
328.448
324.121
319.261
313.886
308.019
301.685
294.912
287.729
280.17
272.268
264.06
255.581
246.87
237.964
228.902
219.723
210.466
201.168
191.869
182.605
173.413
164.328
155.383
146.61
138.038
129.693
121.6
113.781
106.256
99.042
92.152
85.599
79.393
73.538
68.039
62.898
58.112
53.679
49.591
45.839
42.415
39.304
36.494
33.968
31.71
29.702
27.924
26.358
24.984
23.779
22.724
21.796
20.976
20.242
19.575
18.953
18.359
17.774
17.18
16.561
15.901
15.185
14.4
13.533
12.573
11.509
10.333
9.037
7.614
6.059
4.369
2.541
0.573
-1.537
-3.786
-6.176
-8.702
-11.363
-14.155
-17.074
-20.114
-23.271
-26.538
-29.908
-33.376
-36.935
-40.576
-44.292
-48.077
-51.922
-55.818
-59.759
-63.736
-67.74
-71.761
-75.792
-79.821
-83.841
-87.841
-91.813
-95.745
-99.628
-103.453
-107.21
-110.889
-114.481
-117.974
-121.361
-124.63
-127.772
-130.78
-133.642
-136.351
-138.899
-141.278
-143.481
-145.502
-147.334
-148.971
-150.407
-151.637
-152.657
-153.461
-154.047
-154.411
-154.551
-154.468
-154.161
-153.632
-152.883
-151.918
-150.741
-149.358
-147.775
-146
-144.041
-141.907
-139.61
-137.162
-134.576
-131.865
-129.042
-126.125
-123.126
-120.064
-116.953
-113.809
-110.647
-107.484
-104.336
-101.221
-98.157
-95.16
-92.252
-89.454
-86.787
-84.272
-81.93
-79.779
-77.839
-76.125
-74.652
-73.43
-72.466
-71.769
-71.349
-71.214
-71.37
-71.82
-72.566
-73.606
-74.94
-76.567
-78.478
-80.655
-83.087
-85.765
-88.691
-91.878
-95.328
-99.035
-102.984
-107.16
-111.54
-116.096
-120.779
-125.512
-130.218
-134.825
-139.276
-143.532
-147.535
-151.212
-154.482
-157.252
-159.464
-161.092
-162.117
-162.524
-162.339
-161.607
-160.419
-158.956
-157.395
-155.913
-154.713
-153.942
-153.751
-154.365
-156.04
-158.959
-163.18
-168.513
-174.563
-181.009
-187.551
-193.739
-198.995
-202.761
-204.726
-205.249
-205.296
-205.632
-206.774
-209.421
-214.044
-220.814
-229.824
-238.463
-242.97
-241.747
-232.125
-214.286
-189.344
-151.592
-97.49
-24.062
71.268
179.862
292.706
402.266
498.992
580.049
643.267
685.111
704.511
699.803
670.595
618.068
544.124
452.45
347.235
233.009
114.785
-3.79
-119.65
-228.638
-327.061
-411.909
-480.373
-531.309
-564.891
-580.685
-578.718
-561.083
-530.602
-490.854
-446.277
-400.159
-355.054
-314.256
-280.576
-255.128
-238.172
-228.738
-224.632
-224.202
-225.816
-227.09
-226.091
-221.742
-213.49
-201.743
-187.673
-172.274
-156.723
-142.53
-130.742
-121.964
-116.443
-113.886
-113.737
-115.444
-118.359
-121.741
-125.044
-127.942
-130.26
-131.992
-133.162
-133.734
-133.644
-132.882
-131.437
-129.289
-126.465
-122.979
-118.864
-114.239
-109.242
-104.013
-98.715
-93.445
-88.243
-83.147
-78.173
-73.338
-68.689
-64.25
-60.01
-55.965
-52.098
-48.388
-44.825
-41.365
-37.936
-34.465
-30.872
-27.105
-23.14
-18.959
-14.55
-9.91
-5.032
0.074
5.385
10.881
16.549
22.372
28.337
34.42
40.583
46.788
52.995
59.166
65.264
71.255
77.099
82.762
88.212
93.42
98.359
103.001
107.314
111.268
114.833
117.983
120.693
122.939
124.699
125.955
126.695
126.907
126.585
125.727
124.331
122.4
119.939
116.959
113.47
109.487
105.028
100.112
94.762
89.005
82.868
76.382
69.578
62.488
55.149
47.595
39.861
31.985
24.002
15.95
7.865
-0.217
-8.26
-16.229
-24.092
-31.817
-39.372
-46.73
-53.866
-60.756
-67.378
-73.714
-79.746
-85.461
-90.846
-95.891
-100.589
-104.934
-108.922
-112.551
-115.823
-118.739
-121.304
-123.524
-125.406
-126.959
-128.194
-129.122
-129.757
-130.111
-130.2
-130.039
-129.645
-129.035
-128.225
-127.234
-126.079
-124.778
-123.347
-121.805
-120.167
-118.449
-116.669
-114.84
-112.977
-111.095
-109.208
-107.329
-105.47
-103.643
-101.86
-100.133
-98.471
-96.884
-95.381
-93.973
-92.666
-91.468
-90.388
-89.431
-88.605
-87.913
-87.361
-86.954
-86.694
-86.585
-86.628
-86.825
-87.177
-87.684
-88.346
-89.163
-90.134
-91.256
-92.526
-93.943
-95.502
-97.199
-99.027
-100.983
-103.058
-105.246
-107.539
-109.929
-112.407
-114.964
-117.588
-120.27
-122.996
-125.756
-128.536
-131.324
-134.104
-136.865
-139.591
-142.268
-144.883
-147.421
-149.868
-152.209
-154.431
-156.52
-158.461
-160.241
-161.847
-163.267
-164.489
-165.503
-166.298
-166.866
-167.198
-167.288
-167.129
-166.715
-166.042
-165.106
-163.904
-162.433
-160.695
-158.689
-156.418
-153.885
-151.094
-148.052
-144.766
-141.243
-137.493
-133.525
-129.351
-124.982
-120.433
-115.717
-110.85
-105.848
-100.73
-95.514
-90.22
-84.868
-79.476
-74.065
-68.653
-63.261
-57.908
-52.614
-47.397
-42.279
-37.282
-32.43
-27.747
-23.254
-18.972
-14.923
-11.127
-7.602
-4.359
-1.407
1.246
3.588
5.611
7.311
8.683
9.728
10.448
10.843
10.92
10.691
10.173
9.385
8.344
7.059
5.535
3.769
1.765
-0.464
-2.907
-5.554
-8.383
-11.368
-14.466
-17.612
-20.748
-23.82
-26.772
-29.552
-32.092
-34.313
-36.146
-37.51
-38.344
-38.616
-38.295
-37.365
-35.84
-33.715
-31.046
-27.973
-24.622
-21.15
-17.741
-14.529
-11.753
-9.77
-8.773
-8.781
-9.675
-11.093
-12.647
-14.056
-14.827
-14.274
-12.068
-8.389
-3.883
0.397
3.112
3.025
-0.811
-9.695
-23.184
-38.147
-52.736
-65.486
-75.544
-85.115
-90.131
-80.269
-47.468
15.845
108.279
218.72
340.166
467.115
594.427
716.887
820.291
888.306
912.16
892.19
839.616
767.791
683.875
589.742
483.118
363.852
236.791
108.536
-13.563
-123.7
-218.444
-295.405
-353.111
-391.397
-411.201
-413.806
-401.115
-375.82
-340.907
-299.89
-256.361
-213.05
-172.075
-135.29
-104.033
-78.836
-59.543
-45.071
-33.849
-24.501
-15.623
-6.056
5.056
18.232
33.412
49.886
66.635
82.566
96.518
107.798
116.041
121.024
122.919
122.162
119.338
115.262
110.806
106.499
102.673
99.573
97.301
96.03
95.9
96.896
98.956
102.023
106.037
110.977
116.8
123.355
130.446
137.851
145.343
152.795
160.123
167.248
174.107
180.629
186.762
192.511
197.895
202.928
207.625
211.993
216.054
219.873
223.527
227.094
230.663
234.285
237.995
241.823
245.783
249.886
254.136
258.518
263.005
267.584
272.239
276.958
281.73
286.528
291.324
296.085
300.778
305.373
309.839
314.147
318.265
322.17
325.835
329.24
332.364
335.185
337.679
339.823
341.594
342.968
343.927
344.45
344.522
344.126
343.25
341.886
340.027
337.67
334.812
331.455
327.601
323.256
318.429
313.131
307.373
301.173
294.548
287.518
280.106
272.336
264.234
255.827
247.146
238.218
229.074
219.746
210.265
200.662
190.971
181.226
171.454
161.685
151.95
142.276
132.694
123.233
113.915
104.758
95.797
87.06
78.575
70.37
62.451
54.813
47.484
40.491
33.803
27.4
21.263
15.359
9.719
4.4
-0.632
-5.44
-9.876
-13.765
-17.225
-20.255
-22.832
-25.359
-26.791
-26.112
-24.807
-23.335
-24.411
-31.282
-40.386
-49.354
-54.65
-51.412
-43.97
-35.998
-30.017
-30.185
-33.555
-37.141
-40.289
-41.185
-40.902
-40.82
-40.689
-40.695
-40.757
-40.606
-40.433
-40.388
-40.431
-40.556
-40.784
-41.114
-41.539
-42.054
-42.634
-43.249
-43.912
-44.634
-45.411
-46.241
-47.122
-48.051
-49.029
-50.055
-51.126
-52.236
-53.382
-54.558
-55.762
-56.99
-58.237
-59.5
-60.774
-62.056
-63.341
-64.627
-65.91
-67.188
-68.458
-69.718
-70.968
-72.206
-73.431
-74.644
-75.844
-77.032
-78.208
-79.372
-80.523
-81.661
-82.786
-83.897
-84.992
-86.07
-87.131
-88.172
-89.191
-90.189
-91.161
-92.108
-93.026
-93.913
-94.766
-95.583
-96.36
-97.094
-97.781
-98.417
-98.996
-99.516
-99.97
-100.355
-100.664
-100.893
-101.034
-101.083
-101.034
-100.882
-100.621
-100.245
-99.752
-99.139
-98.402
-97.541
-96.555
-95.443
-94.207
-92.848
-91.371
-89.777
-88.071
-86.259
-84.346
-82.342
-80.253
-78.091
-75.867
-73.594
-71.289
-68.969
-66.653
-64.357
-62.101
-59.905
-57.787
-55.766
-53.856
-52.072
-50.428
-48.944
-47.639
-46.532
-45.636
-44.968
-44.541
-44.366
-44.457
-44.817
-45.44
-46.325
-47.473
-48.892
-50.607
-52.627
-54.95
-57.572
-60.477
-63.643
-67.043
-70.626
-74.32
-78.057
-81.772
-85.419
-88.973
-92.392
-95.621
-98.597
-101.23
-103.468
-105.286
-106.654
-107.567
-108.055
-108.168
-108.015
-107.752
-107.508
-107.416
-107.604
-108.176
-109.27
-111.008
-113.534
-117.059
-121.679
-127.35
-133.891
-140.881
-147.797
-154.178
-159.419
-162.789
-163.837
-162.414
-158.893
-154.316
-149.806
-146.305
-144.657
-145.541
-149.213
-155.239
-162.018
-166.828
-166.482
-157.838
-138.228
-105.265
-57.061
6.989
85.857
176.809
275.527
377.059
476.432
568.004
646.025
705.575
742.492
754.182
740.088
700.478
636.483
550.917
447.583
331.097
207.274
81.804
-40.482
-154.57
-256
-341.516
-408.453
-455.619
-483.963
-495.392
-492.069
-477.072
-453.562
-424.415
-393.14
-362.577
-333.887
-307.481
-283.459
-261.336
-240.758
-221.576
-202.604
-182.622
-161.485
-139.433
-116.975
-94.9
-73.578
-53.116
-34.332
-18.271
-5.419
4.009
10.137
13.345
13.772
11.463
6.843
0.605
-6.623
-14.302
-22.043
-29.578
-36.578
-42.651
-47.537
-51.133
-53.398
-54.34
-53.97
-52.274
-49.293
-45.155
-40.005
-34.001
-27.329
-20.14
-12.608
-4.948
2.67
10.103
17.242
24.04
30.471
36.509
42.154
47.433
52.374
57.028
61.446
65.667
69.745
73.735
77.702
81.723
85.857
90.136
94.586
99.214
104.017
108.994
114.128
119.387
124.746
130.177
135.654
141.159
146.668
152.15
157.573
162.901
168.104
173.154
178.024
182.686
187.115
191.286
195.179
198.776
202.059
205.006
207.597
209.811
211.63
213.038
214.021
214.565
214.66
214.3
213.482
212.205
210.472
208.287
205.658
202.595
199.109
195.217
190.935
186.282
181.278
175.947
170.314
164.404
158.246
151.868
145.298
138.568
131.707
124.749
117.723
110.66
103.593
96.552
89.566
82.666
75.88
69.233
62.752
56.46
50.38
44.53
38.928
33.59
28.528
23.753
19.275
15.099
11.23
7.67
4.42
1.479
-1.158
-3.494
-5.535
-7.291
-8.769
-9.981
-10.937
-11.652
-12.137
-12.409
-12.481
-12.37
-12.092
-11.661
-11.096
-10.411
-9.623
-8.746
-7.797
-6.789
-5.735
-4.65
-3.544
-2.428
-1.313
-0.208
0.879
1.943
2.975
3.972
4.93
5.844
6.712
7.533
8.304
9.026
9.699
10.323
10.9
11.431
11.92
12.368
12.78
13.158
13.507
13.829
14.128
14.408
14.672
14.923
15.164
15.397
15.624
15.848
16.068
16.286
16.5
16.711
16.917
17.116
17.304
17.481
17.642
17.784
17.904
17.997
18.058
18.084
18.07
18.009
17.898
17.729
17.497
17.197
16.824
16.371
15.834
15.206
14.484
13.662
12.738
11.706
10.563
9.307
7.936
6.448
4.844
3.123
1.287
-0.66
-2.716
-4.876
-7.136
-9.489
-11.932
-14.456
-17.056
-19.722
-22.448
-25.224
-28.043
-30.892
-33.763
-36.644
-39.526
-42.398
-45.251
-48.074
-50.857
-53.59
-56.265
-58.874
-61.41
-63.864
-66.229
-68.501
-70.676
-72.751
-74.725
-76.599
-78.376
-80.063
-81.668
-83.2
-84.67
-86.088
-87.467
-88.82
-90.159
-91.493
-92.834
-94.194
-95.587
-97.032
-98.546
-100.145
-101.844
-103.658
-105.602
-107.693
-109.94
-112.341
-114.9
-117.623
-120.525
-123.633
-126.965
-130.527
-134.32
-138.342
-142.581
-147.025
-151.638
-156.361
-161.14
-165.925
-170.68
-175.391
-180.025
-184.53
-188.842
-192.875
-196.575
-199.918
-202.876
-205.43
-207.591
-209.391
-210.912
-212.286
-213.624
-215.018
-216.531
-218.221
-220.167
-222.478
-225.35
-229.022
-233.594
-239.062
-245.327
-252.148
-259.221
-266.146
-272.201
-276.526
-278.645
-278.371
-275.848
-271.834
-267.293
-263.331
-261.706
-262.833
-264.836
-266.352
-265.892
-265.572
-272.131
-286.744
-304.888
-313.873
-293.528
-233.426
-133.277
-0.849
146.424
295.261
434.939
551.174
634.65
679.18
684.429
661.344
620.843
569.024
507.017
430.487
337.385
230.486
115.803
0.784
-109.488
-211.596
-302.814
-381.745
-446.749
-496.575
-531.905
-553.614
-562.506
-560.218
-548.117
-527.284
-499.767
-467.663
-432.029
-394.015
-354.908
-315.773
-278.432
-244.797
-215.523
-190.754
-170.836
-155.687
-145.009
-138.174
-133.501
-129.324
-124.92
-119.966
-114.313
-108.085
-101.394
-94.681
-89.043
-85.343
-83.849
-84.506
-86.97
-90.814
-95.691
-101.066
-106.166
-110.372
-113.326
-114.869
-115.036
-113.876
-111.385
-107.608
-102.672
-96.72
-89.896
-82.316
-74.06
-65.216
-55.926
-46.371
-36.712
-27.075
-17.537
-8.13
1.118
10.174
19.032
27.703
36.213
44.602
52.9
61.125
69.304
77.472
85.673
93.973
102.415
111.018
119.791
128.726
137.81
147.032
156.364
165.765
175.196
184.619
193.999
203.311
212.518
221.581
230.458
239.104
247.479
255.546
263.271
270.616
277.551
284.043
290.068
295.604
300.629
305.119
309.054
312.414
315.182
317.345
318.893
319.817
320.112
319.779
318.822
317.25
315.074
312.309
308.972
305.084
300.67
295.755
290.37
284.543
278.309
271.703
264.762
257.526
250.033
242.324
234.44
226.424
218.316
210.158
201.992
193.858
185.794
177.84
170.031
162.404
154.99
147.821
140.924
134.326
128.048
122.112
116.533
111.324
106.495
102.055
98.006
94.35
91.085
88.207
85.71
83.584
81.818
80.398
79.31
78.535
78.055
77.849
77.895
78.17
78.651
79.312
80.129
81.076
82.129
83.261
84.448
85.664
86.886
88.092
89.258
90.364
91.391
92.321
93.137
93.826
94.375
94.772
95.009
95.078
94.974
94.692
94.232
93.592
92.775
91.783
90.62
89.294
87.81
86.179
84.41
82.514
80.503
78.39
76.187
73.909
71.571
69.187
66.772
64.341
61.909
59.491
57.1
54.75
52.455
50.226
48.075
46.012
44.047
42.187
40.44
38.811
37.304
35.923
34.669
33.54
32.536
31.653
30.886
30.23
29.677
29.218
28.843
28.541
28.3
28.107
27.947
27.806
27.668
27.518
27.339
27.114
26.827
26.462
26.003
25.432
24.735
23.896
22.898
21.729
20.375
18.822
17.061
15.08
12.871
10.427
7.745
4.821
1.652
-1.76
-5.416
-9.311
-13.439
-17.795
-22.369
-27.151
-32.131
-37.295
-42.628
-48.114
-53.739
-59.486
-65.338
-71.276
-77.285
-83.345
-89.439
-95.549
-101.656
-107.742
-113.788
-119.776
-125.691
-131.515
-137.236
-142.84
-148.32
-153.667
-158.876
-163.944
-168.868
-173.65
-178.293
-182.797
-187.164
-191.394
-195.489
-199.455
-203.299
-207.027
-210.643
-214.15
-217.551
-220.856
-224.07
-227.203
-230.252
-233.201
-236.051
-238.807
-241.483
-244.11
-246.702
-249.26
-251.793
-254.314
-256.825
-259.334
-261.815
-264.209
-266.463
-268.52
-270.345
-271.937
-273.264
-274.28
-274.912
-275.032
-274.564
-273.491
-271.777
-269.422
-266.401
-262.59
-258.097
-253.255
-248.367
-243.815
-239.773
-236.036
-232.72
-230.286
-228.797
-228.065
-227.561
-226.164
-223.465
-219.949
-215.581
-209.964
-203.082
-195.09
-187.231
-182.036
-180.898
-183.949
-191.648
-204.158
-221.085
-241.9
-262.746
-277.884
-284.306
-278.692
-260.722
-231.28
-184.638
-117.469
-27.511
86.578
214.9
347.54
476.241
590.979
688.626
766.778
821.835
852.796
858.166
837.657
792.408
724.15
636.426
533.439
419.852
301.02
180.972
63.123
-47.855
-147.79
-233.359
-301.583
-351.422
-383.37
-397.321
-393.626
-374.724
-343.674
-304.113
-260.383
-215.465
-171.559
-131.709
-98.568
-73.18
-55.693
-45.276
-40.224
-39.159
-40.571
-42.282
-42.079
-39.568
-36.313
-32.235
-26.485
-16.81
1.821
27.688
53.676
73.171
77.244
65.557
46.984
28.541
17.865
17.036
20.368
24.299
26.414
25.901
25.301
25.855
27.462
30.152
33.521
37.442
42.234
47.951
54.394
61.344
68.588
75.945
83.304
90.587
97.699
104.578
111.208
117.568
123.65
129.451
134.956
140.151
145.031
149.616
153.951
158.113
162.189
166.238
170.297
174.386
178.517
182.694
186.921
191.187
195.467
199.747
204.016
208.27
212.507
216.715
220.874
224.957
228.936
232.784
236.477
239.991
243.301
246.385
249.224
251.803
254.108
256.125
257.836
259.223
260.268
260.952
261.262
261.181
260.695
259.791
258.462
256.7
254.501
251.865
248.791
245.282
241.345
236.986
232.215
227.045
221.491
215.568
209.295
202.694
195.788
188.601
181.161
173.495
165.634
157.607
149.447
141.185
132.852
124.482
116.107
107.76
99.472
91.277
83.204
75.284
67.546
60.017
52.724
45.689
38.935
32.481
26.346
20.543
15.087
9.988
5.254
0.892
-3.096
-6.708
-9.944
-12.809
-15.307
-17.446
-19.235
-20.686
-21.812
-22.626
-23.146
-23.389
-23.372
-23.115
-22.638
-21.962
-21.108
-20.097
-18.951
-17.689
-16.335
-14.907
-13.426
-11.912
-10.384
-8.858
-7.352
-5.881
-4.46
-3.102
-1.817
-0.617
0.49
1.497
2.397
3.186
3.861
4.42
4.862
5.188
5.4
5.502
5.497
5.391
5.189
4.9
4.529
4.084
3.574
3.006
2.39
1.733
1.045
0.334
-0.391
-1.121
-1.847
-2.562
-3.258
-3.926
-4.561
-5.157
-5.707
-6.207
-6.652
-7.038
-7.362
-7.621
-7.812
-7.933
-7.984
-7.965
-7.875
-7.716
-7.49
-7.196
-6.838
-6.418
-5.936
-5.395
-4.797
-4.142
-3.432
-2.671
-1.859
-0.999
-0.094
0.854
1.841
2.867
3.927
5.022
6.151
7.311
8.502
9.723
10.972
12.249
13.553
14.882
16.235
17.61
19.008
20.428
21.873
23.341
24.833
26.349
27.89
29.453
31.039
32.644
34.264
35.898
37.542
39.193
40.85
42.512
44.178
45.848
47.522
49.198
50.874
52.545
54.205
55.849
57.468
59.051
60.587
62.07
63.491
64.851
66.144
67.363
68.5
69.547
70.495
71.342
72.078
72.682
73.141
73.449
73.604
73.629
73.529
73.294
72.912
72.363
71.623
70.681
69.497
68.001
66.133
63.832
61.069
57.863
54.221
50.136
45.598
40.568
35.049
29.098
22.757
16.073
9.097
1.867
-5.5
-12.797
-19.816
-26.337
-32.216
-37.425
-41.926
-45.717
-48.793
-51.062
-52.661
-53.933
-55.131
-56.55
-58.346
-60.386
-62.887
-66.447
-71.27
-77.446
-85.053
-93.728
-103.631
-115.476
-129.313
-144.956
-162.564
-182.044
-203.378
-227.102
-253.006
-280.654
-310.327
-341.831
-374.875
-409.554
-445.687
-483.054
-520.144
-553.169
-578.935
-596.181
-607.792
-619.701
-632.321
-639.555
-629.262
-587.868
-511.236
-403.643
-276.848
-146.79
-26.737
70.247
135.31
167.169
169.464
152.147
124.98
91.184
49.655
-3.133
-69.083
-145.707
-227.74
-309.842
-388.12
-458.98
-519.387
-567.209
-600.424
-618.526
-622.561
-613.326
-592.145
-561.657
-524.685
-484.413
-444.122
-405.569
-369.435
-336.3
-306.197
-278.638
-253.057
-228.374
-203.351
-177.639
-151.472
-125.354
-100.093
-76.418
-54.899
-36.202
-20.98
-9.549
-2
1.802
2.219
-0.37
-5.629
-13.298
-23.061
-34.454
-46.806
-59.346
-71.512
-83.046
-93.802
-103.44
-111.622
-118.344
-124.046
-129.482
-135.074
-140.474
-144.884
-147.72
-148.556
-146.656
-140.742
-129.131
-110.528
-84.92
-53.295
-16.799
23.512
66.29
109.376
149.992
185.456
214.143
235.626
250.063
257.595
258.603
254.593
247.772
240.644
235.489
233.612
235.69
242.49
254.579
271.379
291.756
314.248
337.228
359.837
381.55
401.619
419.431
435.165
449.339
462.399
474.526
485.082
493.353
498.917
501.29
499.612
492.779
480.052
461.458
437.855
410.069
378.69
344.331
307.77
270.101
232.179
194.18
155.759
116.678
76.927
36.612
-4.174
-45.6
-87.768
-130.455
-173.191
-215.506
-257.12
-297.922
-337.853
-376.77
-414.467
-450.74
-485.504
-518.748
-550.385
-580.259
-608.135
-633.735
-656.882
-677.489
-695.489
-710.836
-723.452
-733.236
-740.158
-744.24
-745.561
-744.273
-740.469
-734.196
-725.584
-714.803
-702.079
-687.683
-671.771
-654.378
-635.558
-615.39
-594.006
-571.593
-548.285
-524.186
-499.409
-474.068
-448.356
-422.477
-396.553
-370.649
-344.802
-319.043
-293.514
-268.462
-244.085
-220.53
-197.893
-176.215
-155.572
-136.028
-117.583
-100.163
-83.621
-67.83
-52.738
-38.339
-24.636
-11.614
0.817
12.795
24.41
35.719
46.759
57.551
68.136
78.536
88.711
98.555
107.924
116.713
124.87
132.382
139.239
145.424
150.902
155.639
159.643
162.929
165.513
167.411
168.629
169.192
169.161
168.625
167.686
166.424
164.896
163.15
161.226
159.169
157.018
154.801
152.529
150.214
147.877
145.542
143.234
140.973
138.767
136.62
134.535
132.519
130.58
128.726
126.964
125.299
123.742
122.304
120.998
119.833
118.814
117.944
117.224
116.654
116.234
115.963
115.835
115.846
115.994
116.276
116.689
117.231
117.897
118.686
119.594
120.621
121.764
123.02
124.388
125.865
127.447
129.132
130.919
132.803
134.782
136.852
139.011
141.255
143.582
145.987
148.467
151.016
153.631
156.308
159.043
161.831
164.666
167.544
170.459
173.407
176.381
179.374
182.377
185.382
188.378
191.354
194.297
197.19
200.016
202.758
205.399
207.92
210.305
212.533
214.589
216.46
218.132
219.591
220.821
221.806
222.528
222.977
223.138
223.004
222.564
221.81
220.742
219.369
217.694
215.723
213.45
210.859
207.944
204.711
201.165
197.32
193.198
188.82
184.228
179.485
174.649
169.773
164.898
160.047
155.264
150.601
146.124
141.914
138.03
134.512
131.406
128.732
126.478
124.616
123.076
121.762
120.593
119.467
118.28
116.953
115.392
113.518
111.194
108.167
104.303
99.626
94.3
88.678
83.14
78.008
73.806
71.273
70.874
72.604
75.968
80.083
83.96
86.523
86.61
82.907
75.764
68.033
62.862
62.019
63.261
61.525
55.67
52.861
68.534
118.406
208.784
331.995
468.216
597.629
707.686
793.814
858.818
904.184
927.775
926.673
897.542
840.008
757.037
653.397
534.763
407.191
276.92
149.367
29.304
-79.361
-173.936
-252.632
-314.321
-359.08
-388.306
-403.605
-406.875
-399.869
-383.902
-360.698
-332.298
-300.463
-266.45
-231.334
-196.136
-162.236
-131.208
-103.921
-80.623
-61.263
-45.639
-33.552
-24.527
-17.488
-11.336
-5.518
0.123
5.44
10.135
14.019
16.685
17.285
15.193
10.257
2.629
-7.219
-18.745
-31.524
-44.974
-58.267
-70.708
-81.838
-91.389
-99.333
-105.668
-110.337
-113.346
-114.776
-114.751
-113.427
-110.952
-107.426
-102.967
-97.728
-91.902
-85.734
-79.428
-73.113
-66.875
-60.754
-54.786
-49.006
-43.421
-38
-32.693
-27.451
-22.235
-17.022
-11.776
-6.446
-0.969
4.734
10.713
16.989
23.57
30.45
37.617
45.057
52.738
60.613
68.633
76.758
84.953
93.188
101.425
109.62
117.728
125.704
133.507
141.1
148.448
155.513
162.262
168.663
174.692
180.325
185.537
190.303
194.599
198.401
201.689
204.444
206.65
208.291
209.358
209.844
209.745
209.063
207.802
205.968
203.569
200.62
197.136
193.134
188.635
183.661
178.236
172.387
166.142
159.532
152.587
145.338
137.82
130.065
122.109
113.987
105.732
97.38
88.966
80.524
72.089
63.693
55.37
47.15
39.065
31.142
23.41
15.892
8.613
1.592
-5.152
-11.603
-17.747
-23.572
-29.068
-34.228
-39.045
-43.517
-47.641
-51.416
-54.846
-57.932
-60.681
-63.098
-65.191
-66.971
-68.446
-69.63
-70.535
-71.174
-71.564
-71.719
-71.656
-71.393
-70.947
-70.336
-69.58
-68.698
-67.708
-66.629
-65.48
-64.279
-63.045
-61.795
-60.545
-59.312
-58.111
-56.957
-55.863
-54.843
-53.91
-53.073
-52.345
-51.733
-51.246
-50.891
-50.673
-50.597
-50.667
-50.884
-51.25
-51.763
-52.423
-53.227
-54.171
-55.249
-56.457
-57.786
-59.229
-60.777
-62.419
-64.146
-65.946
-67.807
-69.719
-71.667
-73.642
-75.629
-77.617
-79.593
-81.546
-83.463
-85.332
-87.144
-88.887
-90.552
-92.129
-93.611
-94.991
-96.263
-97.422
-98.465
-99.388
-100.192
-100.875
-101.439
-101.885
-102.217
-102.438
-102.553
-102.569
-102.49
-102.325
-102.082
-101.767
-101.39
-100.96
-100.485
-99.973
-99.432
-98.872
-98.298
-97.72
-97.143
-96.573
-96.016
-95.477
-94.96
-94.468
-94.003
-93.567
-93.157
-92.775
-92.416
-92.078
-91.754
-91.44
-91.129
-90.812
-90.484
-90.136
-89.757
-89.34
-88.874
-88.352
-87.764
-87.103
-86.358
-85.523
-84.591
-83.557
-82.417
-81.17
-79.812
-78.347
-76.781
-75.119
-73.369
-71.54
-69.64
-67.678
-65.668
-63.626
-61.564
-59.497
-57.44
-55.41
-53.431
-51.525
-49.709
-47.999
-46.407
-44.948
-43.638
-42.492
-41.518
-40.723
-40.113
-39.698
-39.497
-39.519
-39.768
-40.24
-40.926
-41.813
-42.886
-44.122
-45.487
-46.948
-48.469
-50.02
-51.571
-53.088
-54.533
-55.873
-57.09
-58.161
-59.059
-59.747
-60.173
-60.331
-60.287
-60.083
-59.722
-59.278
-58.857
-58.707
-59.291
-60.871
-63.437
-67.001
-71.546
-76.865
-82.685
-88.234
-92.101
-93.326
-91.533
-86.521
-78.476
-67.891
-55.349
-42.291
-31.323
-24.72
-24.017
-30.186
-42.212
-57.486
-73.771
-89.065
-103.887
-120.438
-137.104
-147.229
-137.45
-95.003
-17.131
89.906
211.394
335.301
459.078
581.045
697.175
795.516
858.816
878.111
855.842
804.828
739.93
668.147
589.751
500.872
399.375
288.799
174.729
62.873
-42.035
-137.142
-220.49
-290.008
-344.29
-383.423
-407.621
-417.383
-413.96
-398.682
-373.601
-341.692
-305.575
-267.08
-228.05
-190.227
-155.373
-125.231
-100.4
-80.509
-65.012
-53.32
-44.806
-38.633
-33.33
-27.482
-20.595
-12.747
-4.345
4.081
12.226
19.579
25.137
28.079
28.081
25.202
19.916
12.735
3.975
-5.903
-16.255
-26.474
-35.998
-44.477
-51.822
-57.984
-62.911
-66.586
-68.991
-70.163
-70.203
-69.212
-67.292
-64.522
-60.947
-56.663
-51.8
-46.523
-41.041
-35.501
-29.979
-24.544
-19.239
-14.102
-9.175
-4.452
0.117
4.574
8.956
13.289
17.574
21.841
26.135
30.507
35.02
39.709
44.584
49.655
54.922
60.379
66.016
71.805
77.699
83.66
89.659
95.666
101.658
107.604
113.467
119.212
124.806
130.217
135.416
140.377
145.072
149.475
153.567
157.329
160.747
163.806
166.49
168.785
170.675
172.149
173.198
173.813
173.989
173.721
173.012
171.863
170.28
168.272
165.848
163.02
159.803
156.213
152.267
147.986
143.389
138.501
133.344
127.944
122.326
116.515
110.537
104.42
98.189
91.872
85.493
79.079
72.656
66.249
59.882
53.579
47.361
41.251
35.267
29.428
23.751
18.25
12.94
7.832
2.934
-1.744
-6.195
-10.415
-14.401
-18.149
-21.66
-24.934
-27.972
-30.779
-33.358
-35.715
-37.855
-39.787
-41.517
-43.054
-44.407
-45.585
-46.599
-47.458
-48.174
-48.756
-49.218
-49.568
-49.819
-49.98
-50.063
-50.076
-50.029
-49.931
-49.789
-49.613
-49.409
-49.184
-48.945
-48.698
-48.448
-48.202
-47.963
-47.735
-47.522
-47.328
-47.154
-47.002
-46.875
-46.773
-46.696
-46.646
-46.621
-46.62
-46.642
-46.685
-46.746
-46.822
-46.91
-47.006
-47.106
-47.206
-47.303
-47.393
-47.473
-47.538
-47.585
-47.611
-47.61
-47.581
-47.518
-47.418
-47.278
-47.093
-46.86
-46.577
-46.24
-45.847
-45.395
-44.881
-44.305
-43.665
-42.96
-42.19
-41.355
-40.456
-39.496
-38.476
-37.402
-36.275
-35.101
-33.884
-32.629
-31.344
-30.032
-28.7
-27.354
-26
-24.647
-23.301
-21.969
-20.658
-19.377
-18.132
-16.932
-15.783
-14.693
-13.667
-12.713
-11.837
-11.045
-10.344
-9.74
-9.236
-8.838
-8.549
-8.373
-8.313
-8.368
-8.54
-8.828
-9.232
-9.751
-10.384
-11.129
-11.983
-12.944
-14.01
-15.178
-16.445
-17.808
-19.261
-20.802
-22.427
-24.134
-25.919
-27.781
-29.719
-31.736
-33.835
-36.017
-38.286
-40.644
-43.094
-45.638
-48.276
-51.007
-53.829
-56.741
-59.746
-62.847
-66.047
-69.345
-72.742
-76.235
-79.823
-83.507
-87.277
-91.118
-95.021
-98.981
-103.004
-107.107
-111.299
-115.577
-119.933
-124.359
-128.839
-133.355
-137.87
-142.319
-146.643
-150.788
-154.712
-158.393
-161.786
-164.828
-167.441
-169.536
-171.048
-171.947
-172.208
-171.811
-170.768
-169.11
-166.898
-164.274
-161.384
-158.374
-155.405
-152.593
-150.044
-147.955
-146.603
-146.213
-146.857
-148.343
-150.27
-152.301
-154.19
-155.563
-155.854
-154.517
-151.35
-146.959
-142.506
-138.929
-137.028
-137.578
-141.248
-148.677
-158.52
-166.572
-168.949
-163.321
-151.484
-138.567
-124.645
-103.102
-61.46
12.954
122.195
256.262
396.868
526.1
633.703
717.015
778.644
820.332
840.693
837.518
808.399
752.824
673.224
573.575
458.738
334.432
206.341
79.358
-41.467
-151.194
-245.764
-322.037
-378.604
-415.944
-435.396
-438.435
-427.399
-405.541
-376.603
-344.434
-311.728
-280.086
-250.886
-225.694
-205.685
-190.936
-180.627
-173.493
-168.619
-165.548
-163.534
-161.152
-157.038
-150.61
-141.928
-131.537
-120.044
-107.788
-95.387
-83.995
-74.612
-67.815
-63.773
-62.16
-62.524
-64.533
-67.74
-71.545
-75.445
-79.014
-81.998
-84.383
-86.18
-87.375
-87.938
-87.784
-86.84
-85.077
-82.486
-79.092
-74.946
-70.11
-64.676
-58.769
-52.525
-46.103
-39.611
-33.091
-26.573
-20.068
-13.606
-7.259
-1.065
4.973
10.856
16.596
22.204
27.677
33.046
38.366
43.699
49.111
54.639
60.289
66.068
71.979
78.023
84.201
90.496
96.868
103.295
109.77
116.264
122.733
129.129
135.385
141.463
147.366
153.06
158.472
163.602
168.51
173.241
177.852
182.329
186.532
190.41
194.07
197.355
199.778
201.237
201.851
201.546
200.826
198.709
192.305
182.328
171.398
163.973
168.308
183.669
201.862
214.64
210.299
188.45
160.139
133.888
119.006
116.879
119.281
121.259
119.346
112.631
104.525
96.533
88.589
80.832
72.781
64.356
56.039
47.991
40.161
32.588
25.317
18.35
11.689
5.307
-0.86
-6.824
-12.539
-17.989
-23.175
-28.093
-32.748
-37.142
-41.27
-45.135
-48.753
-52.133
-55.291
-58.238
-60.987
-63.552
-65.947
-68.189
-70.292
-72.269
-74.138
-75.91
-77.6
-79.221
-80.786
-82.306
-83.793
-85.256
-86.704
-88.144
-89.582
-91.022
-92.467
-93.918
-95.377
-96.841
-98.307
-99.773
-101.232
-102.68
-104.11
-105.512
-106.874
-108.187
-109.439
-110.619
-111.723
-112.732
-113.631
-114.422
-115.104
-115.674
-116.137
-116.473
-116.655
-116.691
-116.595
-116.32
-115.831
-115.101
-114.091
-112.832
-111.389
-109.729
-107.793
-105.752
-103.812
-101.86
-99.917
-98.03
-95.785
-94.338
-94.817
-95.642
-96.345
-94.014
-85.164
-73.684
-62.169
-54.479
-55.909
-61.798
-68.199
-72.409
-69.955
-64.052
-57.959
-52.406
-49.383
-47.745
-46.018
-44.488
-42.968
-41.556
-40.554
-39.761
-39.018
-38.37
-37.823
-37.352
-36.95
-36.621
-36.359
-36.179
-36.104
-36.106
-36.156
-36.244
-36.354
-36.47
-36.577
-36.658
-36.693
-36.669
-36.573
-36.392
-36.112
-35.72
-35.205
-34.554
-33.758
-32.805
-31.689
-30.402
-28.94
-27.299
-25.476
-23.473
-21.291
-18.934
-16.408
-13.718
-10.874
-7.884
-4.762
-1.523
1.817
5.239
8.723
12.247
15.781
19.298
22.772
26.176
29.484
32.668
35.698
38.546
41.189
43.602
45.763
47.647
49.226
50.476
51.379
51.921
52.094
51.887
51.287
50.291
48.9
47.121
44.962
42.431
39.515
36.217
32.549
28.529
24.189
19.563
14.681
9.589
4.349
-0.978
-6.326
-11.634
-16.857
-21.941
-26.838
-31.508
-35.896
-39.948
-43.605
-46.789
-49.461
-51.642
-53.388
-54.751
-55.738
-56.403
-56.953
-57.764
-59.211
-61.478
-64.436
-67.938
-72.141
-77.088
-82.441
-87.308
-90.409
-90.93
-88.888
-84.581
-77.882
-68.716
-57.545
-46.014
-36.654
-31.189
-30.4
-34.387
-42.936
-56.195
-72.456
-86.341
-93.609
-91.973
-81.37
-67.42
-49.965
-19.625
33.259
120.682
245.885
393.227
542.659
673.996
770.199
831.455
866.177
880.299
880.059
864.158
825.217
760.635
670.974
560.074
435.686
304.604
172.115
43.062
-77.996
-186.532
-278.85
-352.474
-406.113
-440.051
-455.218
-452.631
-434.587
-404.358
-365.27
-320.694
-273.74
-226.704
-181.874
-142.074
-109.235
-84.005
-66.324
-55.395
-50.158
-49.724
-52.73
-56.879
-59.953
-60.662
-58.534
-53.849
-47.194
-39.051
-30.051
-21.337
-14.246
-9.566
-7.488
-7.737
-9.704
-12.846
-16.767
-20.95
-24.785
-27.875
-29.971
-30.944
-30.866
-29.797
-27.74
-24.771
-20.962
-16.373
-11.13
-5.384
0.711
6.968
13.257
19.513
25.664
31.664
37.474
43.04
48.356
53.444
58.307
62.95
67.374
71.58
75.603
79.514
83.387
87.303
91.321
95.473
99.788
104.287
108.979
113.869
118.943
124.173
129.543
135.039
140.65
146.365
152.163
158.012
163.878
169.728
175.524
181.234
186.822
192.252
197.493
202.514
207.288
211.792
215.998
219.878
223.403
226.543
229.272
231.564
233.396
234.745
235.592
235.922
235.724
234.989
233.715
231.898
229.541
226.648
223.228
219.292
214.853
209.929
204.538
198.705
192.453
185.811
178.808
171.477
163.852
155.968
147.859
139.564
131.117
122.558
113.923
105.25
96.576
87.939
79.373
70.915
62.597
54.453
46.511
38.799
31.343
24.163
17.281
10.713
4.475
-1.421
-6.967
-12.154
-16.977
-21.434
-25.526
-29.253
-32.622
-35.637
-38.309
-40.646
-42.661
-44.366
-45.776
-46.907
-47.773
-48.394
-48.787
-48.97
-48.962
-48.784
-48.454
-47.993
-47.418
-46.75
-46.005
-45.202
-44.357
-43.486
-42.602
-41.72
-40.852
-40.009
-39.203
-38.441
-37.734
-37.087
-36.506
-35.997
-35.563
-35.206
-34.93
-34.734
-34.618
-34.584
-34.628
-34.749
-34.945
-35.213
-35.548
-35.946
-36.403
-36.913
-37.471
-38.071
-38.707
-39.374
-40.065
-40.776
-41.5
-42.232
-42.967
-43.701
-44.428
-45.145
-45.847
-46.532
-47.195
-47.833
-48.445
-49.029
-49.582
-50.104
-50.594
-51.051
-51.475
-51.866
-52.225
-52.551
-52.846
-53.111
-53.348
-53.556
-53.739
-53.899
-54.038
-54.158
-54.261
-54.35
-54.426
-54.493
-54.551
-54.602
-54.648
-54.691
-54.732
-54.772
-54.813
-54.856
-54.901
-54.949
-54.999
-55.053
-55.108
-55.163
-55.217
-55.267
-55.312
-55.35
-55.379
-55.396
-55.399
-55.386
-55.354
-55.301
-55.223
-55.119
-54.986
-54.819
-54.619
-54.383
-54.11
-53.797
-53.445
-53.054
-52.624
-52.157
-51.653
-51.112
-50.536
-49.927
-49.289
-48.623
-47.935
-47.229
-46.514
-45.801
-45.1
-44.424
-43.783
-43.189
-42.653
-42.185
-41.794
-41.484
-41.26
-41.129
-41.101
-41.183
-41.382
-41.703
-42.148
-42.724
-43.432
-44.271
-45.235
-46.313
-47.5
-48.8
-50.221
-51.78
-53.489
-55.346
-57.348
-59.493
-61.767
-64.151
-66.608
-69.078
-71.506
-73.85
-76.07
-78.138
-80.006
-81.613
-82.892
-83.774
-84.212
-84.186
-83.678
-82.683
-81.22
-79.319
-77.069
-74.625
-72.128
-69.741
-67.627
-65.907
-64.779
-64.51
-65.284
-67.187
-70.102
-73.649
-77.442
-81.148
-84.307
-86.414
-87.042
-85.947
-83.605
-81.155
-79.73
-80.396
-83.957
-90.893
-101.621
-115.962
-132.163
-147.259
-157.87
-160.338
-151.845
-130.142
-92.609
-37.736
33.748
119.445
215.262
315.878
416.763
513.147
598.615
667.374
714.995
738.094
735.803
708.855
657.38
582.675
488.559
379.536
260.831
138.308
16.18
-101.994
-211.458
-307.897
-388.386
-450.812
-494.529
-520.303
-528.397
-519.018
-493.95
-455.94
-408.224
-354.466
-297.942
-241.198
-187.163
-139.311
-100.199
-71.092
-52.134
-42.334
-40.243
-44.47
-53.165
-63.686
-73.561
-81.266
-86.16
-88.371
-88.399
-86.737
-84.047
-81.471
-80.251
-80.974
-83.633
-87.922
-93.355
-99.54
-106.168
-112.676
-118.353
-122.787
-125.819
-127.457
-127.883
-127.2
-125.433
-122.736
-119.33
-115.451
-111.355
-107.181
-102.952
-98.714
-94.503
-90.366
-86.384
-82.574
-78.897
-75.339
-71.882
-68.517
-65.25
-62.044
-58.823
-55.507
-52.008
-48.263
-44.245
-39.929
-35.291
-30.322
-25.011
-19.368
-13.428
-7.212
-0.735
5.988
12.945
20.114
27.458
34.942
42.529
50.184
57.87
65.552
73.189
80.745
88.189
95.488
102.614
109.537
116.221
122.635
128.744
134.516
139.921
144.929
149.512
153.644
157.305
160.475
163.139
165.287
166.907
167.994
168.546
168.561
168.042
166.994
165.426
163.348
160.773
157.718
154.201
150.242
145.866
141.097
135.962
130.49
124.71
118.653
112.349
105.831
99.13
92.28
85.312
78.259
71.151
64.02
56.896
49.806
42.778
35.836
29.003
22.3
15.747
9.36
3.154
-2.858
-8.664
-14.256
-19.626
-24.768
-29.677
-34.353
-38.793
-42.999
-46.972
-50.717
-54.237
-57.539
-60.629
-63.514
-66.203
-68.702
-71.022
-73.171
-75.158
-76.992
-78.682
-80.238
-81.666
-82.976
-84.175
-85.271
-86.269
-87.176
-87.996
-88.735
-89.394
-89.979
-90.49
-90.929
-91.299
-91.599
-91.83
-91.993
-92.085
-92.108
-92.059
-91.938
-91.743
-91.473
-91.127
-90.704
-90.203
-89.623
-88.966
-88.23
-87.418
-86.529
-85.567
-84.532
-83.429
-82.259
-81.028
-79.738
-78.394
-77.002
-75.567
-74.094
-72.59
-71.061
-69.513
-67.953
-66.388
-64.825
-63.272
-61.735
-60.221
-58.738
-57.292
-55.89
-54.537
-53.239
-52.001
-50.826
-49.72
-48.684
-47.722
-46.833
-46.02
-45.281
-44.614
-44.018
-43.49
-43.026
-42.621
-42.27
-41.968
-41.709
-41.487
-41.295
-41.127
-40.975
-40.833
-40.693
-40.547
-40.386
-40.202
-39.986
-39.728
-39.422
-39.058
-38.628
-38.126
-37.543
-36.874
-36.114
-35.256
-34.297
-33.232
-32.058
-30.776
-29.383
-27.882
-26.275
-24.564
-22.755
-20.854
-18.868
-16.804
-14.669
-12.471
-10.217
-7.917
-5.582
-3.222
-0.848
1.525
3.883
6.206
8.475
10.673
12.78
14.777
16.647
18.373
19.941
21.339
22.557
23.583
24.406
25.013
25.396
25.55
25.469
25.149
24.588
23.786
22.747
21.482
19.992
18.277
16.327
14.123
11.658
8.932
5.944
2.697
-0.796
-4.515
-8.414
-12.422
-16.477
-20.512
-24.474
-28.309
-31.944
-35.305
-38.313
-40.884
-42.975
-44.549
-45.565
-46.006
-45.867
-45.18
-44.075
-42.734
-41.343
-40.123
-39.25
-38.921
-39.445
-41.02
-43.724
-47.501
-52.032
-56.962
-62.065
-67.011
-71.311
-74.67
-76.935
-78.384
-79.973
-82.606
-87.041
-93.868
-103.445
-116.184
-131.864
-148.934
-165.112
-176.48
-178.625
-169.853
-147.988
-112.611
-66.147
-6.058
69.693
161.812
273.418
398.433
523.973
638.3
726.944
782.25
807.434
804.75
778.064
731.043
661.192
569.773
461.259
340.146
214.522
91.253
-24.942
-128.914
-216.906
-286.685
-336.874
-367.898
-381.522
-379.465
-363.921
-337.927
-304.706
-267.695
-230.02
-193.889
-160.995
-132.833
-110.52
-94.413
-84.158
-78.658
-76.503
-76.291
-76.526
-75.999
-73.684
-68.987
-61.958
-53.09
-43.17
-33.197
-24.233
-16.95
-11.754
-8.749
-7.627
-7.962
-9.239
-10.866
-12.272
-13.082
-13.092
-12.213
-10.467
-7.877
-4.444
-0.161
4.943
10.811
17.381
24.526
32.083
39.893
47.785
55.611
63.277
70.714
77.884
84.787
91.433
97.824
103.961
109.807
115.319
120.487
125.307
129.813
134.067
138.115
142.006
145.794
149.514
153.19
156.838
160.448
163.998
167.475
170.872
174.188
177.432
180.606
183.706
186.728
189.662
192.5
195.232
197.841
200.308
202.622
204.768
206.74
208.534
210.142
211.556
212.769
213.771
214.553
215.106
215.42
215.482
215.285
214.821
214.082
213.066
211.77
210.189
208.326
206.179
203.753
201.05
198.075
194.833
191.332
187.58
183.586
179.359
174.913
170.258
165.408
160.379
155.185
149.843
144.37
138.781
133.094
127.327
121.495
115.615
109.705
103.78
97.857
91.952
86.081
80.258
74.496
68.808
63.207
57.703
52.305
47.023
41.865
36.837
31.945
27.196
22.594
18.144
13.848
9.711
5.733
1.918
-1.734
-5.22
-8.541
-11.695
-14.682
-17.503
-20.156
-22.642
-24.96
-27.111
-29.095
-30.911
-32.56
-34.041
-35.354
-36.498
-37.474
-38.282
-38.92
-39.389
-39.69
-39.821
-39.785
-39.581
-39.21
-38.675
-37.977
-37.118
-36.102
-34.932
-33.612
-32.149
-30.546
-28.811
-26.951
-24.973
-22.887
-20.699
-18.422
-16.064
-13.636
-11.15
-8.618
-6.052
-3.464
-0.868
1.723
4.296
6.837
9.334
11.772
14.139
16.423
18.611
20.692
22.656
24.491
26.189
27.741
29.14
30.379
31.453
32.357
33.088
33.644
34.024
34.228
34.257
34.113
33.801
33.323
32.686
31.896
30.96
29.887
28.685
27.365
25.937
24.414
22.806
21.128
19.391
17.611
15.8
13.973
12.144
10.327
8.535
6.782
5.08
3.443
1.882
0.41
-0.963
-2.226
-3.37
-4.384
-5.259
-5.988
-6.564
-6.981
-7.232
-7.314
-7.223
-6.955
-6.51
-5.885
-5.082
-4.1
-2.943
-1.613
-0.116
1.543
3.357
5.318
7.415
9.639
11.977
14.419
16.95
19.558
22.23
24.951
27.705
30.477
33.251
36.009
38.733
41.399
43.987
46.475
48.842
51.066
53.128
55.008
56.691
58.165
59.419
60.44
61.215
61.732
61.983
61.961
61.665
61.09
60.237
59.112
57.726
56.096
54.236
52.152
49.844
47.3
44.518
41.507
38.278
34.845
31.233
27.468
23.602
19.706
15.848
12.091
8.487
5.077
1.923
-0.903
-3.317
-5.221
-6.543
-7.244
-7.289
-6.663
-5.374
-3.425
-0.888
2.086
5.364
8.786
12.212
15.552
18.621
21.136
22.864
23.682
23.633
22.991
22.078
21.184
20.775
21.475
23.817
27.963
33.579
39.936
45.831
49.962
51.063
47.432
39.316
29.575
20.999
16.754
15.865
12.438
4.626
-4.959
-3.529
30.055
109.938
242.304
415.14
600.66
771.435
899.993
974.904
1002.073
992.616
964.485
927.684
881.156
821.193
741.789
642.224
528.04
406.566
285.254
169.405
63.251
-29.567
-106.7
-166.382
-208.422
-234.425
-246.022
-245.407
-235.884
-220.402
-201.534
-181.46
-161.006
-140.195
-119.05
-97.377
-74.87
-51.724
-28.584
-6.276
14.103
31.429
44.772
53.568
57.747
57.877
55.253
51.132
46.348
41.647
37.618
34.551
32.567
31.357
30.062
28.1
25.385
21.913
17.854
13.413
8.647
3.851
-0.431
-3.822
-6.1
-7.18
-7.181
-6.189
-4.219
-1.385
2.141
6.158
10.397
14.694
18.994
23.246
27.435
31.534
35.489
39.282
42.919
46.397
49.723
52.893
55.89
58.728
61.443
64.091
66.762
69.518
72.39
75.405
78.573
81.898
85.393
89.047
92.835
96.74
100.751
104.856
109.057
113.341
117.69
122.081
126.485
130.875
135.227
139.515
143.716
147.805
151.762
155.57
159.217
162.688
165.967
169.038
171.881
174.481
176.823
178.891
180.67
182.149
183.318
184.169
184.699
184.905
184.785
184.342
183.577
182.497
181.107
179.416
177.433
175.169
172.638
169.854
166.832
163.589
160.142
156.512
152.718
148.781
144.719
140.555
136.307
131.996
127.641
123.263
118.882
114.515
110.181
105.899
101.685
97.556
93.526
89.608
85.814
82.154
78.637
75.269
72.058
69.007
66.119
63.398
60.845
58.46
56.241
54.188
52.298
50.568
48.994
47.572
46.297
45.163
44.166
43.298
42.556
41.931
41.418
41.01
40.702
40.486
40.355
40.304
40.326
40.415
40.565
40.771
41.027
41.33
41.676
42.06
42.48
42.933
43.417
43.93
44.469
45.033
45.621
46.229
46.857
47.503
48.164
48.839
49.525
50.221
50.923
51.63
52.338
53.045
53.748
54.443
55.127
55.797
56.451
57.085
57.695
58.278
58.832
59.351
59.832
60.27
60.661
61
61.281
61.499
61.649
61.724
61.721
61.633
61.456
61.185
60.814
60.339
59.756
59.061
58.249
57.318
56.264
55.085
53.777
52.338
50.766
49.06
47.216
45.234
43.11
40.843
38.431
35.873
33.167
30.312
27.309
24.155
20.853
17.402
13.802
10.056
6.162
2.123
-2.062
-6.389
-10.86
-15.471
-20.223
-25.113
-30.14
-35.301
-40.595
-46.021
-51.577
-57.263
-63.076
-69.015
-75.081
-81.27
-87.582
-94.015
-100.565
-107.232
-114.013
-120.906
-127.91
-135.025
-142.248
-149.579
-157.019
-164.568
-172.225
-179.992
-187.865
-195.846
-203.934
-212.13
-220.432
-228.843
-237.363
-245.994
-254.744
-263.614
-272.609
-281.732
-290.984
-300.367
-309.881
-319.523
-329.287
-339.17
-349.167
-359.273
-369.485
-379.796
-390.198
-400.682
-411.236
-421.847
-432.499
-443.176
-453.855
-464.523
-475.166
-485.779
-496.364
-506.919
-517.428
-527.88
-538.259
-548.538
-558.69
-568.668
-578.408
-587.857
-596.959
-605.661
-613.92
-621.677
-628.87
-635.443
-641.33
-646.481
-650.872
-654.488
-657.319
-659.375
-660.691
-661.356
-661.518
-661.347
-661.016
-660.685
-660.547
-660.861
-661.815
-663.495
-665.829
-668.525
-671.267
-673.797
-675.755
-676.706
-676.367
-674.662
-672.063
-669.635
-668.379
-669.155
-672.67
-679.359
-689.508
-702.846
-717.65
-731.077
-740.049
-741.319
-732.367
-711.252
-675.719
-624.506
-558.467
-479.978
-392.858
-302.061
-211.746
-126.066
-50.532
9.988
51.807
72.058
70.094
46.78
2.504
-61.563
-142.396
-236.656
-340.304
-448.456
-557.36
-663.719
-763.538
-853.302
-930.517
-993.142
-1040.208
-1072.266
-1090.119
-1094.969
-1088.852
-1073.832
-1051.623
-1023.976
-992.644
-958.635
-922.604
-885.167
-846.642
-807.646
-769.504
-733.468
-700.169
-670.282
-644.447
-622.941
-605.957
-593.132
-583.201
-574.925
-567.646
-560.832
-554.129
-547.491
-540.892
-534.638
-529.549
-526.219
-524.772
-525.173
-527.16
-530.3
-534.205
-538.339
-541.967
-544.587
-545.953
-545.926
-544.545
-541.87
-537.91
-532.769
-526.636
-519.666
-512.001
-503.768
-495.042
-485.961
-476.728
-467.508
-458.446
-449.64
-441.118
-432.914
-425.058
-417.548
-410.36
-403.454
-396.772
-390.269
-383.916
-377.671
-371.488
-365.306
-359.046
-352.653
-346.091
-339.338
-332.391
-325.25
-317.917
-310.413
-302.77
-295.021
-287.198
-279.329
-271.432
-263.536
-255.676
-247.885
-240.202
-232.66
-225.289
-218.116
-211.172
-204.481
-198.068
-191.953
-186.151
-180.679
-175.556
-170.799
-166.426
-162.449
-158.88
-155.73
-153.006
-150.714
-148.854
-147.425
-146.421
-145.835
-145.659
-145.881
-146.487
-147.46
-148.783
-150.434
-152.395
-154.64
-157.144
-159.882
-162.826
-165.949
-169.222
-172.617
-176.106
-179.659
-183.25
-186.849
-190.43
-193.966
-197.432
-200.803
-204.056
-207.168
-210.12
-212.892
-215.467
-217.828
-219.962
-221.857
-223.501
-224.887
-226.005
-226.852
-227.421
-227.71
-227.717
-227.443
-226.886
-226.05
-224.937
-223.551
-221.897
-219.981
-217.809
-215.387
-212.723
-209.823
-206.697
-203.35
-199.793
-196.031
-192.074
-187.93
-183.605
-179.108
-174.446
-169.626
-164.656
-159.542
-154.293
-148.914
-143.413
-137.798
-132.075
-126.252
-120.337
-114.337
-108.259
-102.113
-95.904
-89.641
-83.332
-76.984
-70.604
-64.201
-57.781
-51.352
-44.922
-38.498
-32.087
-25.697
-19.335
-13.009
-6.725
-0.49
5.687
11.8
17.842
23.807
29.688
35.479
41.176
46.773
52.266
57.653
62.93
68.096
73.15
78.093
82.923
87.643
92.254
96.758
101.16
105.461
109.666
113.779
117.804
121.747
125.612
129.405
133.131
136.796
140.405
143.966
147.485
150.968
154.422
157.854
161.273
164.685
168.096
171.516
174.95
178.405
181.889
185.407
188.966
192.572
196.229
199.943
203.719
207.562
211.474
215.461
219.527
223.675
227.909
232.234
236.653
241.171
245.794
250.527
255.375
260.344
265.438
270.664
276.027
281.533
287.186
292.99
298.951
305.072
311.358
317.814
324.443
331.247
338.23
345.392
352.739
360.269
367.985
375.884
383.966
392.231
400.677
409.301
418.099
427.064
436.193
445.476
454.906
464.47
474.15
483.931
493.792
503.717
513.685
523.675
533.664
543.631
553.562
563.439
573.244
582.955
592.546
601.996
611.285
620.393
629.297
637.977
646.411
654.585
662.496
670.134
677.486
684.53
691.234
697.576
703.548
709.142
714.354
719.192
723.665
727.811
731.688
735.349
738.84
742.195
745.434
748.595
751.731
754.9
758.162
761.555
765.1
768.823
772.725
776.776
780.912
785.031
789.008
792.739
796.119
799.04
801.392
803.048
803.896
803.818
802.637
800.296
796.873
792.558
787.805
783.163
779.1
776.201
775.164
776.324
779.648
784.754
790.551
795.862
799.923
801.933
801.16
797.687
792.428
786.978
784.255
787.765
800.204
824.114
862.178
914.237
978.877
1056.039
1142.227
1235.578
1335.13
1431.5
1516.505
1581.404
1616.745
1624.99
1610.162
1576.323
1529.53
1468.696
1393.801
1307.708
1212.446
1113.78
1016.735
923.907
838.843
764.043
700.964
651.513
616.58
595.479
587.603
592.12
607.469
632.424
665.568
704.508
746.924
791.422
836.677
881.316
923.87
961.958
993.385
1017.305
1033.585
1041.948
1042.132
1034.207
1018.814
997.864
973.768
947.957
921.079
893.594
865.822
838.047
810.442
782.442
752.967
721.532
688.173
653.245
617.465
581.401
545.434
510.147
476.2
443.984
413.705
385.343
358.616
333.289
309.142
285.882
263.291
241.177
219.35
197.664
175.961
154.126
132.118
109.935
87.63
65.309
43.104
21.205
-0.135
-20.667
-40.123
-58.201
-74.669
-89.329
-102.008
-112.601
-121.011
-127.163
-131.037
-132.64
-132.016
-129.247
-124.433
-117.68
-109.12
-98.902
-87.214
-74.31
-60.432
-45.786
-30.564
-14.905
1.068
17.202
33.352
49.403
65.242
80.757
95.831
110.278
123.891
136.513
148.024
158.376
167.562
175.56
182.359
187.945
192.286
195.38
197.247
197.858
197.186
195.222
191.941
187.426
181.854
175.369
168.133
160.279
151.875
143.009
133.774
124.234
114.499
104.686
94.887
85.273
76.079
67.57
60.101
53.967
49.324
46.304
44.988
45.427
47.744
52.037
58.356
66.779
77.355
90.115
105.145
122.444
141.861
163.152
185.919
209.729
234.271
259.276
284.499
309.732
334.699
359.12
382.787
405.46
426.859
446.672
464.485
479.918
492.762
502.92
510.436
515.433
517.967
518.08
515.841
511.314
504.607
495.848
485.114
472.506
458.217
442.512
425.766
408.387
390.656
372.774
354.877
337.034
319.342
301.896
284.735
267.892
251.398
235.277
219.594
204.411
189.721
175.467
161.53
147.757
134.062
120.405
106.765
93.153
79.583
66.078
52.702
39.535
26.638
14.062
1.838
-10.019
-21.465
-32.444
-42.889
-52.725
-61.899
-70.384
-78.158
-85.213
-91.554
-97.194
-102.171
-106.535
-110.33
-113.595
-116.367
-118.68
-120.573
-122.093
-123.282
-124.189
-124.857
-125.331
-125.653
-125.867
-126.012
-126.127
-126.244
-126.395
-126.609
-126.918
-127.35
-127.934
-128.696
-129.657
-130.838
-132.259
-133.934
-135.876
-138.093
-140.59
-143.37
-146.433
-149.776
-153.392
-157.274
-161.411
-165.791
-170.4
-175.222
-180.24
-185.435
-190.789
-196.28
-201.886
-207.585
-213.355
-219.171
-225.009
-230.844
-236.654
-242.414
-248.1
-253.691
-259.164
-264.499
-269.676
-274.678
-279.487
-284.088
-288.468
-292.614
-296.518
-300.171
-303.567
-306.702
-309.573
-312.181
-314.526
-316.612
-318.446
-320.033
-321.386
-322.519
-323.447
-324.187
-324.758
-325.18
-325.475
-325.665
-325.77
-325.812
-325.808
-325.782
-325.754
-325.75
-325.797
-325.916
-326.133
-326.469
-326.943
-327.579
-328.393
-329.392
-330.583
-331.978
-333.595
-335.465
-337.613
-340.051
-342.785
-345.815
-349.126
-352.702
-356.506
-360.473
-364.543
-368.661
-372.778
-376.869
-380.905
-384.831
-388.584
-392.077
-395.233
-398.018
-400.403
-402.367
-403.937
-405.162
-406.146
-407.057
-408.032
-409.191
-410.664
-412.54
-414.935
-418.006
-421.88
-426.743
-432.856
-440.274
-448.878
-458.448
-468.45
-478.282
-487.447
-495.214
-500.7
-503.514
-503.814
-502.101
-499.525
-497.508
-496.773
-497.901
-502.031
-508.147
-514.107
-519.177
-520.263
-516.291
-507.856
-489.032
-454.769
-399.821
-319.361
-219.687
-108.888
4.726
112.081
211.262
299.046
370.434
422.656
450.963
453.272
431.004
384.503
315.46
227.71
124.942
11.948
-105.58
-223.821
-339.547
-448.442
-546.791
-631.52
-699.893
-751.269
-786.357
-805.489
-809.574
-800.559
-780.817
-753.845
-723.478
-692.186
-661.904
-634.296
-610.446
-591.37
-577.445
-567.625
-560.367
-554.489
-548.769
-542.595
-535.761
-527.623
-517.991
-507.469
-496.92
-487.41
-480.068
-475.344
-473.327
-474.252
-478.025
-484.314
-492.697
-502.396
-512.573
-522.699
-532.38
-541.305
-549.306
-556.167
-561.662
-565.721
-568.326
-569.468
-569.179
-567.462
-564.34
-559.91
-554.313
-547.739
-540.371
-532.373
-523.91
-515.11
-506.069
-496.887
-487.646
-478.396
-469.185
-460.036
-450.948
-441.933
-432.99
-424.101
-415.242
-406.372
-397.444
-388.413
-379.235
-369.879
-360.338
-350.607
-340.694
-330.617
-320.395
-310.056
-299.641
-289.183
-278.711
-268.258
-257.854
-247.534
-237.337
-227.302
-217.469
-207.874
-198.551
-189.531
-180.84
-172.503
-164.544
-156.979
-149.824
-143.094
-136.804
-130.968
-125.6
-120.712
-116.311
-112.404
-108.995
-106.086
-103.675
-101.756
-100.32
-99.358
-98.856
-98.799
-99.173
-99.957
-101.132
-102.676
-104.567
-106.78
-109.291
-112.071
-115.094
-118.33
-121.752
-125.331
-129.039
-132.848
-136.731
-140.661
-144.612
-148.56
-152.479
-156.349
-160.146
-163.85
-167.442
-170.906
-174.226
-177.389
-180.383
-183.199
-185.829
-188.268
-190.512
-192.558
-194.406
-196.056
-197.51
-198.771
-199.843
-200.731
-201.441
-201.979
-202.355
-202.575
-202.648
-202.585
-202.393
-202.082
-201.662
-201.141
-200.529
-199.833
-199.063
-198.225
-197.326
-196.374
-195.373
-194.328
-193.244
-192.123
-190.967
-189.778
-188.556
-187.301
-186.012
-184.686
-183.321
-181.915
-180.463
-178.962
-177.409
-175.798
-174.125
-172.385
-170.574
-168.686
-166.716
-164.66
-162.512
-160.268
-157.923
-155.474
-152.916
-150.248
-147.467
-144.57
-141.558
-138.43
-135.187
-131.829
-128.36
-124.782
-121.101
-117.321
-113.448
-109.489
-105.452
-101.345
-97.178
-92.959
-88.699
-84.408
-80.095
-75.772
-71.448
-67.135
-62.843
-58.583
-54.366
-50.202
-46.103
-42.078
-38.138
-34.292
-30.549
-26.918
-23.406
-20.021
-16.768
-13.652
-10.678
-7.849
-5.167
-2.632
-0.244
1.999
4.102
6.068
7.903
9.615
11.211
12.701
14.094
15.4
16.63
17.794
18.905
19.974
21.014
22.037
23.056
24.084
25.136
26.224
27.363
28.565
29.843
31.208
32.674
34.252
35.95
37.779
39.745
41.857
44.12
46.539
49.116
51.851
54.742
57.788
60.983
64.321
67.794
71.39
75.098
78.907
82.804
86.775
90.803
94.873
98.966
103.063
107.146
111.19
115.169
119.058
122.829
126.457
129.915
133.178
136.221
139.021
141.561
143.825
145.792
147.445
148.765
149.739
150.355
150.605
150.481
149.978
149.094
147.835
146.213
144.236
141.905
139.216
136.154
132.714
128.908
124.745
120.24
115.413
110.294
104.936
99.415
93.804
88.165
82.551
77.01
71.608
66.43
61.569
57.118
53.142
49.68
46.768
44.427
42.653
41.423
40.646
40.168
39.845
39.508
39.01
38.253
37.041
35.113
32.269
28.379
23.534
18.106
12.429
6.747
1.488
-2.829
-5.759
-6.96
-6.766
-6.297
-6.593
-8.338
-12.42
-19.72
-30.485
-44.836
-60.521
-72.196
-76.641
-72.129
-58.748
-41.466
-19.367
15.081
69.229
155.261
276.113
419.236
568.541
700.094
794.469
848.407
865.751
858.078
837.099
805.614
761.177
698.764
616.17
516.128
404.294
287.988
172.159
60.036
-44.155
-136.803
-214.92
-275.896
-319.05
-345.11
-354.3
-347.243
-326.53
-295.497
-257.799
-217.215
-176.383
-137.11
-101.85
-73.233
-52.254
-38.776
-31.944
-30.229
-32.525
-38.018
-45.045
-51.305
-55.368
-56.63
-55.06
-51.286
-45.778
-38.783
-31.06
-23.8
-17.778
-13.328
-10.428
-8.615
-7.482
-6.819
-6.278
-5.403
-3.918
-1.679
1.323
4.906
8.917
13.276
17.877
22.621
27.448
32.282
37.066
41.768
46.335
50.73
54.939
58.951
62.768
66.406
69.889
73.253
76.543
79.794
83.033
86.277
89.544
92.859
96.247
99.735
103.347
107.104
111.022
115.12
119.408
123.894
128.576
133.452
138.514
143.757
149.175
154.762
160.508
166.401
172.428
178.572
184.813
191.13
197.496
203.883
210.261
216.599
222.867
229.031
235.058
240.917
246.572
251.992
257.143
261.993
266.511
270.667
274.432
277.779
280.683
283.121
285.072
286.519
287.447
287.841
287.694
286.997
285.746
283.942
281.585
278.682
275.24
271.271
266.791
261.816
256.367
250.468
244.146
237.428
230.346
222.931
215.217
207.241
199.038
190.645
182.1
173.442
164.708
155.937
147.166
138.433
129.775
121.225
112.818
104.588
96.563
88.774
81.248
74.01
67.083
60.487
54.243
48.365
42.868
37.764
33.06
28.765
24.882
21.413
18.357
15.712
13.473
11.634
10.186
9.119
8.422
8.081
8.083
8.413
9.053
9.987
11.198
12.667
14.375
16.304
18.436
20.751
23.232
25.861
28.619
31.49
34.456
37.502
40.613
43.774
46.97
50.19
53.421
56.652
59.873
63.075
66.248
69.387
72.484
75.532
78.527
81.464
84.338
87.147
89.886
92.554
95.149
97.668
100.11
102.474
104.757
106.96
109.08
111.117
113.069
114.935
116.713
118.403
120.003
121.512
122.929
124.253
125.482
126.614
127.648
128.583
129.417
130.149
130.779
131.305
131.728
132.046
132.261
132.373
132.383
132.292
132.102
131.816
131.435
130.963
130.404
129.764
129.047
128.26
127.408
126.5
125.543
124.545
123.514
122.458
121.386
120.307
119.231
118.168
117.126
116.116
115.149
114.234
113.381
112.599
111.896
111.28
110.759
110.339
110.026
109.824
109.739
109.773
109.93
110.212
110.618
111.148
111.798
112.565
113.444
114.428
115.509
116.677
117.92
119.23
120.592
121.996
123.425
124.865
126.299
127.709
129.076
130.378
131.591
132.69
133.65
134.447
135.057
135.456
135.621
135.532
135.174
134.53
133.583
132.315
130.709
128.751
126.429
123.733
120.654
117.188
113.328
109.079
104.452
99.45
94.073
88.312
82.149
75.573
68.593
61.209
53.429
45.269
36.75
27.918
18.847
9.599
0.237
-9.184
-18.629
-28.03
-37.3
-46.362
-55.113
-63.482
-71.441
-78.945
-85.951
-92.462
-98.479
-104.067
-109.399
-114.629
-119.913
-125.416
-131.245
-137.598
-144.783
-153.027
-162.437
-172.884
-183.991
-195.447
-207.018
-218.304
-228.777
-237.931
-245.463
-251.896
-258.275
-265.427
-274.35
-285.987
-300.845
-319.562
-341.043
-361.323
-377.777
-388.601
-393.095
-394.135
-388.457
-367.335
-323.358
-248.313
-144.176
-23.775
100.868
217.32
318.33
403.585
471.086
518.439
542.945
540.997
511.757
456.433
377.785
280.392
169.302
50.296
-70.579
-188.154
-297.594
-394.705
-476.564
-540.957
-586.789
-614.826
-626.639
-624.153
-609.97
-586.54
-556.25
-522.11
-486.766
-451.873
-418.912
-388.754
-361.711
-338.474
-319.255
-303.27
-289.627
-277.425
-265.472
-253.253
-240.555
-226.663
-211.367
-195.054
-178.219
-161.817
-147.005
-134.281
-123.892
-116.199
-111.162
-108.561
-108.131
-109.207
-111.045
-113.182
-115.245
-116.977
-118.285
-119.044
-119.119
-118.451
-117.016
-114.798
-111.8
-108.012
-103.436
-98.115
-92.125
-85.609
-78.703
-71.541
-64.272
-56.983
-49.732
-42.577
-35.553
-28.7
-22.061
-15.642
-9.432
-3.424
2.399
8.053
13.557
18.963
24.331
29.719
35.193
40.79
46.527
52.423
58.481
64.701
71.079
77.596
84.219
90.925
97.688
104.485
111.293
118.077
124.798
131.415
137.889
144.18
150.253
156.072
161.602
166.812
171.674
176.163
180.256
183.929
187.158
189.921
192.195
193.961
195.202
195.903
196.052
195.638
194.659
193.111
190.999
188.329
185.109
181.352
177.074
172.294
167.035
161.322
155.18
148.642
141.738
134.503
126.974
119.187
111.181
102.994
94.666
86.235
77.741
69.223
60.719
52.266
43.903
35.663
27.582
19.692
12.026
4.611
-2.525
-9.357
-15.863
-22.025
-27.826
-33.253
-38.294
-42.943
-47.195
-51.049
-54.504
-57.564
-60.236
-62.527
-64.447
-66.009
-67.226
-68.113
-68.687
-68.965
-68.965
-68.708
-68.212
-67.498
-66.587
-65.499
-64.254
-62.872
-61.374
-59.78
-58.107
-56.375
-54.601
-52.802
-50.993
-49.188
-47.401
-45.643
-43.925
-42.254
-40.639
-39.084
-37.595
-36.173
-34.821
-33.539
-32.327
-31.182
-30.103
-29.088
-28.131
-27.23
-26.379
-25.575
-24.811
-24.084
-23.389
-22.72
-22.073
-21.444
-20.829
-20.223
-19.624
-19.029
-18.434
-17.837
-17.238
-16.635
-16.027
-15.415
-14.802
-14.188
-13.579
-12.977
-12.389
-11.819
-11.274
-10.763
-10.291
-9.868
-9.501
-9.199
-8.971
-8.825
-8.772
-8.817
-8.971
-9.241
-9.635
-10.159
-10.82
-11.624
-12.576
-13.681
-14.942
-16.364
-17.95
-19.7
-21.616
-23.699
-25.948
-28.363
-30.941
-33.677
-36.568
-39.607
-42.787
-46.101
-49.539
-53.09
-56.742
-60.485
-64.307
-68.195
-72.135
-76.114
-80.118
-84.134
-88.148
-92.147
-96.117
-100.044
-103.915
-107.719
-111.443
-115.077
-118.61
-122.031
-125.331
-128.504
-131.541
-134.435
-137.18
-139.77
-142.203
-144.475
-146.586
-148.535
-150.327
-151.964
-153.458
-154.817
-156.053
-157.177
-158.2
-159.135
-159.996
-160.792
-161.533
-162.224
-162.877
-163.504
-164.119
-164.732
-165.353
-165.991
-166.655
-167.354
-168.096
-168.878
-169.695
-170.543
-171.427
-172.357
-173.357
-174.437
-175.6
-176.844
-178.166
-179.554
-180.99
-182.437
-183.835
-185.127
-186.265
-187.213
-187.947
-188.424
-188.588
-188.376
-187.724
-186.589
-184.948
-182.782
-180.086
-176.889
-173.243
-169.228
-164.975
-160.617
-156.293
-152.155
-148.336
-144.962
-142.215
-140.328
-139.477
-139.685
-140.761
-142.35
-144.092
-145.623
-146.482
-146.072
-143.88
-139.813
-134.472
-128.846
-123.793
-120.298
-119.39
-121.779
-128.089
-136.996
-144.315
-147.426
-144.882
-136.604
-126.154
-110.51
-80.893
-30.105
50.08
157.36
277.87
399.112
508.058
597.098
667.124
717.641
747.77
756.445
740.969
701.077
638.663
556.864
459.96
352.149
238.035
122.379
9.274
-97.28
-193.75
-277.54
-346.21
-397.967
-432.709
-451.124
-454.397
-444.542
-423.503
-393.389
-357.29
-318.245
-278.478
-240.004
-204.074
-171.27
-142.523
-118.214
-97.63
-79.873
-63.936
-48.57
-33.298
-17.987
-2.103
14.364
30.897
46.937
61.582
73.811
83.22
89.636
92.837
93.014
90.542
85.864
79.688
72.746
65.555
58.564
52.168
46.623
42.14
38.849
36.776
35.914
36.258
37.795
40.481
44.224
48.897
54.358
60.463
67.082
74.057
81.2
88.362
95.42
102.296
108.967
115.407
121.593
127.533
133.254
138.797
144.226
149.597
154.952
160.349
165.848
171.518
177.441
183.674
190.247
197.18
204.474
212.127
220.133
228.468
237.095
245.975
255.07
264.341
273.759
283.281
292.858
302.439
311.968
321.393
330.667
339.739
348.557
357.071
365.234
372.997
380.321
387.161
393.469
399.201
404.313
408.763
412.514
415.532
417.78
419.228
419.853
419.634
418.559
416.621
413.81
410.118
405.561
400.154
393.919
386.882
379.053
370.438
361.082
351.035
340.294
328.869
316.779
304.033
290.71
276.918
262.678
247.983
233.044
218.103
203.106
188.122
173.241
158.122
143.896
131.663
119.981
108.449
94.369
74.502
52.526
30.905
13.286
4.66
0.671
-2.372
-6.993
-17.382
-30.514
-43.323
-55.124
-64.05
-71.177
-77.894
-83.939
-89.495
-94.478
-98.618
-102.113
-105.125
-107.625
-109.623
-111.156
-112.246
-112.905
-113.154
-112.992
-112.415
-111.462
-110.173
-108.569
-106.679
-104.528
-102.138
-99.539
-96.756
-93.811
-90.724
-87.514
-84.199
-80.797
-77.325
-73.798
-70.228
-66.628
-63.008
-59.38
-55.75
-52.128
-48.518
-44.928
-41.36
-37.818
-34.305
-30.823
-27.372
-23.953
-20.566
-17.21
-13.886
-10.593
-7.329
-4.095
-0.89
2.286
5.432
8.547
11.63
14.68
17.693
20.666
23.595
26.475
29.301
32.067
34.765
37.388
39.929
42.378
44.729
46.972
49.098
51.098
52.965
54.689
56.262
57.675
58.921
59.992
60.882
61.585
62.097
62.413
62.531
62.45
62.17
61.693
61.02
60.156
59.106
57.876
56.474
54.908
53.19
51.332
49.346
47.249
45.056
42.786
40.458
38.09
35.702
33.315
30.95
28.627
26.367
24.191
22.119
20.172
18.37
16.732
15.276
14.019
12.975
12.158
11.58
11.251
11.177
11.365
11.816
12.533
13.516
14.764
16.274
18.039
20.051
22.299
24.772
27.453
30.322
33.355
36.526
39.811
43.183
46.614
50.076
53.542
56.987
60.39
63.726
66.969
70.094
73.077
75.896
78.534
80.969
83.186
85.169
86.907
88.395
89.63
90.6
91.292
91.689
91.766
91.508
90.912
89.968
88.675
87.039
85.076
82.828
80.357
77.717
74.963
72.152
69.34
66.606
64.032
61.693
59.665
57.994
56.725
55.897
55.542
55.677
56.277
57.249
58.445
59.694
60.808
61.619
61.902
61.331
59.693
56.919
53.145
48.796
44.282
39.876
35.963
33.033
31.328
30.805
30.813
29.963
26.935
20.778
10.743
-3.634
-22.28
-44.384
-67.76
-88.851
-103.696
-108.51
-100.105
-75.811
-33.587
27.307
105.687
198.383
300.595
406.742
511.367
608.642
692.593
758.148
801.252
819.357
812.057
780.147
725.042
649.652
557.865
453.847
342.745
229.851
119.432
15.563
-78.042
-158.939
-225.114
-275.031
-309.013
-328.401
-334.521
-329.343
-314.845
-292.526
-264.622
-233.621
-200.812
-167.07
-133.384
-100.459
-69.494
-41.908
-17.972
2.56
19.496
32.837
42.76
49.635
54.756
59.454
64.086
68.646
73.143
77.455
81.639
85.559
88.408
89.55
88.922
86.753
83.53
79.713
75.496
71.145
67.171
64.014
62
61.293
61.827
63.516
66.323
70.19
75.026
80.689
86.97
93.648
100.534
107.503
114.484
121.417
128.242
134.896
141.318
147.495
153.445
159.176
164.697
170.01
175.117
180.056
184.901
189.729
194.621
199.631
204.784
210.105
215.61
221.306
227.197
233.265
239.478
245.818
252.269
258.818
265.453
272.152
278.881
285.607
292.296
298.914
305.428
311.807
318.016
324.026
329.81
335.343
340.604
345.568
350.208
354.498
358.409
361.917
364.997
367.626
369.783
371.448
372.608
373.249
373.364
372.946
371.992
370.5
368.472
365.913
362.829
359.23
355.128
350.536
345.473
339.956
334.008
327.652
320.913
313.82
306.4
298.684
290.701
282.485
274.066
265.479
256.757
247.933
239.043
230.118
221.192
212.298
203.466
194.726
186.105
177.629
169.322
161.205
153.3
145.623
138.19
131.015
124.108
117.481
111.139
105.089
99.333
93.872
88.706
83.832
79.247
74.945
70.918
67.157
63.653
60.394
57.367
54.559
51.953
49.535
47.287
45.194
43.237
41.4
39.665
38.014
36.432
34.901
33.405
31.929
30.459
28.98
27.478
25.942
24.36
22.722
21.017
19.237
17.374
15.421
13.372
11.221
8.963
6.595
4.114
1.517
-1.197
-4.028
-6.977
-10.043
-13.223
-16.515
-19.916
-23.423
-27.031
-30.736
-34.534
-38.42
-42.388
-46.432
-50.548
-54.728
-58.967
-63.26
-67.599
-71.979
-76.394
-80.839
-85.306
-89.792
-94.289
-98.792
-103.296
-107.793
-112.279
-116.746
-121.189
-125.601
-129.978
-134.312
-138.597
-142.83
-147.002
-151.11
-155.147
-159.108
-162.988
-166.782
-170.484
-174.091
-177.597
-181.001
-184.298
-187.486
-190.562
-193.523
-196.368
-199.096
-201.704
-204.19
-206.553
-208.793
-210.909
-212.903
-214.775
-216.527
-218.16
-219.679
-221.088
-222.39
-223.59
-224.694
-225.706
-226.635
-227.488
-228.272
-228.997
-229.673
-230.31
-230.918
-231.51
-232.097
-232.69
-233.299
-233.934
-234.608
-235.332
-236.117
-236.974
-237.917
-238.96
-240.122
-241.418
-242.864
-244.475
-246.267
-248.253
-250.444
-252.848
-255.468
-258.308
-261.375
-264.673
-268.206
-271.977
-275.983
-280.222
-284.69
-289.38
-294.284
-299.384
-304.662
-310.103
-315.7
-321.455
-327.379
-333.478
-339.741
-346.159
-352.717
-359.395
-366.166
-372.981
-379.767
-386.456
-392.989
-399.311
-405.382
-411.14
-416.513
-421.421
-425.778
-429.522
-432.631
-435.083
-436.873
-438.02
-438.539
-438.517
-438.127
-437.547
-436.974
-436.586
-436.519
-436.992
-438.319
-440.726
-444.273
-448.774
-453.803
-458.966
-463.953
-468.303
-471.425
-472.922
-472.812
-471.862
-471.316
-472.236
-475.677
-482.737
-494.207
-510.424
-529.589
-547.348
-560.58
-566.834
-565.48
-558.916
-543.955
-514.589
-465.067
-386.974
-279.189
-148.094
-3.394
137.469
255.32
336.878
375.935
376.502
350.869
309.906
258.357
195.4
117.056
21.784
-87.183
-203.433
-320.366
-433.248
-538.036
-631.57
-711.6
-775.796
-823.473
-855.703
-873.357
-877.896
-872.093
-858.714
-840.859
-821.854
-803.318
-785.735
-769.635
-754.981
-741.235
-727.826
-713.648
-697.419
-678.864
-658.336
-636.311
-613.533
-590.664
-568.259
-547.147
-528.25
-512.16
-499.162
-489.271
-482.265
-477.932
-476.105
-476.523
-478.84
-482.701
-487.766
-493.781
-500.588
-508.058
-516.033
-524.31
-532.651
-540.775
-548.418
-555.403
-561.606
-566.948
-571.397
-574.944
-577.616
-579.501
-580.701
-581.289
-581.317
-580.801
-579.752
-578.228
-576.316
-574.141
-571.847
-569.533
-567.264
-565.089
-563.03
-561.096
-559.284
-557.552
-555.844
-554.123
-552.362
-550.554
-548.704
-546.799
-544.813
-542.711
-540.446
-537.991
-535.332
-532.464
-529.388
-526.119
-522.674
-519.09
-515.418
-511.7
-507.973
-504.269
-500.617
-497.048
-493.596
-490.296
-487.182
-484.286
-481.634
-479.254
-477.171
-475.406
-473.975
-472.889
-472.154
-471.773
-471.75
-472.086
-472.781
-473.83
-475.226
-476.959
-479.018
-481.389
-484.052
-486.989
-490.172
-493.577
-497.176
-500.937
-504.828
-508.816
-512.865
-516.94
-521.005
-525.022
-528.955
-532.769
-536.428
-539.898
-543.146
-546.138
-548.846
-551.24
-553.293
-554.981
-556.284
-557.181
-557.657
-557.698
-557.294
-556.436
-555.121
-553.344
-551.107
-548.411
-545.263
-541.671
-537.645
-533.2
-528.349
-523.111
-517.505
-511.552
-505.275
-498.697
-491.843
-484.738
-477.407
-469.877
-462.175
-454.326
-446.357
-438.294
-430.162
-421.985
-413.788
-405.592
-397.419
-389.287
-381.215
-373.22
-365.317
-357.518
-349.836
-342.28
-334.86
-327.582
-320.451
-313.471
-306.644
-299.97
-293.449
-287.077
-280.852
-274.768
-268.821
-263.004
-257.31
-251.732
-246.262
-240.892
-235.613
-230.417
-225.296
-220.24
-215.243
-210.295
-205.39
-200.521
-195.68
-190.863
-186.065
-181.28
-176.504
-171.735
-166.968
-162.202
-157.435
-152.664
-147.888
-143.108
-138.321
-133.529
-128.733
-123.931
-119.125
-114.314
-109.5
-104.68
-99.855
-95.022
-90.18
-85.327
-80.457
-75.569
-70.656
-65.713
-60.733
-55.708
-50.63
-45.489
-40.274
-34.975
-29.578
-24.071
-18.441
-12.676
-6.762
-0.686
5.566
12.007
18.65
25.508
32.593
39.92
47.498
55.341
63.457
71.854
80.541
89.522
98.802
108.383
118.265
128.448
138.929
149.703
160.764
172.103
183.708
195.566
207.662
219.976
232.49
245.181
258.026
270.998
284.072
297.221
310.417
323.632
336.834
349.995
363.083
376.067
388.911
401.581
414.04
426.255
438.194
449.824
461.116
472.042
482.581
492.714
502.426
511.702
520.526
528.884
536.767
544.171
551.096
557.54
563.509
569.012
574.068
578.704
582.943
586.805
590.303
593.44
596.228
598.694
600.868
602.783
604.481
606.012
607.446
608.877
610.395
612.08
613.998
616.206
618.767
621.763
625.285
629.421
634.239
639.79
646.103
653.195
661.049
669.622
678.835
688.548
698.612
708.869
719.144
729.289
739.189
748.659
757.45
765.408
772.477
778.807
784.848
791.005
797.57
804.996
813.855
824.58
837.389
851.834
866.656
880.729
893.402
903.823
911.075
914.867
915.23
914.68
918.56
929.929
950.274
979.3
1013.558
1055.978
1114.066
1193.449
1300.266
1430.03
1568.357
1702.418
1817.896
1906.849
1969.751
2005.756
2015.296
1998.824
1954.664
1884.183
1791.833
1682.911
1564.224
1442.635
1323.222
1210.525
1108.766
1021.007
949.346
894.889
856.948
833.872
824.361
826.96
839.907
861.233
888.398
918.935
951.422
984.909
1018.181
1049.8
1078.402
1103.338
1124.936
1144
1161.089
1176.588
1191.157
1205.949
1222.182
1240.508
1260.94
1283.011
1306.132
1329.812
1353.363
1375.759
1396.057
1413.679
1428.337
1440.016
1448.87
1455.071
1458.968
1461.159
1462.188
1462.426
1462.158
1461.576
1460.818
1459.974
1458.979
1457.579
1455.454
1452.3
1447.934
1442.316
1435.424
1427.506
1419.071
1410.651
1402.868
1396.265
1390.969
1386.837
1383.646
1380.326
1375.128
1366.343
1352.09
1330.848
1301.891
1264.675
1218.729
1164.98
1105.532
1042.77
979.626
918.529
860.996
808.719
763.48
725.777
695.01
669.994
648.741
629.798
612.513
595.934
579.014
561.349
542.979
524.434
506.814
490.709
476.125
463.111
451.613
441.435
432.397
424.083
415.857
407.347
398.41
388.978
379.092
368.771
357.983
346.773
335.238
323.461
311.529
299.532
287.579
275.79
264.26
253.062
242.233
231.789
221.73
212.034
202.644
193.503
184.56
175.775
167.125
158.578
150.081
141.577
132.994
124.275
115.386
106.296
96.984
87.438
77.656
67.649
57.451
47.093
36.597
25.986
15.276
4.488
-6.351
-17.213
-28.071
-38.903
-49.687
-60.404
-71.031
-81.549
-91.943
-102.201
-112.313
-122.269
-132.057
-141.663
-151.077
-160.289
-169.288
-178.067
-186.616
-194.928
-202.999
-210.824
-218.402
-225.733
-232.816
-239.652
-246.244
-252.596
-258.715
-264.606
-270.277
-275.735
-280.99
-286.053
-290.933
-295.641
-300.189
-304.59
-308.855
-312.999
-317.036
-320.98
-324.844
-328.643
-332.392
-336.106
-339.799
-343.485
-347.18
-350.897
-354.651
-358.457
-362.328
-366.276
-370.315
-374.455
-378.709
-383.086
-387.596
-392.247
-397.047
-402.003
-407.12
-412.403
-417.856
-423.481
-429.279
-435.25
-441.393
-447.706
-454.184
-460.823
-467.615
-474.555
-481.634
-488.842
-496.17
-503.606
-511.138
-518.754
-526.438
-534.178
-541.956
-549.756
-557.562
-565.355
-573.118
-580.831
-588.477
-596.035
-603.487
-610.814
-617.998
-625.02
-631.861
-638.506
-644.937
-651.139
-657.096
-662.796
-668.223
-673.366
-678.215
-682.76
-686.994
-690.908
-694.498
-697.759
-700.689
-703.287
-705.553
-707.487
-709.092
-710.374
-711.337
-711.989
-712.34
-712.4
-712.181
-711.698
-710.966
-710.002
-708.824
-707.451
-705.901
-704.193
-702.35
-700.392
-698.339
-696.214
-694.039
-691.839
-689.641
-687.473
-685.357
-683.319
-681.383
-679.571
-677.906
-676.402
-675.071
-673.925
-672.977
-672.239
-671.722
-671.432
-671.374
-671.552
-671.968
-672.621
-673.506
-674.609
-675.913
-677.404
-679.076
-680.924
-682.957
-685.172
-687.557
-690.101
-692.791
-695.6
-698.501
-701.441
-704.346
-707.15
-709.792
-712.211
-714.361
-716.176
-717.586
-718.528
-718.927
-718.723
-717.889
-716.404
-714.267
-711.506
-708.141
-704.243
-699.967
-695.456
-690.883
-686.417
-682.161
-678.304
-675.124
-672.799
-671.397
-670.839
-670.817
-671.023
-671.228
-670.994
-669.725
-667.006
-662.73
-657.262
-651.334
-645.86
-641.766
-640.073
-642.226
-647.937
-654.367
-658.48
-657.078
-651.304
-647.787
-649.663
-654.701
-650.564
-615.533
-534.552
-404.073
-237.783
-65.605
83.615
189.173
245.298
262.532
255.507
235.371
206.368
164.786
104.996
26.263
-68.004
-171.824
-278.068
-382.507
-482.796
-576.399
-661.62
-736.9
-800.246
-850.632
-887.474
-909.549
-917.458
-912.204
-892.787
-860.371
-814.601
-754.816
-687.638
-618.626
-554.506
-503.719
-464.988
-436.167
-415.231
-397.639
-385.05
-378.929
-378.038
-381.389
-385.224
-386.671
-385.26
-380.718
-373.616
-364.716
-354.329
-343.419
-333.535
-325.341
-318.855
-314.219
-309.923
-304.644
-299.675
-294.981
-292.627
-295.445
-299.615
-302.73
-301.355
-290.633
-274.982
-258.24
-243.158
-234.191
-228.579
-223.413
-218.043
-210.625
-202.255
-194.353
-186.713
-179.537
-172.708
-165.922
-159.349
-153.127
-147.21
-141.561
-136.132
-130.831
-125.545
-120.198
-114.72
-109.046
-103.164
-97.065
-90.722
-84.135
-77.323
-70.295
-63.061
-55.629
-47.997
-40.175
-32.187
-24.063
-15.834
-7.535
0.803
9.146
17.458
25.703
33.849
41.865
49.723
57.392
64.839
72.028
78.925
85.491
91.693
97.495
102.864
107.772
112.194
116.106
119.49
122.33
124.612
126.331
127.479
128.055
128.056
127.485
126.35
124.668
122.457
119.744
116.55
112.896
108.808
104.318
99.46
94.271
88.789
83.047
77.09
70.967
64.729
58.436
52.135
45.869
39.677
33.589
27.658
21.951
16.535
11.485
6.843
2.611
-1.187
-4.52
-7.361
-9.655
-11.414
-12.753
-13.626
-13.852
-13.276
-11.682
-9.09
-5.867
-2.161
2.126
6.776
11.407
15.573
18.564
20.337
21.673
22.974
24.313
26.038
28.487
32.196
38.16
46.422
55.972
66.182
76.667
86.984
96.953
106.115
113.548
119.116
123.482
127.073
130.249
133.252
135.986
138.59
141.487
144.736
148.082
151.338
154.293
156.871
159.205
161.326
163.178
164.773
166.156
167.383
168.536
169.652
170.706
171.685
172.587
173.432
174.265
175.135
176.085
177.149
178.35
179.707
181.23
182.914
184.73
186.637
188.586
190.546
192.514
194.524
196.61
198.791
201.059
203.353
205.627
207.869
210.088
212.32
214.581
216.862
219.239
221.875
224.872
228.235
231.771
235.03
237.749
239.956
241.717
243.189
244.645
246.331
248.83
253.171
259.909
268.874
279.512
290.802
301.568
310.956
317.911
320.916
319.037
312.229
301.021
286.67
270.75
254.328
238.386
224.258
212.918
204.781
199.978
197.971
197.679
198.488
200.036
201.774
203.338
204.457
204.723
204.167
203.414
202.643
201.787
201.134
200.657
200.302
200.693
200.755
199.136
197.295
195.636
197.061
205.224
216.285
227.627
235.351
234.147
228.814
223.416
220.743
225.308
233.778
242.782
251.523
257.949
263.212
268.789
274.366
280.104
285.864
291.305
296.606
301.901
307.13
312.294
317.428
322.597
327.916
333.419
339.033
344.576
349.771
354.392
358.28
361.207
362.993
363.768
363.955
364.298
365.727
368.883
374.136
381.855
392.164
404.582
417.993
430.683
440.868
447.211
448.687
444.372
433.435
415.408
390.867
361.314
328.028
293.506
260.176
228.475
200.841
177.3
156.853
145.118
145.898
164.204
206.331
267.651
342.371
424.947
507.109
587.52
665.347
736.733
798.349
844.585
870.645
874.53
855.683
814.441
750.944
666.28
564.141
450.377
331.423
211.6
89.203
-39.536
-175.3
-313.017
-436.147
-526.38
-572.634
-573.231
-545.542
-513.215
-493.547
-498.017
-520.072
-544.466
-561.587
-563.605
-552.279
-535.635
-516.511
-496.439
-474.622
-447.712
-415.242
-378.124
-337.133
-293.751
-249.123
-203.875
-158.789
-114.457
-71.092
-28.886
11.884
50.936
87.969
122.709
155.005
184.733
211.713
235.794
256.919
275.124
290.536
303.244
313.238
320.467
324.863
326.44
325.345
321.781
315.977
308.199
298.759
287.996
276.296
264.044
251.528
238.988
226.635
214.702
203.489
193.359
184.707
177.882
173.173
170.783
170.833
173.392
178.429
185.86
195.539
207.265
220.864
236.176
253.02
271.192
290.444
310.431
330.742
350.982
370.742
389.692
407.6
424.25
439.506
453.29
465.551
476.311
485.629
493.552
500.151
505.539
509.83
513.228
516.009
518.402
520.643
522.895
525.22
527.682
530.299
533.02
535.775
538.45
540.86
542.847
544.253
544.838
544.386
542.638
539.261
534.018
526.71
517.179
505.361
491.204
474.668
455.804
434.701
411.443
386.169
358.993
330.007
299.42
267.438
234.275
200.209
165.458
130.211
94.687
59.078
23.564
-11.643
-46.387
-80.552
-113.951
-146.389
-177.659
-207.508
-235.761
-262.274
-286.868
-309.382
-329.677
-347.631
-363.16
-376.224
-386.84
-395.062
-400.939
-404.514
-405.848
-405.006
-402.159
-397.542
-391.124
-382.799
-372.833
-361.411
-348.682
-335.251
-320.18
-302.517
-283.93
-265.014
-248.701
-238.492
-230.803
-223.287
-212.424
-193.332
-170.726
-148.705
-130.135
-119.54
-114.049
-110.695
-108.923
-106.963
-106.008
-107.534
-111.314
-117.546
-126.116
-136.685
-149.33
-164.043
-180.534
-198.475
-217.544
-237.39
-257.7
-278.224
-298.72
-318.97
-338.824
-358.157
-376.848
-394.802
-411.934
-428.177
-443.486
-457.829
-471.239
-483.798
-495.601
-506.776
-517.402
-527.495
-537.089
-546.215
-554.851
-562.962
-570.537
-577.502
-583.817
-589.509
-594.477
-598.544
-601.632
-603.671
-604.411
-603.677
-601.573
-597.959
-592.904
-587.244
-579.951
-569.821
-558.53
-546.202
-536.511
-535.406
-538.593
-541.253
-535.938
-510.49
-469.917
-425.249
-386.482
-368.357
-368.376
-373.883
-376.883
-367.127
-345.478
-321.655
-298.296
-278.162
-259.309
-235.205
-208.514
-182.041
-159.4
-146.176
-138.025
-130.762
-121.665
-106.491
-88.332
-70.305
-53.161
-38.866
-26.357
-14.291
-2.978
7.785
17.896
27.05
35.436
43.201
50.3
56.737
62.543
67.723
72.276
76.211
79.512
82.165
84.206
85.669
86.572
86.945
86.812
86.208
85.18
83.768
81.998
79.891
77.457
74.714
71.696
68.434
64.961
61.318
57.552
53.733
49.956
46.308
42.865
39.694
36.841
34.374
32.379
30.936
30.144
30.06
30.705
32.118
34.327
37.316
41.061
45.46
50.314
55.46
60.727
65.914
70.897
75.464
79.306
82.248
84.173
85.098
85.339
85.179
84.771
84.492
84.868
86.251
88.973
92.94
97.306
101.244
104.252
105.742
104.97
101.695
96.138
88.849
82.99
82.334
88.419
103.844
128.469
159.996
201.412
255.963
328.369
425.073
544.449
677.25
808.637
921.709
1003.74
1052.097
1073.408
1074.21
1060.799
1033.859
986.254
914.864
819.584
703.724
577.347
447.551
317.032
187.493
56.762
-73.045
-191.457
-287.344
-347.849
-367.208
-356.265
-330.605
-307.485
-300.593
-306.122
-313.454
-313.924
-298.896
-269.901
-235.139
-198.688
-164.501
-134.544
-106.62
-80.754
-58.514
-40.688
-28.249
-21.378
-18.507
-17.477
-17.146
-16.733
-15.456
-13.042
-9.308
-4.221
1.402
6.253
9.663
11.432
11.592
10.542
8.604
5.96
3.079
0.602
-1.055
-1.621
-1.006
0.655
3.277
6.824
11.194
16.262
21.9
27.925
34.174
40.519
46.808
52.934
58.824
64.402
69.619
74.432
78.822
82.797
86.384
89.603
92.474
95.013
97.247
99.237
101.053
102.767
104.461
106.191
107.999
109.927
112.004
114.248
116.671
119.268
122.024
124.933
127.989
131.185
134.516
137.964
141.506
145.116
148.767
152.43
156.076
159.675
163.195
166.609
169.889
173.009
175.945
178.671
181.156
183.372
185.289
186.877
188.109
188.956
189.393
189.395
188.942
188.017
186.606
184.699
182.288
179.369
175.94
172.005
167.569
162.641
157.233
151.361
145.045
138.306
131.169
123.664
115.82
107.67
99.25
90.594
81.74
72.725
63.589
54.369
45.107
35.839
26.606
17.445
8.393
-0.512
-9.238
-17.751
-26.023
-34.028
-41.743
-49.146
-56.223
-62.961
-69.353
-75.395
-81.086
-86.426
-91.421
-96.08
-100.417
-104.449
-108.197
-111.682
-114.932
-117.979
-120.856
-123.603
-126.255
-128.845
-131.411
-133.987
-136.615
-139.341
-142.212
-145.27
-148.556
-152.112
-155.977
-160.193
-164.793
-169.802
-175.239
-181.118
-187.46
-194.286
-201.62
-209.486
-217.881
-226.782
-236.167
-245.982
-256.202
-266.839
-277.868
-289.261
-301.015
-313.073
-325.429
-338.236
-351.448
-364.85
-378.285
-391.505
-404.397
-417.219
-430.056
-442.517
-454.548
-466.669
-479.261
-492.799
-507.775
-522.611
-535.826
-548.761
-561.546
-576.312
-596.744
-620.356
-643.979
-662.463
-667.435
-657.044
-636.012
-614.095
-603.068
-610.329
-633.413
-661.724
-685.726
-698.538
-700.022
-696.894
-693.473
-692.15
-693.492
-695.155
-696.212
-696.94
-697.335
-697.747
-698.295
-698.69
-698.846
-698.811
-698.543
-698.012
-697.266
-696.386
-695.456
-694.584
-693.814
-693.13
-692.539
-692.062
-691.712
-691.508
-691.462
-691.575
-691.853
-692.307
-692.944
-693.771
-694.793
-696.01
-697.421
-699.024
-700.82
-702.811
-704.999
-707.382
-709.96
-712.726
-715.676
-718.804
-722.108
-725.581
-729.222
-733.026
-736.986
-741.098
-745.357
-749.755
-754.286
-758.935
-763.689
-768.533
-773.453
-778.439
-783.478
-788.554
-793.651
-798.75
-803.834
-808.881
-813.867
-818.759
-823.522
-828.124
-832.539
-836.749
-840.741
-844.502
-848.011
-851.244
-854.177
-856.779
-859.015
-860.84
-862.185
-862.996
-863.225
-862.826
-861.766
-860.004
-857.489
-854.173
-850.002
-844.92
-838.892
-831.911
-823.983
-815.147
-805.452
-794.942
