Name,John Breau
Date of Birth,"Dec 20, 1971"
Recorded Date,2023-06-06 12:24:27 -0500
Classification,Sinus Rhythm
Symptoms,
Software Version,1.90
Device,"Watch6,3"
Sample Rate,512 hertz


Lead,Lead I
Unit,µV

-32.283
-29.251
-26.079
-22.775
-19.347
-15.804
-12.154
-8.408
-4.575
-0.666
3.308
7.337
11.408
15.51
19.631
23.759
27.882
31.989
36.068
40.106
44.091
48.012
51.855
55.609
59.262
62.802
66.217
69.496
72.626
75.598
78.4
81.021
83.449
85.671
87.677
89.454
90.989
92.268
93.278
94.006
94.44
94.566
94.372
93.847
92.978
91.758
90.177
88.224
85.893
83.173
80.056
76.537
72.61
68.268
63.507
58.323
52.715
46.691
40.256
33.415
26.174
18.533
10.5
2.092
-6.674
-15.778
-25.194
-34.889
-44.818
-54.909
-65.097
-75.315
-85.501
-95.604
-105.565
-115.317
-124.791
-133.914
-142.621
-150.863
-158.585
-165.728
-172.251
-178.141
-183.428
-188.202
-192.553
-196.563
-200.303
-203.819
-207.184
-210.478
-213.772
-217.143
-220.651
-224.341
-228.33
-232.786
-237.747
-243.147
-248.744
-254.04
-258.505
-261.628
-262.775
-261.297
-256.834
-249.216
-238.627
-225.973
-212.442
-199.151
-187.328
-176.933
-166.418
-154.912
-141.947
-129.255
-120.054
-113.123
-102.479
-77.04
-24.79
58.164
166.606
288.071
408.765
520.623
621.422
712.126
792.568
859.45
907.891
933.418
934.075
910.84
866.422
802.938
722.21
625.606
513.392
390.727
266.238
148.305
47.24
-33.351
-97.308
-147.938
-190.403
-226.635
-252.895
-267.67
-271.089
-264.819
-253.48
-240.586
-227.917
-216.995
-208.805
-204.157
-203.575
-206.708
-212.329
-219.003
-225.439
-230.378
-232.868
-232.132
-227.748
-219.903
-209.243
-196.653
-183.099
-169.534
-156.632
-144.918
-134.747
-126.226
-119.305
-113.75
-109.235
-105.398
-101.949
-98.733
-95.646
-92.433
-88.882
-85.083
-81.015
-76.649
-72.409
-67.582
-61.231
-54.382
-47.322
-41.775
-41.019
-43.174
-45.324
-44.428
-34.836
-17.612
1.396
18.11
26.447
24.939
19.113
11.915
6.451
5.212
5.279
5.304
5.292
3.636
0.807
-2.02
-5.949
-11.911
-20.062
-32.482
-48.589
-65.045
-82.354
-101.047
-123.381
-155.107
-195.37
-239.151
-279.791
-306.777
-313.701
-298.35
-260.735
-206.087
-141.797
-76.574
-19.65
23.992
53.39
71.744
86.438
103.049
124.426
150.862
178.351
203.327
224.685
242.498
258.404
273.76
288.073
300.059
308.893
314.298
316.448
315.823
312.574
306.588
298.141
287.762
275.886
262.993
249.402
235.305
221.101
207.081
193.311
179.837
166.593
153.61
141.196
129.464
118.264
107.692
97.94
89.188
81.793
75.536
69.544
63.278
56.467
48.622
39.274
27.8
13.276
-4.378
-24.368
-46.092
-69.036
-92.538
-115.982
-138.449
-158.688
-176.14
-190.948
-203.382
-213.836
-222.662
-230.188
-236.839
-243.082
-249.005
-254.18
-257.62
-258.001
-254.129
-244.743
-228.827
-205.59
-174.318
-134.853
-87.967
-35.208
21.633
80.448
139.213
195.806
247.612
292.165
327.622
353.074
368.094
372.533
366.489
350.541
326.238
295.779
261.612
225.72
189.962
156.399
126.87
102.93
85.405
74.191
68.548
67.799
71.084
77.189
85.159
94.057
103.223
112.657
122.739
133.896
146.661
161.568
178.696
198.042
219.547
242.923
267.806
293.593
319.561
345.148
370.143
394.442
417.659
438.97
457.251
471.686
481.645
486.425
485.129
476.677
460.493
436.897
406.766
370.842
329.671
283.77
233.889
181.176
126.493
70.04
11.69
-48.515
-110.16
-172.469
-234.718
-296.483
-357.168
-415.833
-471.558
-523.726
-572.138
-617.153
-659.366
-699.253
-737.505
-775.126
-811.624
-844.958
-873.344
-894.427
-909.136
-921.997
-934.063
-944.4
-946.086
-925.776
-875.512
-791.816
-680.691
-560.348
-448.416
-361.837
-310.728
-292.264
-301.567
-332.144
-377.404
-435.609
-501.483
-564.929
-617.404
-651.751
-667.429
-672.681
-674.884
-678.257
-682.719
-682.444
-673.457
-655.697
-631.301
-604.547
-578.325
-553.176
-529.043
-505.549
-482.771
-460.966
-439.761
-419.725
-401.633
-384.782
-369.301
-353.461
-333.883
-312.686
-292.652
-276.517
-269.713
-270.281
-271.878
-270.291
-259.12
-236.773
-208.987
-179.754
-153.501
-133.871
-118.637
-106.629
-98.227
-93.072
-92.776
-97.996
-107.484
-120.096
-134.735
-150.392
-166.309
-181.672
-195.536
-207.491
-217.784
-226.888
-235.049
-242.189
-248.082
-252.576
-255.765
-257.677
-258.109
-256.727
-253.283
-247.768
-240.362
-231.285
-220.679
-208.633
-195.27
-180.817
-165.55
-149.761
-133.744
-117.711
-101.83
-86.265
-71.149
-56.586
-42.658
-29.381
-16.721
-4.649
6.859
17.818
28.228
38.129
47.596
56.721
65.626
74.399
83.091
91.748
100.396
109.046
117.703
126.339
134.902
143.351
151.65
159.775
167.71
175.428
182.892
190.063
196.895
203.348
209.395
215.01
220.183
224.925
229.254
233.2
236.803
240.101
243.137
245.958
248.597
251.075
253.398
255.571
257.608
259.539
261.399
263.223
265.032
266.827
268.613
270.398
272.182
273.952
275.671
277.291
278.795
280.199
281.545
282.875
284.212
285.576
286.991
288.49
290.12
291.933
293.964
296.241
298.813
301.742
305.114
309.022
313.524
318.643
324.401
330.833
337.978
345.847
354.408
363.594
373.307
383.451
393.96
404.755
415.737
426.796
437.772
448.516
458.954
468.954
478.254
486.482
493.114
497.692
500.077
500.238
498.131
493.898
487.798
480.407
472.896
466.419
461.529
458.41
456.954
456.722
457.292
457.734
456.094
450.315
438.748
420.334
395.114
363.541
327.02
288.801
251.823
218.898
191.996
170.396
156.96
158.065
179.458
227.503
300.752
389.482
483.975
573.797
652.816
719.69
771.515
805.224
817.427
804.477
765.466
701.261
613.809
507.091
385.812
255.247
121.357
-10.847
-136.988
-252.734
-354.685
-440.684
-509.594
-561.859
-599.069
-622.566
-634.089
-636.321
-632.059
-624.101
-615.067
-606.514
-599.43
-595.214
-594.927
-598.686
-606.127
-616.366
-628.186
-640.841
-653.654
-665.398
-675.004
-681.971
-686.115
-687.71
-687.363
-685.47
-682.5
-679.28
-676.413
-674.178
-672.698
-671.782
-671.085
-670.362
-669.274
-667.348
-664.305
-660.008
-654.397
-647.573
-639.644
-630.675
-620.792
-610.144
-598.841
-586.99
-574.674
-561.94
-548.878
-535.599
-522.214
-508.844
-495.576
-482.461
-469.548
-456.871
-444.445
-432.278
-420.355
-408.633
-397.093
-385.719
-374.502
-363.466
-352.614
-341.921
-331.366
-320.913
-310.56
-300.373
-290.412
-280.711
-271.316
-262.241
-253.557
-245.471
-238.042
-231.195
-224.86
-218.867
-213.213
-208.188
-203.9
-200.228
-197.273
-195.206
-194.197
-194.675
-196.526
-198.972
-201.537
-203.93
-205.632
-206.195
-205.039
-201.26
-194.759
-186.249
-176.126
-164.671
-152.261
-139.146
-125.881
-113.347
-101.776
-90.794
-80.228
-70.037
-60.31
-51.325
-43.124
-35.501
-28.515
-22.525
-17.862
-14.786
-13.39
-13.543
-15.114
-18.087
-22.411
-27.955
-34.559
-41.983
-49.988
-58.449
-67.283
-76.393
-85.68
-94.997
-104.162
-113.07
-121.663
-129.903
-137.79
-145.305
-152.411
-159.118
-165.469
-171.524
-177.367
-183.033
-188.514
-193.81
-198.925
-203.872
-208.687
-213.371
-217.898
-222.244
-226.386
-230.303
-233.989
-237.411
-240.521
-243.271
-245.609
-247.504
-248.945
-249.921
-250.421
-250.442
-249.979
-249.041
-247.651
-245.831
-243.599
-240.981
-237.999
-234.686
-231.086
-227.237
-223.18
-218.954
-214.593
-210.131
-205.605
-201.052
-196.508
-192.018
-187.616
-183.333
-179.198
-175.23
-171.442
-167.837
-164.412
-161.162
-158.089
-155.201
-152.518
-150.072
-147.893
-146.014
-144.452
-143.205
-142.272
-141.653
-141.354
-141.384
-141.765
-142.534
-143.732
-145.412
-147.6
-150.297
-153.465
-157.031
-160.901
-164.96
-169.115
-173.29
-177.416
-181.428
-185.257
-188.832
-192.067
-194.862
-197.099
-198.641
-199.381
-199.245
-198.206
-196.29
-193.554
-190.095
-185.991
-181.307
-176.1
-170.412
-164.288
-157.768
-150.907
-143.764
-136.424
-128.999
-121.585
-114.262
-107.078
-100.044
-93.147
-86.345
-79.612
-72.931
-66.298
-59.729
-53.248
-46.888
-40.683
-34.676
-28.891
-23.338
-18.029
-12.979
-8.218
-3.792
0.243
3.82
6.877
9.356
11.211
12.406
12.914
12.719
11.813
10.197
7.868
4.822
1.057
-3.431
-8.637
-14.548
-21.149
-28.417
-36.326
-44.844
-53.941
-63.583
-73.735
-84.365
-95.439
-106.923
-118.781
-130.974
-143.462
-156.201
-169.147
-182.254
-195.476
-208.769
-222.087
-235.389
-248.633
-261.782
-274.801
-287.654
-300.31
-312.739
-324.913
-336.802
-348.382
-359.627
-370.514
-381.022
-391.133
-400.831
-410.105
-418.949
-427.36
-435.337
-442.884
-450.003
-456.7
-462.98
-468.849
-474.315
-479.382
-484.06
-488.363
-492.307
-495.918
-499.215
-502.214
-504.922
-507.343
-509.471
-511.291
-512.787
-513.939
-514.734
-515.173
-515.266
-515.041
-514.527
-513.755
-512.742
-511.49
-510
-508.279
-506.343
-504.21
-501.917
-499.516
-497.066
-494.639
-492.285
-490.025
-487.845
-485.694
-483.502
-481.181
-478.662
-475.902
-472.861
-469.506
-465.801
-461.713
-457.187
-452.16
-446.55
-440.254
-433.198
-425.346
-416.709
-407.348
-397.36
-386.874
-376.004
-364.847
-353.488
-341.997
-330.443
-318.888
-307.406
-296.077
-285.007
-274.327
-264.149
-254.564
-245.626
-237.348
-229.713
-222.668
-216.171
-210.183
-204.674
-199.635
-195.061
-190.954
-187.317
-184.149
-181.426
-179.102
-177.129
-175.458
-174.059
-172.92
-172.045
-171.463
-171.196
-171.266
-171.687
-172.456
-173.55
-174.92
-176.502
-178.216
-180.002
-181.823
-183.639
-185.394
-187.009
-188.375
-189.368
-189.895
-189.849
-189.079
-187.52
-185.163
-182.083
-178.553
-174.839
-171.018
-167.168
-163.342
-159.323
-154.92
-149.91
-143.669
-135.763
-126.245
-115.147
-102.74
-89.846
-77.043
-64.875
-54.455
-46.504
-41.21
-38.989
-39.876
-43.24
-48.758
-55.876
-63.473
-70.874
-77.215
-81.027
-79.949
-70.682
-51.53
-21.945
16.922
61.307
112.726
175.654
252.731
350.016
465.978
591.272
720.24
841.168
942.879
1021.733
1070.593
1088.256
1080.419
1049.655
1000.755
936.898
856.938
762.394
656.448
543.646
430.063
320.608
219.368
129.682
53.93
-6.015
-49.633
-77.617
-90.672
-89.871
-77.258
-55.383
-27.258
4.045
36.355
68.194
97.782
123.176
143.355
158.199
168.298
174.809
178.595
180.158
180.567
181.432
183.77
187.978
193.917
200.831
208.124
215.502
222.356
227.819
231.39
232.883
232.456
230.685
228.07
224.976
221.824
219.033
216.894
215.608
215.274
215.874
217.371
219.71
222.801
226.542
230.824
235.534
240.528
245.637
250.72
255.657
260.38
264.858
269.059
272.94
276.458
279.575
282.265
284.535
286.399
287.862
288.945
289.676
290.099
290.273
290.225
289.955
289.444
288.683
287.683
286.491
285.173
283.807
282.492
281.311
280.327
279.605
279.199
279.157
279.524
280.359
281.731
283.729
286.459
289.996
294.384
299.619
305.652
312.403
319.752
327.589
335.822
344.361
353.135
362.071
371.097
380.129
389.08
397.837
406.269
414.258
421.706
428.547
434.752
440.321
445.283
449.657
453.457
456.681
459.316
461.339
462.728
463.454
463.492
462.83
461.477
459.44
456.727
453.334
449.244
444.43
438.857
432.495
425.322
417.328
408.514
398.893
388.489
377.334
365.473
352.946
339.791
326.048
311.754
296.955
281.699
266.039
250.027
233.722
217.186
200.481
183.672
166.821
149.989
133.235
116.621
100.203
84.041
68.187
52.692
37.609
22.99
8.891
-4.628
-17.519
-29.744
-41.27
-52.066
-62.115
-71.405
-79.946
-87.765
-94.879
-101.292
-107.002
-111.993
-116.257
-119.792
-122.594
-124.658
-125.981
-126.556
-126.386
-125.493
-123.874
-121.515
-118.378
-114.394
-109.529
-103.797
-97.226
-89.878
-81.828
-73.155
-63.971
-54.416
-44.617
-34.694
-24.744
-14.837
-5.071
4.431
13.525
22.03
29.813
36.795
42.913
48.137
52.469
55.927
58.586
60.574
61.989
62.912
63.403
63.488
63.221
62.686
61.971
61.191
60.433
59.751
59.198
58.816
58.615
58.59
58.692
58.827
58.93
58.967
58.915
58.779
58.554
58.221
57.768
57.183
56.461
55.602
54.605
53.464
52.192
50.813
49.368
47.923
46.525
45.203
43.984
42.882
41.908
41.079
40.4
39.867
39.481
39.245
39.165
39.249
39.503
39.926
40.513
41.257
42.154
43.202
44.401
45.748
47.246
48.897
50.705
52.678
54.822
57.139
59.63
62.295
65.132
68.141
71.319
74.661
78.162
81.818
85.624
89.574
93.662
97.878
102.214
106.662
111.21
115.845
120.554
125.323
130.134
134.972
139.816
144.645
149.437
154.167
158.811
163.341
167.728
171.94
175.945
179.71
183.204
186.393
189.244
191.725
193.804
195.454
196.647
197.352
197.542
197.186
196.259
194.736
192.591
189.799
186.339
182.187
177.327
171.747
165.434
158.376
150.56
141.972
132.611
122.489
111.621
100.025
87.733
74.78
61.214
47.101
32.495
17.449
2.012
-13.775
-29.857
-46.169
-62.652
-79.245
-95.899
-112.584
-129.274
-145.944
-162.599
-179.255
-195.942
-212.708
-229.567
-246.504
-263.508
-280.544
-297.585
-314.621
-331.616
-348.523
-365.298
-381.86
-398.109
-413.934
-429.163
-443.598
-457.048
-469.298
-480.183
-489.582
-497.369
-503.44
-507.713
-510.084
-510.476
-508.844
-505.125
-499.313
-491.466
-481.668
-470.089
-456.95
-442.462
-426.867
-410.398
-393.258
-375.67
-357.857
-340.026
-322.416
-305.283
-288.855
-273.378
-259.05
-245.983
-234.271
-223.946
-214.982
-207.357
-201.014
-195.861
-191.82
-188.794
-186.649
-185.246
-184.397
-183.868
-183.449
-182.93
-182.129
-180.919
-179.174
-176.781
-173.671
-169.795
-165.13
-159.694
-153.509
-146.606
-139.085
-131.089
-122.779
-114.364
-106.024
-97.914
-90.213
-83.107
-76.75
-71.325
-67.039
-63.994
-62.209
-61.594
-61.816
-62.44
-63.044
-63.089
-61.935
-59.141
-54.495
-48.169
-40.995
-34.017
-28.092
-23.919
-22.324
-23.972
-28.766
-35.994
-42.855
-44.401
-37.639
-21.209
4.947
36.965
75.021
125.714
195.151
291.742
417.348
558.041
695.866
811.289
887.984
926.3
934.032
918.021
885.844
837.082
766.816
675.725
566.24
443.824
317.355
192.821
74.625
-32.884
-126.82
-205.098
-266.128
-310.014
-338.166
-351.923
-352.931
-342.997
-324.055
-298.544
-268.872
-236.741
-203.192
-169.182
-135.833
-104.74
-77.247
-53.675
-33.774
-17.146
-3.552
7.213
15.847
23.869
32.915
43.863
56.89
71.749
88.155
105.878
124.472
142.998
160.257
175.452
188.266
198.669
206.806
212.791
216.677
218.666
219.121
218.246
216.125
212.779
208.087
201.991
194.544
185.785
175.776
164.662
152.598
139.769
126.421
112.757
98.985
85.336
72.013
59.209
47.102
35.845
25.605
16.534
8.732
2.258
-2.87
-6.692
-9.272
-10.703
-11.118
-10.661
-9.475
-7.722
-5.557
-3.114
-0.506
2.161
4.787
7.279
9.572
11.629
13.434
14.997
16.351
17.548
18.668
19.812
21.072
22.548
24.338
26.516
29.132
32.217
35.778
39.798
44.258
49.132
54.392
60.023
65.997
72.279
78.825
85.58
92.503
99.556
106.683
113.833
120.97
128.078
135.18
142.338
149.592
156.955
164.409
171.906
179.393
186.811
194.077
201.089
207.713
213.825
219.331
224.164
228.252
231.502
233.782
234.928
234.813
233.36
230.531
226.324
220.745
213.831
205.662
196.369
186.129
175.097
163.391
151.104
138.329
125.182
111.81
98.381
85.026
71.85
58.937
46.357
34.182
22.461
11.201
0.369
-10.099
-20.238
-30.053
-39.528
-48.649
-57.41
-65.823
-73.899
-81.624
-88.978
-95.941
-102.496
-108.634
-114.33
-119.541
-124.206
-128.258
-131.657
-134.384
-136.43
-137.787
-138.448
-138.405
-137.666
-136.26
-134.217
-131.563
-128.327
-124.545
-120.272
-115.585
-110.563
-105.273
-99.765
-94.076
-88.243
-82.307
-76.304
-70.268
-64.208
-58.127
-52.039
-45.963
-39.914
-33.891
-27.869
-21.795
-15.634
-9.378
-3.04
3.348
9.753
16.129
22.413
28.527
34.363
39.814
44.788
49.195
52.945
55.943
58.069
59.193
59.217
58.075
55.72
52.131
47.306
41.275
34.098
25.862
16.684
6.691
-3.978
-15.165
-26.711
-38.468
-50.28
-61.991
-73.47
-84.594
-95.25
-105.344
-114.803
-123.571
-131.614
-138.904
-145.427
-151.193
-156.25
-160.678
-164.552
-167.923
-170.834
-173.317
-175.402
-177.122
-178.508
-179.571
-180.315
-180.748
-180.884
-180.75
-180.378
-179.771
-178.901
-177.709
-176.151
-174.207
-171.872
-169.15
-166.039
-162.541
-158.671
-154.461
-149.949
-145.16
-140.113
-134.809
-129.252
-123.462
-117.481
-111.362
-105.155
-98.896
-92.621
-86.364
-80.163
-74.051
-68.052
-62.175
-56.431
-50.837
-45.414
-40.189
-35.184
-30.415
-25.895
-21.633
-17.637
-13.917
-10.478
-7.323
-4.451
-1.866
0.429
2.427
4.122
5.512
6.596
7.375
7.85
8.021
7.892
7.468
6.756
5.761
4.489
2.945
1.135
-0.935
-3.257
-5.824
-8.629
-11.664
-14.921
-18.392
-22.066
-25.937
-29.994
-34.228
-38.629
-43.188
-47.895
-52.738
-57.708
-62.793
-67.98
-73.257
-78.61
-84.027
-89.493
-94.996
-100.521
-106.054
-111.583
-117.095
-122.579
-128.02
-133.407
-138.727
-143.97
-149.125
-154.18
-159.124
-163.946
-168.637
-173.189
-177.591
-181.837
-185.918
-189.829
-193.567
-197.131
-200.524
-203.746
-206.802
-209.695
-212.429
-215.008
-217.429
-219.695
-221.802
-223.751
-225.542
-227.176
-228.658
-229.989
-231.169
-232.193
-233.053
-233.737
-234.226
-234.511
-234.585
-234.451
-234.127
-233.628
-232.971
-232.177
-231.261
-230.229
-229.07
-227.762
-226.268
-224.567
-222.66
-220.543
-218.216
-215.645
-212.78
-209.55
-205.89
-201.733
-196.981
-191.608
-185.652
-179.234
-172.609
-166.056
-159.779
-153.932
-148.642
-143.735
-138.883
-133.758
-127.771
-120.446
-111.546
-100.85
-88.372
-74.76
-60.861
-47.401
-35.484
-26.046
-19.795
-17.656
-20.224
-27.338
-38.656
-54.05
-71.87
-89.293
-103.828
-112.172
-114.07
-113.307
-110.535
-104.569
-89.529
-52.202
15.272
115.863
246.035
389.959
531.473
654.883
747.572
808.064
840.068
851.179
848.903
834.995
807.59
762.5
697.539
614.705
518.377
414.829
309.565
206.329
108.683
19.86
-57.299
-120.173
-167.181
-198.418
-214.924
-218.096
-209.835
-192.144
-167.094
-137.135
-104.551
-70.68
-36.299
-1.965
31.798
64.149
94.3
121.885
146.873
169.111
188.312
204.201
216.88
227.028
235.508
243.167
250.428
257.437
264.426
271.615
278.981
286.206
292.731
297.85
301.281
303.132
303.499
302.562
300.537
297.663
294.41
291.379
288.925
287.185
286.199
285.883
286.205
287.184
288.731
290.708
292.989
295.444
298.011
300.675
303.371
305.999
308.429
310.502
312.126
313.257
313.86
313.92
313.425
312.364
310.769
308.691
306.177
303.269
299.997
296.378
292.452
288.266
283.878
279.353
274.738
270.062
265.355
260.637
255.925
251.233
246.562
241.9
237.244
232.595
227.954
223.328
218.715
214.111
209.514
204.917
200.316
195.707
191.085
186.444
181.78
177.089
172.366
167.611
162.818
157.983
153.1
148.16
143.158
138.087
132.942
127.714
122.401
116.997
111.501
105.911
100.227
94.449
88.579
82.619
76.572
70.442
64.232
57.947
51.593
45.176
38.701
32.175
25.606
19
12.367
5.714
-0.949
-7.614
-14.271
-20.909
-27.521
-34.095
-40.621
-47.091
-53.495
-59.823
-66.066
-72.217
-78.266
-84.208
-90.035
-95.743
-101.326
-106.78
-112.102
-117.288
-122.336
-127.243
-132.007
-136.625
-141.095
-145.416
-149.584
-153.599
-157.458
-161.161
-164.705
-168.089
-171.313
-174.376
-177.277
-180.015
-182.589
-185.001
-187.248
-189.332
-191.252
-193.009
-194.602
-196.032
-197.297
-198.399
-199.336
-200.107
-200.712
-201.149
-201.417
-201.516
-201.443
-201.2
-200.785
-200.199
-199.443
-198.516
-197.421
-196.159
-194.732
-193.142
-191.392
-189.484
-187.423
-185.211
-182.853
-180.352
-177.713
-174.939
-172.037
-169.009
-165.863
-162.601
-159.231
-155.757
-152.185
-148.523
-144.777
-140.953
-137.06
-133.106
-129.099
-125.046
-120.956
-116.838
-112.7
-108.549
-104.396
-100.246
-96.109
-91.993
-87.905
-83.853
-79.844
-75.886
-71.986
-68.151
-64.387
-60.7
-57.098
-53.585
-50.168
-46.851
-43.641
-40.542
-37.559
-34.695
-31.953
-29.337
-26.848
-24.489
-22.259
-20.159
-18.187
-16.344
-14.626
-13.032
-11.557
-10.199
-8.952
-7.813
-6.775
-5.833
-4.981
-4.211
-3.517
-2.892
-2.328
-1.818
-1.354
-0.928
-0.533
-0.162
0.192
0.538
0.881
1.229
1.586
1.96
2.354
2.772
3.219
3.697
4.207
4.749
5.325
5.931
6.567
7.229
7.913
8.613
9.322
10.034
10.74
11.432
12.099
12.731
13.318
13.847
14.308
14.688
14.976
15.159
15.227
15.169
14.972
14.627
14.125
13.455
12.611
11.585
10.371
8.965
7.363
5.562
3.563
1.367
-1.026
-3.61
-6.381
-9.33
-12.449
-15.725
-19.145
-22.695
-26.357
-30.112
-33.941
-37.821
-41.73
-45.644
-49.538
-53.384
-57.158
-60.83
-64.373
-67.76
-70.962
-73.95
-76.699
-79.18
-81.368
-83.236
-84.761
-85.919
-86.686
-87.041
-86.965
-86.438
-85.444
-83.963
-81.984
-79.493
-76.482
-72.945
-68.877
-64.278
-59.152
-53.508
-47.356
-40.709
-33.583
-25.995
-17.966
-9.518
-0.677
8.534
18.082
27.937
38.062
48.413
58.949
69.63
80.413
91.263
102.144
113.008
123.811
134.504
145.033
155.337
165.344
174.97
184.138
192.782
200.84
208.27
215.03
221.074
226.373
230.889
234.588
237.461
239.499
240.704
241.108
240.769
239.779
238.269
236.364
234.164
231.757
229.21
226.598
224
221.471
219.063
216.8
214.71
212.853
211.182
209.52
207.572
204.861
200.906
195.382
187.903
178.034
165.713
151.061
134.466
116.874
99.002
81.172
63.924
47.696
32.308
17.475
2.449
-14.451
-34.461
-58.316
-87.068
-121.529
-161.895
-208.323
-260.521
-315.845
-370.548
-421.752
-466.029
-503.338
-537.445
-567.573
-590.009
-596.481
-572.815
-512.242
-415.383
-288.169
-144.309
4.686
149.322
278.703
385.734
465.279
515.897
542.457
549.662
540.257
514.455
469.187
403.693
320.785
225.116
123.283
20.807
-78.828
-172.385
-257.171
-331.138
-392.513
-440.371
-475.19
-497.932
-509.499
-511.2
-504.426
-490.715
-472.084
-450.403
-426.76
-401.989
-377.081
-353.144
-331.348
-312.339
-296
-281.931
-269.818
-259.389
-250.14
-241.053
-231.026
-219.445
-206.199
-191.598
-176.16
-160.357
-144.799
-130.406
-117.929
-107.765
-100.084
-94.71
-91.325
-89.635
-89.198
-89.48
-90.112
-90.835
-91.45
-91.855
-91.891
-91.374
-90.23
-88.431
-85.953
-82.788
-78.911
-74.309
-69.037
-63.191
-56.876
-50.18
-43.158
-35.863
-28.378
-20.808
-13.288
-5.931
1.195
8.034
14.545
20.695
26.457
31.827
36.836
41.519
45.913
50.042
53.923
57.575
61.034
64.343
67.552
70.704
73.822
76.931
80.05
83.196
86.383
89.617
92.888
96.192
99.529
102.9
106.312
109.766
113.259
116.789
120.353
123.949
127.576
131.231
134.912
138.614
142.334
146.07
149.82
153.579
157.341
161.097
164.836
168.548
172.223
175.846
179.406
182.889
186.282
189.572
192.747
195.793
198.698
201.448
204.03
206.431
208.639
210.641
212.424
213.978
215.291
216.352
217.153
217.682
217.931
217.893
217.561
216.928
215.989
214.741
213.18
211.305
209.115
206.61
203.79
200.659
197.219
193.475
189.431
185.093
180.467
175.56
170.38
164.936
159.235
153.289
147.108
140.701
134.082
127.261
120.253
113.069
105.723
98.229
90.601
82.854
75.002
67.059
59.041
50.964
42.841
34.688
26.52
18.353
10.202
2.082
-5.992
-14.004
-21.94
-29.783
-37.519
-45.132
-52.606
-59.928
-67.081
-74.05
-80.821
-87.378
-93.708
-99.796
-105.628
-111.191
-116.471
-121.456
-126.132
-130.489
-134.514
-138.197
-141.528
-144.498
-147.097
-149.317
-151.153
-152.597
-153.644
-154.291
-154.534
-154.372
-153.805
-152.833
-151.458
-149.686
-147.52
-144.968
-142.039
-138.741
-135.086
-131.087
-126.757
-122.114
-117.174
-111.956
-106.479
-100.766
-94.839
-88.722
-82.44
-76.02
-69.488
-62.873
-56.202
-49.507
-42.815
-36.159
-29.568
-23.073
-16.706
-10.496
-4.474
1.331
6.889
12.172
17.154
21.807
26.108
30.031
33.555
36.66
39.325
41.534
43.27
44.521
45.275
45.523
45.256
44.471
43.165
41.338
38.99
36.128
32.756
28.883
24.521
19.682
14.382
8.638
2.469
-4.104
-11.059
-18.37
-26.012
-33.96
-42.183
-50.654
-59.343
-68.219
-77.25
-86.405
-95.651
-104.956
-114.288
-123.613
-132.9
-142.118
-151.234
-160.22
-169.045
-177.681
-186.101
-194.279
-202.19
-209.81
-217.118
-224.094
-230.718
-236.975
-242.85
-248.329
-253.401
-258.056
-262.286
-266.086
-269.449
-272.374
-274.858
-276.901
-278.505
-279.673
-280.41
-280.723
-280.618
-280.106
-279.195
-277.898
-276.226
-274.193
-271.813
-269.1
-266.07
-262.74
-259.127
-255.248
-251.121
-246.765
-242.197
-237.437
-232.502
-227.411
-222.181
-216.829
-211.374
-205.834
-200.225
-194.567
-188.876
-183.169
-177.465
-171.78
-166.129
-160.529
-154.993
-149.536
-144.174
-138.919
-133.786
-128.787
-123.938
-119.254
-114.749
-110.436
-106.325
-102.428
-98.754
-95.316
-92.122
-89.178
-86.49
-84.064
-81.903
-80.015
-78.403
-77.064
-75.993
-75.183
-74.625
-74.312
-74.238
-74.383
-74.727
-75.248
-75.926
-76.75
-77.706
-78.772
-79.92
-81.124
-82.351
-83.575
-84.765
-85.872
-86.848
-87.636
-88.178
-88.436
-88.379
-87.978
-87.219
-86.064
-84.455
-82.35
-79.703
-76.471
-72.672
-68.307
-63.335
-57.838
-51.971
-45.974
-40.252
-35.138
-30.704
-26.978
-24.023
-21.697
-19.759
-17.727
-14.581
-9.339
-1.603
8.746
21.633
36.621
53.215
70.579
86.954
100.368
109.396
113.177
111.606
105.071
94.973
83.196
71.351
62.703
58.582
59.886
71.866
97.851
142.399
210.307
297.38
398.44
507.972
617.985
725.873
829.193
922.486
1001.206
1059.778
1093.42
1100.301
1081.076
1037.239
969.725
881.909
776.197
655.671
529.413
404.294
287.62
187.642
104.123
36.419
-16.134
-57.53
-87.073
-103.771
-108.837
-102.705
-88.226
-69.141
-47.635
-24.907
-1.536
21.945
44.492
64.534
81.241
94.883
105.902
114.427
120.594
124.542
126.991
129.572
133.331
138.475
144.918
152.294
160.237
168.543
176.639
183.457
188.319
190.977
191.424
189.99
186.995
182.663
177.358
171.562
165.613
159.745
154.127
148.845
144.014
139.741
136.057
132.952
130.403
128.397
126.911
125.906
125.313
125.055
125.071
125.331
125.814
126.48
127.269
128.087
128.834
129.45
129.896
130.144
130.185
130.017
129.649
129.125
128.499
127.815
127.112
126.414
125.736
125.109
124.567
124.15
123.907
123.872
124.067
124.512
125.22
126.195
127.437
128.931
130.651
132.577
134.69
136.97
139.401
141.96
144.62
147.356
150.137
152.932
155.714
158.449
161.106
163.655
166.064
168.306
170.355
172.186
173.769
175.081
176.094
176.786
177.135
177.122
176.726
175.933
174.73
173.106
171.055
168.572
165.656
162.307
158.53
154.331
149.72
144.71
139.316
133.555
127.447
121.014
114.279
107.269
100.01
92.533
84.866
77.042
69.091
61.046
52.94
44.805
36.672
28.573
20.538
12.597
4.777
-2.895
-10.392
-17.692
-24.772
-31.611
-38.193
-44.5
-50.519
-56.238
-61.647
-66.738
-71.505
-75.947
-80.06
-83.847
-87.309
-90.451
-93.279
-95.801
-98.026
-99.965
-101.628
-103.03
-104.182
-105.098
-105.794
-106.283
-106.58
-106.699
-106.654
-106.459
-106.127
-105.67
-105.099
-104.427
-103.662
-102.815
-101.893
-100.904
-99.855
-98.751
-97.598
-96.398
-95.155
-93.871
-92.547
-91.183
-89.778
-88.332
-86.844
-85.311
-83.733
-82.108
-80.434
-78.711
-76.937
-75.113
-73.238
-71.312
-69.336
-67.312
-65.243
-63.13
-60.98
-58.795
-56.582
-54.348
-52.099
-49.846
-47.596
-45.357
-43.141
-40.956
-38.814
-36.726
-34.702
-32.754
-30.894
-29.135
-27.487
-25.962
-24.57
-23.321
-22.222
-21.28
-20.5
-19.885
-19.435
-19.153
-19.037
-19.086
-19.3
-19.674
-20.205
-20.892
-21.727
-22.706
-23.819
-25.051
-26.389
-27.82
-29.326
-30.892
-32.498
-34.125
-35.756
-37.379
-38.979
-40.541
-42.044
-43.462
-44.776
-45.978
-47.061
-48.022
-48.864
-49.592
-50.224
-50.797
-51.342
-51.891
-52.46
-53.044
-53.642
-54.262
-54.906
-55.589
-56.302
-57.014
-57.707
-58.37
-58.984
-59.537
-59.98
-60.23
-60.225
-59.922
-59.31
-58.427
-57.309
-55.989
-54.528
-52.995
-51.497
-50.181
-49.161
-48.52
-48.351
-48.735
-49.794
-51.695
-54.565
-58.493
-63.529
-69.67
-76.906
-85.224
-94.559
-104.808
-115.826
-127.422
-139.443
-151.778
-164.306
-176.914
-189.461
-201.765
-213.684
-225.119
-235.981
-246.214
-255.761
-264.558
-272.591
-279.882
-286.477
-292.447
-297.836
-302.65
-306.905
-310.613
-313.802
-316.512
-318.759
-320.533
-321.824
-322.626
-322.945
-322.794
-322.17
-321.062
-319.459
-317.365
-314.802
-311.798
-308.374
-304.543
-300.307
-295.675
-290.663
-285.292
-279.596
-273.603
-267.333
-260.822
-254.101
-247.189
-240.092
-232.786
-225.231
-217.424
-209.38
-201.132
-192.75
-184.308
-175.896
-167.637
-159.628
-151.955
-144.7
-137.914
-131.65
-125.988
-121.009
-116.813
-113.528
-111.228
-109.967
-109.791
-110.682
-112.597
-115.456
-119.117
-123.45
-128.35
-133.694
-139.377
-145.301
-151.328
-157.321
-163.142
-168.617
-173.6
-177.962
-181.562
-184.302
-186.157
-187.182
-187.508
-187.246
-186.46
-185.209
-183.542
-181.54
-179.201
-176.323
-172.804
-168.825
-164.659
-160.767
-157.013
-152.442
-146.779
-140.825
-137.603
-141.384
-154.384
-175.116
-196.203
-207.723
-201.567
-175.053
-135.426
-95.185
-67.952
-62.528
-76.913
-102.927
-129.191
-148.139
-159.603
-164.597
-163.056
-148.793
-111.343
-44.664
50.372
164.285
284.687
402.95
515.085
621.389
720.815
809.012
880.643
929.997
953.765
951.67
924.103
872.183
798.457
706.383
600.423
486.126
368.854
253.211
144.11
46.175
-37.069
-103.051
-151.031
-182.13
-198.108
-200.88
-193.034
-177.499
-157.331
-135.598
-114.126
-93.522
-74.006
-55.927
-39.782
-26.006
-14.724
-5.562
1.572
6.283
8.127
7.105
3.822
-0.733
-5.484
-9.944
-13.913
-17.06
-19.141
-20.101
-20.14
-19.837
-19.957
-20.789
-22.28
-24.336
-26.736
-29.331
-32.004
-34.444
-36.24
-37.156
-37.112
-36.104
-34.207
-31.449
-27.839
-23.456
-18.445
-12.97
-7.168
-1.136
5.056
11.361
17.736
24.145
30.575
37.035
43.53
50.061
56.617
63.178
69.736
76.297
82.879
89.52
96.249
103.089
110.068
117.203
124.5
131.963
139.582
147.336
155.209
163.186
171.251
179.396
187.606
195.864
204.15
212.441
220.709
228.93
237.073
245.107
253.002
260.727
268.255
275.56
282.613
289.385
295.847
301.969
307.719
313.07
317.988
322.446
326.414
329.866
332.777
335.124
336.888
338.049
338.591
338.5
337.765
336.376
334.328
331.617
328.242
324.207
319.517
314.18
308.207
301.614
294.418
286.638
278.298
269.424
260.044
250.189
239.891
229.185
218.109
206.701
195.001
183.051
170.894
158.572
146.129
133.611
121.061
108.522
96.039
83.653
71.406
59.339
47.491
35.899
24.599
13.625
3.009
-7.221
-17.036
-26.413
-35.329
-43.764
-51.703
-59.13
-66.036
-72.412
-78.254
-83.558
-88.326
-92.562
-96.271
-99.462
-102.148
-104.341
-106.057
-107.315
-108.134
-108.536
-108.543
-108.18
-107.472
-106.446
-105.129
-103.548
-101.732
-99.708
-97.504
-95.15
-92.672
-90.097
-87.452
-84.762
-82.053
-79.347
-76.666
-74.032
-71.462
-68.975
-66.585
-64.306
-62.151
-60.128
-58.246
-56.512
-54.93
-53.503
-52.232
-51.117
-50.157
-49.35
-48.691
-48.175
-47.797
-47.551
-47.429
-47.423
-47.525
-47.726
-48.017
-48.39
-48.834
-49.341
-49.901
-50.505
-51.145
-51.813
-52.502
-53.205
-53.916
-54.632
-55.348
-56.062
-56.772
-57.477
-58.179
-58.877
-59.576
-60.277
-60.984
-61.702
-62.436
-63.19
-63.971
-64.782
-65.63
-66.52
-67.457
-68.446
-69.49
-70.596
-71.766
-73.004
-74.313
-75.696
-77.154
-78.688
-80.3
-81.987
-83.75
-85.586
-87.49
-89.459
-91.488
-93.569
-95.696
-97.859
-100.049
-102.255
-104.467
-106.672
-108.857
-111.011
-113.119
-115.169
-117.148
-119.042
-120.839
-122.528
-124.096
-125.533
-126.827
-127.971
-128.954
-129.769
-130.407
-130.864
-131.132
-131.208
-131.087
-130.767
-130.246
-129.524
-128.6
-127.478
-126.158
-124.645
-122.944
-121.06
-118.999
-116.769
-114.378
-111.834
-109.148
-106.329
-103.385
-100.329
-97.17
-93.918
-90.583
-87.173
-83.699
-80.167
-76.586
-72.962
-69.302
-65.611
-61.893
-58.155
-54.398
-50.627
-46.844
-43.05
-39.247
-35.435
-31.614
-27.783
-23.941
-20.087
-16.217
-12.332
-8.427
-4.501
-0.552
3.424
7.428
11.462
15.528
19.627
23.76
27.925
32.121
36.346
40.596
44.866
49.146
53.428
57.699
61.947
66.157
70.313
74.398
78.395
82.289
86.062
89.699
93.183
96.494
99.612
102.516
105.184
107.598
109.737
111.583
113.118
114.326
115.199
115.727
115.9
115.701
115.101
114.079
112.621
110.716
108.364
105.568
102.337
98.695
94.685
90.355
85.75
80.91
75.86
70.634
65.272
59.837
54.412
49.063
43.843
38.787
33.913
29.225
24.715
20.326
15.964
11.531
6.911
2.001
-3.271
-9.006
-15.3
-22.293
-30.212
-39.213
-49.332
-60.43
-72.186
-84.27
-96.355
-107.953
-118.408
-127.158
-133.879
-138.867
-142.936
-146.703
-150.97
-156.702
-164.493
-175.014
-187.594
-199.208
-207.802
-212.224
-212.122
-209.634
-201.972
-181.673
-141.962
-75.577
16.041
122.809
234.892
341.458
436.699
520.377
590.32
644.59
680.644
694.373
684.666
652.29
598.391
526.003
438.672
339.76
233.763
125.415
18.574
-82.924
-175.432
-256.201
-322.798
-373.403
-408.009
-427.61
-433.369
-426.931
-410.032
-384.489
-352.788
-317.562
-280.51
-242.769
-205.33
-169.248
-136.038
-107.171
-83.48
-65.106
-52.083
-44.489
-42.283
-44.943
-51.206
-59.457
-68.15
-76.395
-83.755
-89.841
-94.414
-97.501
-99.466
-100.994
-102.887
-105.467
-108.687
-112.441
-116.485
-120.561
-124.415
-127.645
-129.801
-130.68
-130.273
-128.664
-126.053
-122.6
-118.445
-113.793
-108.876
-103.904
-99.024
-94.32
-89.836
-85.63
-81.763
-78.281
-75.204
-72.519
-70.205
-68.244
-66.611
-65.275
-64.187
-63.29
-62.519
-61.81
-61.116
-60.4
-59.629
-58.775
-57.811
-56.712
-55.462
-54.054
-52.472
-50.698
-48.713
-46.499
-44.045
-41.344
-38.387
-35.162
-31.654
-27.85
-23.751
-19.357
-14.673
-9.713
-4.488
0.978
6.644
12.468
18.411
24.431
30.509
36.625
42.753
48.868
54.939
60.948
66.905
72.825
78.714
84.586
90.45
96.33
102.286
108.363
114.587
120.969
127.478
134.067
140.696
147.313
153.846
160.203
166.247
171.823
176.811
181.09
184.548
187.065
188.475
188.638
187.457
184.862
180.832
175.374
168.496
160.227
150.648
139.867
128.043
115.368
101.991
88.05
73.692
59.059
44.333
29.683
15.232
1.083
-12.684
-26.005
-38.813
-51.053
-62.72
-73.824
-84.407
-94.536
-104.24
-113.537
-122.448
-130.99
-139.191
-147.078
-154.651
-161.896
-168.8
-175.351
-181.545
-187.377
-192.821
-197.843
-202.408
-206.473
-210.013
-213.017
-215.475
-217.384
-218.747
-219.568
-219.866
-219.671
-219.006
-217.895
-216.359
-214.419
-212.103
-209.443
-206.468
-203.21
-199.697
-195.955
-192.012
-187.892
-183.618
-179.21
-174.686
-170.062
-165.355
-160.583
-155.764
-150.914
-146.05
-141.188
-136.343
-131.53
-126.763
-122.054
-117.415
-112.856
-108.386
-104.015
-99.751
-95.602
-91.574
-87.675
-83.911
-80.287
-76.808
-73.479
-70.306
-67.291
-64.439
-61.753
-59.238
-56.895
-54.73
-52.743
-50.939
-49.319
-47.885
-46.638
-45.579
-44.709
-44.028
-43.533
-43.224
-43.098
-43.152
-43.382
-43.784
-44.353
-45.082
-45.965
-46.995
-48.163
-49.462
-50.881
-52.412
-54.042
-55.762
-57.56
-59.424
-61.342
-63.301
-65.29
-67.295
-69.304
-71.304
-73.282
-75.226
-77.123
-78.961
-80.729
-82.415
-84.007
-85.495
-86.869
-88.119
-89.237
-90.214
-91.044
-91.719
-92.234
-92.586
-92.77
-92.784
-92.626
-92.295
-91.791
-91.115
-90.267
-89.251
-88.068
-86.722
-85.217
-83.556
-81.743
-79.784
-77.682
-75.443
-73.07
-70.568
-67.941
-65.194
-62.33
-59.355
-56.272
-53.086
-49.801
-46.421
-42.95
-39.39
-35.746
-32.02
-28.215
-24.331
-20.37
-16.333
-12.22
-8.033
-3.77
0.567
4.98
9.467
14.029
18.667
23.384
28.181
33.058
38.015
43.049
48.161
53.354
58.617
63.94
69.315
74.728
80.183
85.691
91.236
96.8
102.406
108.072
113.808
119.634
125.519
131.408
137.316
143.279
149.168
154.832
160.342
165.679
170.804
176.011
180.483
183.422
185.95
188.403
192.85
201.773
212.432
223.001
230.757
231.963
229.935
227.49
226.574
230.378
236.646
243.085
249.186
253.554
257.015
260.623
264.179
267.817
271.474
274.959
278.46
282.141
286.004
290.071
294.361
298.864
303.598
308.602
313.915
319.577
325.625
332.052
338.893
346.236
354.067
362.287
370.614
378.583
385.941
392.68
398.792
404.245
409.103
413.469
417.913
423.554
431.006
440.34
451.425
463.845
477.202
491.18
504.566
515.177
521.572
522.949
518.802
509.553
495.595
477.1
456.792
438.651
424.62
417.655
418.672
426.973
447.468
482.913
534.027
602.998
685.05
775.67
873.227
969.74
1057.013
1126.682
1167.572
1177.187
1159.304
1118.789
1063.03
993.473
908.504
807.666
691.408
567.559
444.813
330.904
233.175
151.169
83.651
29.848
-13.166
-44.4
-63.038
-70.218
-66.189
-53.119
-33.809
-10.088
16.303
44.393
73.448
102.394
129.823
154.281
175.083
192.117
205.469
215.394
222.162
226.312
229.016
231.468
234.23
237.455
240.963
244.351
247.337
249.448
249.81
247.761
243.042
235.669
225.971
214.333
201.043
186.525
171.358
155.995
140.755
125.828
111.281
97.22
83.761
70.958
58.799
47.256
36.3
25.91
16.083
6.827
-1.861
-9.982
-17.509
-24.42
-30.692
-36.277
-41.181
-45.435
-49.049
-52.033
-54.381
-56.074
-57.114
-57.487
-57.163
-56.147
-54.458
-52.138
-49.286
-45.954
-42.195
-38.095
-33.702
-29.076
-24.305
-19.447
-14.566
-9.745
-5.065
-0.64
3.379
6.897
9.832
12.13
13.77
14.676
14.772
14.029
12.417
9.94
6.633
2.505
-2.43
-8.109
-14.447
-21.32
-28.556
-36.038
-43.67
-51.354
-59.01
-66.512
-73.737
-80.603
-87.048
-93.027
-98.512
-103.459
-107.828
-111.63
-114.895
-117.679
-120.067
-122.105
-123.822
-125.252
-126.423
-127.38
-128.164
-128.792
-129.265
-129.589
-129.767
-129.814
-129.746
-129.553
-129.216
-128.713
-128.013
-127.106
-125.992
-124.671
-123.149
-121.439
-119.559
-117.541
-115.428
-113.254
-111.051
-108.849
-106.675
-104.565
-102.551
-100.664
-98.934
-97.392
-96.067
-94.997
-94.211
-93.724
-93.541
-93.658
-94.057
-94.727
-95.651
-96.804
-98.168
-99.736
-101.507
-103.504
-105.751
-108.25
-110.995
-113.957
-117.106
-120.439
-123.952
-127.646
-131.541
-135.651
-139.996
-144.626
-149.565
-154.797
-160.281
-165.926
-171.619
-177.285
-182.864
-188.313
-193.605
-198.684
-203.498
-208.006
-212.147
-215.858
-219.066
-221.658
-223.549
-224.719
-225.185
-225.027
-224.364
-223.277
-221.835
-220.104
-218.132
-215.979
-213.706
-211.347
-208.95
-206.578
-204.308
-202.255
-200.521
-199.152
-198.166
-197.538
-197.206
-197.139
-197.31
-197.685
-198.246
-198.981
-199.875
-200.94
-202.187
-203.609
-205.186
-206.875
-208.633
-210.441
-212.291
-214.188
-216.151
-218.189
-220.302
-222.502
-224.787
-227.146
-229.566
-232.017
-234.465
-236.883
-239.25
-241.548
-243.765
-245.882
-247.879
-249.737
-251.435
-252.955
-254.278
-255.386
-256.261
-256.893
-257.273
-257.398
-257.269
-256.887
-256.255
-255.377
-254.259
-252.907
-251.329
-249.534
-247.53
-245.329
-242.943
-240.388
-237.679
-234.833
-231.869
-228.804
-225.658
-222.451
-219.201
-215.928
-212.65
-209.384
-206.148
-202.958
-199.829
-196.776
-193.814
-190.954
-188.21
-185.591
-183.106
-180.763
-178.566
-176.522
-174.632
-172.897
-171.319
-169.897
-168.629
-167.514
-166.55
-165.732
-165.057
-164.519
-164.112
-163.828
-163.66
-163.598
-163.634
-163.759
-163.963
-164.239
-164.578
-164.973
-165.415
-165.896
-166.411
-166.95
-167.507
-168.075
-168.648
-169.22
-169.786
-170.343
-170.887
-171.415
-171.926
-172.416
-172.884
-173.328
-173.744
-174.13
-174.484
-174.803
-175.083
-175.321
-175.516
-175.666
-175.77
-175.829
-175.843
-175.814
-175.741
-175.625
-175.467
-175.265
-175.016
-174.717
-174.364
-173.959
-173.5
-172.988
-172.427
-171.817
-171.161
-170.463
-169.721
-168.93
-168.084
-167.168
-166.173
-165.104
-163.966
-162.775
-161.553
-160.317
-159.087
-157.888
-156.726
-155.6
-154.498
-153.393
-152.27
-151.125
-149.959
-148.791
-147.63
-146.457
-145.243
-143.939
-142.456
-140.707
-138.599
-136.015
-132.881
-129.159
-124.827
-119.906
-114.423
-108.379
-101.777
-94.625
-86.935
-78.77
-70.223
-61.413
-52.517
-43.744
-35.344
-27.594
-20.745
-14.98
-10.413
-7.179
-5.449
-5.32
-6.784
-9.669
-13.596
-18.179
-23.107
-27.865
-31.75
-34.247
-35.09
-34.445
-32.987
-31.525
-30.75
-31.428
-34.608
-39.832
-45.042
-48.305
-46.817
-40.638
-33.712
-26.088
-15.417
5.139
49.853
125.992
233.529
366.704
506.654
636.047
743.574
819.446
865.931
889.681
893.313
881.04
851.978
801.108
728.292
635.282
525.956
407.737
286.84
167.681
54.714
-48.145
-137.801
-211.622
-268.084
-307.529
-331.297
-340.643
-337.307
-323.661
-302.149
-275.633
-246.932
-217.754
-189.206
-162.752
-139.885
-121.746
-109.215
-102.199
-99.886
-101.87
-107.869
-117.02
-128.045
-139.429
-149.536
-157.581
-163.58
-167.427
-169.025
-168.555
-166.359
-163.162
-159.967
-157.255
-155
-153.107
-151.376
-149.653
-147.887
-145.83
-143.077
-139.417
-134.8
-129.317
-123.214
-116.663
-109.75
-102.586
-95.294
-87.991
-80.8
-73.794
-66.974
-60.341
-53.895
-47.647
-41.63
-35.864
-30.352
-25.071
-19.979
-15.051
-10.269
-5.618
-1.079
3.377
7.79
12.187
16.577
20.972
25.386
29.837
34.354
38.958
43.664
48.485
53.428
58.507
63.735
69.122
74.676
80.4
86.293
92.356
98.591
104.994
111.558
118.272
125.12
132.085
139.151
146.295
153.493
160.717
167.94
175.13
182.258
189.29
196.192
202.929
209.466
215.767
221.797
227.52
232.904
237.914
242.519
246.69
250.399
253.619
256.327
258.503
260.128
261.187
261.668
261.563
260.866
259.577
257.697
255.233
252.195
248.595
244.449
239.778
234.604
228.954
222.856
216.342
209.444
202.199
194.644
186.818
178.76
170.512
162.114
153.608
145.036
136.437
127.853
119.323
110.884
102.574
94.428
86.478
78.758
71.295
64.117
57.249
50.711
44.523
38.7
33.256
28.2
23.537
19.273
15.408
11.938
8.859
6.164
3.84
1.877
0.257
-1.036
-2.021
-2.72
-3.154
-3.346
-3.322
-3.105
-2.722
-2.197
-1.558
-0.829
-0.036
0.795
1.64
2.475
3.276
4.021
4.689
5.261
5.717
6.041
6.218
6.235
6.08
5.743
5.217
4.496
3.575
2.451
1.125
-0.403
-2.13
-4.051
-6.162
-8.454
-10.919
-13.549
-16.333
-19.259
-22.316
-25.491
-28.771
-32.142
-35.59
-39.1
-42.657
-46.245
-49.85
-53.454
-57.044
-60.603
-64.116
-67.568
-70.946
-74.235
-77.422
-80.493
-83.438
-86.243
-88.899
-91.395
-93.722
-95.873
-97.838
-99.613
-101.191
-102.567
-103.738
-104.699
-105.449
-105.985
-106.306
-106.412
-106.304
-105.982
-105.45
-104.711
-103.768
-102.628
-101.296
-99.778
-98.083
-96.219
-94.195
-92.021
-89.708
-87.267
-84.71
-82.05
-79.3
-76.474
-73.586
-70.649
-67.68
-64.691
-61.698
-58.716
-55.758
-52.84
-49.976
-47.181
-44.468
-41.851
-39.343
-36.958
-34.707
-32.601
-30.652
-28.868
-27.259
-25.831
-24.591
-23.546
-22.698
-22.052
-21.608
-21.368
-21.331
-21.493
-21.852
-22.401
-23.134
-24.044
-25.12
-26.353
-27.732
-29.243
-30.875
-32.613
-34.442
-36.348
-38.314
-40.324
-42.36
-44.406
-46.445
-48.459
-50.431
-52.345
-54.185
-55.933
-57.577
-59.099
-60.487
-61.727
-62.807
-63.715
-64.441
-64.977
-65.315
-65.45
-65.377
-65.095
-64.603
-63.9
-62.99
-61.876
-60.563
-59.057
-57.364
-55.494
-53.457
-51.264
-48.926
-46.457
-43.872
-41.184
-38.41
-35.563
-32.662
-29.72
-26.755
-23.782
-20.819
-17.881
-14.986
-12.15
-9.39
-6.72
-4.158
-1.718
0.588
2.746
4.746
6.578
8.231
9.698
10.972
12.045
12.911
13.561
13.987
14.185
14.148
13.875
13.363
12.611
11.617
10.386
8.919
7.222
5.299
3.152
0.785
-1.798
-4.586
-7.569
-10.73
-14.056
-17.533
-21.139
-24.858
-28.67
-32.559
-36.519
-40.543
-44.623
-48.745
-52.891
-57.034
-61.149
-65.202
-69.148
-72.943
-76.54
-79.895
-82.97
-85.718
-88.099
-90.067
-91.578
-92.599
-93.091
-93.01
-92.323
-91.021
-89.136
-86.755
-83.953
-80.77
-77.327
-73.838
-70.637
-68.097
-66.408
-65.603
-65.741
-66.945
-69.196
-72.145
-74.939
-76.519
-76.248
-73.937
-69.591
-63.237
-55.027
-45.666
-36.881
-30.975
-29.707
-33.899
-42.783
-54.33
-66.703
-78.397
-89.552
-100.999
-111.002
-114.206
-100.296
-58.535
15.805
118.981
238.547
360.713
476.036
580.625
675.334
759.685
830.345
882.839
912.135
915.751
893.797
846.994
777.377
688.005
582.424
465.38
342.311
218.311
98.433
-12.202
-109.47
-190.235
-252.213
-294.915
-319.03
-325.657
-317.09
-296.697
-267.88
-234.182
-199.119
-165.046
-133.899
-107.71
-87.304
-72.461
-62.578
-56.394
-52.289
-49.172
-45.802
-40.496
-32.379
-21.221
-7.043
9.527
27.583
46.42
65.093
82.365
97.541
110.308
120.489
128.284
133.993
137.846
140.283
141.879
142.945
143.638
144.046
144.109
143.846
143.377
142.731
141.902
140.935
139.873
138.814
137.917
137.249
136.806
136.568
136.486
136.549
136.789
137.216
137.828
138.617
139.553
140.63
141.866
143.248
144.75
146.321
147.885
149.408
150.898
152.37
153.854
155.371
156.932
158.564
160.307
162.197
164.263
166.526
168.992
171.681
174.624
177.856
181.422
185.346
189.634
194.29
199.306
204.672
210.371
216.376
222.646
229.146
235.84
242.695
249.68
256.755
263.877
271
278.077
285.061
291.906
298.567
304.999
311.157
317
322.491
327.596
332.278
336.506
340.248
343.473
346.155
348.27
349.8
350.724
351.031
350.71
349.757
348.169
345.949
343.102
339.639
335.571
330.916
325.692
319.922
313.631
306.848
299.604
291.931
283.864
275.439
266.695
257.67
248.403
238.936
229.308
219.56
209.732
199.864
189.994
180.161
170.401
160.747
151.232
141.887
132.739
123.816
115.14
106.731
98.609
90.788
83.282
76.1
69.251
62.738
56.564
50.728
45.227
40.057
35.209
30.675
26.443
22.502
18.837
15.432
12.272
9.34
6.615
4.08
1.715
-0.5
-2.584
-4.556
-6.434
-8.238
-9.982
-11.683
-13.356
-15.014
-16.668
-18.33
-20.009
-21.712
-23.446
-25.215
-27.022
-28.867
-30.751
-32.672
-34.625
-36.608
-38.614
-40.636
-42.667
-44.698
-46.722
-48.728
-50.705
-52.644
-54.533
-56.361
-58.116
-59.789
-61.367
-62.842
-64.203
-65.443
-66.553
-67.528
-68.363
-69.052
-69.593
-69.986
-70.228
-70.323
-70.272
-70.08
-69.752
-69.297
-68.723
-68.04
-67.259
-66.392
-65.453
-64.456
-63.416
-62.348
-61.268
-60.194
-59.141
-58.129
-57.174
-56.294
-55.507
-54.831
-54.283
-53.879
-53.635
-53.567
-53.689
-54.015
-54.556
-55.325
-56.33
-57.582
-59.086
-60.85
-62.878
-65.172
-67.734
-70.563
-73.658
-77.016
-80.632
-84.501
-88.614
-92.965
-97.543
-102.339
-107.341
-112.536
-117.912
-123.454
-129.149
-134.98
-140.933
-146.991
-153.137
-159.356
-165.631
-171.944
-178.281
-184.624
-190.957
-197.266
-203.535
-209.749
-215.895
-221.959
-227.929
-233.794
-239.541
-245.161
-250.645
-255.984
-261.17
-266.197
-271.057
-275.747
-280.26
-284.594
-288.744
-292.707
-296.481
-300.065
-303.456
-306.655
-309.66
-312.473
-315.092
-317.52
-319.756
-321.803
-323.661
-325.332
-326.817
-328.117
-329.235
-330.17
-330.924
-331.499
-331.895
-332.115
-332.158
-332.026
-331.72
-331.24
-330.587
-329.761
-328.764
-327.595
-326.256
-324.745
-323.065
-321.217
-319.2
-317.016
-314.667
-312.153
-309.476
-306.638
-303.639
-300.483
-297.169
-293.701
-290.08
-286.309
-282.39
-278.327
-274.122
-269.779
-265.301
-260.693
-255.959
-251.102
-246.127
-241.038
-235.841
-230.539
-225.137
-219.641
-214.057
-208.389
-202.644
-196.826
-190.943
-185.001
-179.004
-172.96
-166.874
-160.753
-154.606
-148.438
-142.259
-136.076
-129.899
-123.739
-117.609
-111.522
-105.491
-99.53
-93.655
-87.88
-82.222
-76.695
-71.311
-66.083
-61.025
-56.15
-51.473
-47.009
-42.775
-38.784
-35.052
-31.592
-28.417
-25.538
-22.957
-20.68
-18.71
-17.056
-15.738
-14.773
-14.172
-13.944
-14.096
-14.62
-15.508
-16.733
-18.25
-20.011
-21.969
-24.079
-26.31
-28.629
-30.996
-33.364
-35.667
-37.838
-39.825
-41.573
-43.051
-44.256
-45.208
-45.963
-46.631
-47.309
-48.114
-49.162
-50.534
-52.326
-54.635
-57.552
-61.258
-65.966
-71.801
-78.839
-87.006
-96.008
-105.502
-115.036
-123.908
-131.396
-136.964
-140.214
-141.208
-140.646
-139.446
-138.709
-139.876
-143.173
-147.354
-151.701
-154.841
-157.533
-163.467
-171.904
-179.049
-176.509
-150.425
-93.525
-5.318
109.704
239.678
373.639
502.332
614.745
702.538
761.114
790.605
796.906
786.765
763.53
725.711
669.355
593.252
499.882
394.678
284.694
174.655
67.777
-31.716
-120.236
-194.912
-253.306
-294.991
-320.885
-331.361
-327.332
-311.481
-286.86
-256.77
-224.737
-192.923
-162.765
-136.294
-115.097
-99.48
-89.185
-83.249
-80.109
-78.881
-78.838
-78.609
-77.089
-73.777
-68.455
-61.464
-53.526
-45.056
-36.519
-28.712
-22.135
-16.995
-13.353
-10.945
-9.409
-8.481
-7.805
-6.935
-5.602
-3.669
-1.088
2.04
5.6
9.513
13.668
17.915
22.123
26.164
29.918
33.337
36.417
39.126
41.43
43.304
44.723
45.702
46.285
46.513
46.43
46.081
45.508
44.773
43.958
43.139
42.406
41.802
41.324
40.987
40.813
40.834
41.09
41.607
42.39
43.462
44.858
46.611
48.754
51.298
54.237
57.571
61.3
65.443
70.035
75.088
80.605
86.586
93.013
99.866
107.115
114.698
122.554
130.635
138.9
147.328
155.902
164.595
173.382
182.235
191.127
200.038
208.94
217.791
226.57
235.269
243.907
252.539
261.188
269.836
278.45
286.966
295.312
303.415
311.173
318.462
325.171
331.197
336.462
340.922
344.502
347.112
348.638
348.935
347.908
345.516
341.738
336.583
330.096
322.337
313.418
303.509
292.748
281.258
269.14
256.465
243.33
229.86
216.186
202.462
188.816
175.339
162.12
149.237
136.735
124.642
112.944
101.578
90.513
79.741
69.263
59.109
49.291
39.807
30.659
21.848
13.375
5.248
-2.532
-9.968
-17.049
-23.757
-30.056
-35.894
-41.236
-46.066
-50.376
-54.171
-57.457
-60.242
-62.542
-64.385
-65.795
-66.794
-67.405
-67.645
-67.537
-67.112
-66.401
-65.438
-64.258
-62.887
-61.356
-59.69
-57.913
-56.048
-54.113
-52.122
-50.091
-48.035
-45.97
-43.911
-41.871
-39.862
-37.895
-35.981
-34.127
-32.341
-30.625
-28.983
-27.415
-25.923
-24.505
-23.159
-21.883
-20.672
-19.523
-18.432
-17.392
-16.4
-15.45
-14.536
-13.652
-12.795
-11.96
-11.142
-10.338
-9.545
-8.761
-7.983
-7.212
-6.446
-5.684
-4.926
-4.174
-3.427
-2.686
-1.953
-1.229
-0.516
0.184
0.867
1.532
2.175
2.794
3.384
3.943
4.467
4.955
5.403
5.81
6.173
6.491
6.763
6.989
7.169
7.303
7.393
7.441
7.448
7.419
7.357
7.266
7.15
7.014
6.863
6.703
6.539
6.375
6.219
6.074
5.946
5.841
5.763
5.717
5.707
5.736
5.81
5.93
6.099
6.319
6.593
6.919
7.3
7.733
8.219
8.754
9.337
9.963
10.629
11.33
12.06
12.813
13.582
14.359
15.136
15.906
16.658
17.385
18.076
18.723
19.316
19.846
20.303
20.68
20.967
21.156
21.239
21.211
21.063
20.79
20.387
19.85
19.175
18.358
17.399
16.295
15.047
13.657
12.124
10.454
8.65
6.716
4.659
2.487
0.207
-2.171
-4.637
-7.18
-9.788
-12.449
-15.147
-17.871
-20.605
-23.334
-26.043
-28.716
-31.338
-33.895
-36.371
-38.751
-41.022
-43.168
-45.178
-47.039
-48.737
-50.262
-51.603
-52.75
-53.693
-54.427
-54.944
-55.24
-55.311
-55.153
-54.767
-54.153
-53.312
-52.249
-50.967
-49.473
-47.775
-45.882
-43.807
-41.561
-39.158
-36.614
-33.945
-31.171
-28.308
-25.376
-22.393
-19.382
-16.361
-13.351
-10.375
-7.455
-4.612
-1.874
0.736
3.193
5.473
7.553
9.412
11.028
12.385
13.469
14.269
14.773
14.97
14.847
14.4
13.622
12.513
11.075
9.308
7.22
4.824
2.142
-0.807
-4.007
-7.452
-11.141
-15.067
-19.213
-23.558
-28.08
-32.751
-37.537
-42.389
-47.237
-52.012
-56.651
-61.104
-65.331
-69.278
-72.875
-76.043
-78.691
-80.75
-82.181
-82.945
-83.015
-82.396
-81.106
-79.197
-76.784
-73.986
-70.931
-67.762
-64.591
-61.54
-58.801
-56.633
-55.263
-54.781
-55.038
-55.722
-56.531
-57.168
-57.26
-56.29
-53.746
-49.474
-44.045
-38.475
-33.708
-30.752
-30.514
-33.556
-40.447
-50.19
-59.254
-65.124
-66.033
-61.255
-53.221
-39.208
-11.768
35.472
109.485
208.394
320.811
435.988
542.919
635.206
712.538
773.11
814.751
834.927
830.362
800.347
745.742
668.669
573.003
462.998
343.788
221.108
99.711
-15.984
-121.712
-214.297
-291.272
-351.043
-394.014
-421.606
-435.21
-436.855
-428.841
-413.454
-393.458
-371.434
-348.759
-326.425
-305.479
-286.517
-270.083
-256.369
-244.772
-234.435
-224.902
-215.683
-206.078
-195.606
-183.706
-170.049
-154.934
-138.963
-122.683
-106.758
-91.982
-78.858
-67.847
-59.285
-53.101
-49.071
-46.912
-46.164
-46.332
-47.123
-48.319
-49.763
-51.41
-53.143
-54.857
-56.534
-58.146
-59.639
-60.923
-61.851
-62.319
-62.313
-61.858
-61.012
-59.83
-58.317
-56.48
-54.346
-51.942
-49.314
-46.494
-43.485
-40.312
-37.02
-33.678
-30.383
-27.193
-24.117
-21.147
-18.263
-15.437
-12.66
-9.903
-7.123
-4.283
-1.351
1.699
4.878
8.21
11.731
15.487
19.53
23.897
28.605
33.664
39.079
44.847
50.963
57.41
64.157
71.179
78.454
85.961
93.682
101.591
109.658
117.85
126.133
134.473
142.837
151.189
159.496
167.724
175.839
183.811
191.612
199.213
206.582
213.689
220.503
226.997
233.143
238.913
244.283
249.23
253.732
257.773
261.337
264.411
266.983
269.047
270.596
271.628
272.14
272.135
271.616
270.587
269.056
267.034
264.53
261.557
258.132
254.268
249.986
245.302
240.239
234.816
229.056
222.981
216.617
209.987
203.116
196.029
188.751
181.31
173.73
166.038
158.258
150.415
142.534
134.638
126.75
118.891
111.082
103.344
95.694
88.151
80.731
73.451
66.326
59.368
52.592
46.009
39.629
33.464
27.521
21.809
16.335
11.105
6.123
1.394
-3.078
-7.291
-11.244
-14.936
-18.367
-21.539
-24.454
-27.117
-29.53
-31.697
-33.623
-35.313
-36.774
-38.011
-39.031
-39.841
-40.448
-40.861
-41.089
-41.143
-41.03
-40.759
-40.336
-39.77
-39.075
-38.262
-37.345
-36.334
-35.243
-34.083
-32.869
-31.614
-30.329
-29.023
-27.705
-26.381
-25.064
-23.768
-22.507
-21.298
-20.139
-19.031
-17.971
-16.951
-15.99
-15.107
-14.303
-13.587
-12.959
-12.4
-11.962
-11.704
-11.544
-11.43
-11.299
-11.044
-10.787
-10.691
-10.698
-10.773
-11.103
-11.781
-13.039
-15.177
-17.892
-20.832
-23.991
-27.276
-30.46
-33.458
-35.882
-37.283
-38.032
-38.511
-38.784
-39.047
-39.409
-39.857
-40.726
-42.372
-44.505
-46.855
-49.317
-51.681
-53.939
-56.145
-58.114
-59.674
-60.93
-61.96
-62.818
-63.605
-64.272
-64.761
-65.108
-65.331
-65.416
-65.36
-65.146
-64.752
-64.199
-63.508
-62.689
-61.758
-60.719
-59.571
-58.326
-56.993
-55.581
-54.104
-52.572
-50.997
-49.391
-47.767
-46.139
-44.522
-42.932
-41.381
-39.885
-38.457
-37.116
-35.878
-34.759
-33.777
-32.945
-32.277
-31.787
-31.489
-31.393
-31.51
-31.849
-32.417
-33.222
-34.269
-35.562
-37.104
-38.895
-40.936
-43.226
-45.762
-48.54
-51.555
-54.8
-58.266
-61.944
-65.822
-69.886
-74.123
-78.516
-83.048
-87.701
-92.454
-97.289
-102.184
-107.117
-112.066
-117.009
-121.922
-126.781
-131.565
-136.249
-140.813
-145.234
-149.492
-153.568
-157.443
-161.099
-164.519
-167.689
-170.593
-173.219
-175.553
-177.586
-179.309
-180.714
-181.797
-182.556
-182.988
-183.095
-182.879
-182.345
-181.498
-180.347
-178.901
-177.172
-175.173
-172.92
-170.428
-167.72
-164.816
-161.742
-158.52
-155.177
-151.738
-148.233
-144.69
-141.14
-137.609
-134.123
-130.706
-127.385
-124.185
-121.131
-118.246
-115.545
-113.046
-110.766
-108.724
-106.937
-105.417
-104.165
-103.178
-102.454
-101.996
-101.817
-101.931
-102.342
-103.04
-104.013
-105.256
-106.76
-108.511
-110.483
-112.607
-114.8
-117.047
-119.341
-121.685
-124.099
-126.517
-128.813
-130.929
-132.831
-134.363
-135.386
-135.953
-135.983
-135.479
-134.872
-133.653
-131.504
-129.788
-128.848
-130.679
-137.677
-147.143
-157.266
-164.936
-165.564
-161.771
-156.154
-150.816
-149.307
-149.477
-149.013
-147.952
-146.151
-145.691
-148.514
-154.707
-164.214
-177.205
-192.713
-208.405
-221.992
-230.6
-234.353
-237.305
-239.926
-239.216
-227.382
-190.786
-122.058
-22.949
99.119
229.353
353.631
465.407
560.18
636.044
695.032
735.807
756.63
757.481
735.102
688.057
617.728
526.881
422.18
309.578
193.297
76.074
-41.834
-155.341
-255.859
-335.9
-387.416
-410.629
-413.652
-403.226
-387.036
-369.024
-347.471
-322.533
-294.809
-264.959
-235.364
-207.536
-182.039
-159.303
-139.345
-121.866
-106.635
-93.806
-83.633
-76.01
-70.476
-66.3
-62.579
-58.925
-55.402
-51.914
-48.347
-44.761
-41.337
-38.541
-37.057
-37.133
-38.59
-41.193
-44.62
-48.549
-52.753
-56.857
-60.337
-62.89
-64.398
-64.836
-64.315
-62.915
-60.657
-57.633
-53.995
-49.878
-45.444
-40.834
-36.15
-31.523
-27.073
-22.901
-19.11
-15.752
-12.84
-10.37
-8.31
-6.619
-5.265
-4.192
-3.342
-2.669
-2.127
-1.684
-1.316
-0.968
-0.587
-0.114
0.507
1.297
2.262
3.404
4.694
6.102
7.598
9.12
10.629
12.129
13.646
15.251
17.033
19.046
21.325
23.892
26.753
29.94
33.487
37.411
41.756
46.562
51.883
57.807
64.396
71.645
79.514
87.901
96.663
105.696
114.908
124.21
133.537
142.809
151.946
160.896
169.595
177.966
185.918
193.322
200.068
206.097
211.381
215.935
219.813
223.039
225.635
227.63
229.037
229.868
230.136
229.831
228.942
227.479
225.465
222.946
219.972
216.568
212.75
208.523
203.876
198.815
193.348
187.48
181.223
174.603
167.648
160.399
152.908
145.215
137.358
129.369
121.279
113.12
104.931
96.747
88.606
80.544
72.595
64.796
57.181
49.778
42.613
35.705
29.072
22.729
16.69
10.968
5.574
0.517
-4.195
-8.557
-12.563
-16.213
-19.506
-22.445
-25.037
-27.287
-29.204
-30.799
-32.083
-33.067
-33.766
-34.193
-34.363
-34.29
-33.99
-33.478
-32.769
-31.881
-30.827
-29.624
-28.287
-26.832
-25.275
-23.63
-21.912
-20.136
-18.316
-16.466
-14.598
-12.728
-10.866
-9.028
-7.225
-5.468
-3.771
-2.142
-0.594
0.865
2.226
3.479
4.617
5.633
6.52
7.27
7.877
8.335
8.639
8.782
8.761
8.57
8.206
7.666
6.946
6.045
4.963
3.699
2.254
0.631
-1.168
-3.138
-5.274
-7.571
-10.022
-12.617
-15.347
-18.203
-21.173
-24.245
-27.407
-30.642
-33.935
-37.277
-40.659
-44.071
-47.501
-50.928
-54.333
-57.709
-61.038
-64.283
-67.404
-70.351
-73.09
-75.64
-78.029
-80.236
-82.28
-84.229
-86.149
-88.138
-90.259
-92.397
-94.404
-96.285
-97.894
-98.823
-98.894
-98.102
-96.398
-94.349
-91.484
-85.397
-75.367
-63.146
-53.973
-57.195
-77.803
-110.179
-140.627
-151.798
-132.248
-88.714
-40.546
-6.93
-1.741
-21.299
-48.775
-71.154
-79.228
-73.394
-62.865
-52.811
-45.869
-42.504
-39.815
-36.821
-33.941
-31.159
-28.846
-27.112
-25.603
-24.195
-22.9
-21.623
-20.299
-18.948
-17.612
-16.333
-15.167
-14.123
-13.171
-12.318
-11.563
-10.886
-10.27
-9.69
-9.135
-8.62
-8.149
-7.691
-7.262
-6.909
-6.666
-6.574
-6.631
-6.762
-6.946
-7.252
-7.593
-7.702
-7.532
-7.153
-6.528
-5.952
-4.843
-1.57
3.416
8.664
11.62
7.627
-2.757
-14.925
-24.192
-23.918
-14.058
-0.814
11.04
16.239
14.156
9.447
4.874
2.428
2.579
3.41
4.116
4.734
5.201
5.797
6.564
7.237
7.733
8.081
8.258
8.237
8.014
7.589
6.974
6.2
5.269
4.148
2.822
1.288
-0.46
-2.426
-4.618
-7.048
-9.716
-12.606
-15.704
-18.993
-22.463
-26.117
-29.95
-33.953
-38.118
-42.432
-46.886
-51.47
-56.161
-60.909
-65.655
-70.343
-74.931
-79.408
-83.774
-88.018
-92.098
-95.948
-99.496
-102.677
-105.45
-107.759
-109.52
-110.738
-111.516
-112.061
-112.699
-113.733
-115.338
-117.633
-120.699
-124.32
-128.159
-131.841
-134.721
-136.234
-135.945
-133.424
-128.515
-121.703
-113.71
-105.18
-97.063
-90.224
-85.692
-84.875
-88.691
-97.026
-109.305
-124.977
-142.935
-161.96
-179.27
-190.073
-191.203
-180.9
-159.598
-130.128
-91.246
-39.335
29.94
122.464
236.849
366.299
500.444
623.324
723.148
792.372
828.97
838.644
826.381
796.421
749.862
683.894
598.861
497.081
383.229
264.786
147.068
34.069
-69.958
-161.987
-239.468
-300.297
-344.314
-372.604
-386.007
-385.735
-373.975
-353.334
-326.808
-297.342
-266.861
-236.573
-208.018
-182.912
-162.075
-145.478
-132.451
-121.881
-112.996
-105.402
-98.247
-90.158
-80.328
-68.574
-55.154
-40.851
-26.335
-12.055
1.368
13.241
23.03
30.365
35.284
37.933
39.187
40.991
43.54
45.827
45.858
39.351
26.631
12.534
1.781
0.983
10.855
25.156
39.046
47.393
49.05
48.584
48.813
51.527
57.296
64.174
71.175
78.279
85.295
92.347
99.411
106.172
112.51
118.446
123.96
129.026
133.667
137.946
141.933
145.714
149.34
152.809
156.146
159.398
162.611
165.845
169.139
172.512
175.98
179.561
183.267
187.103
191.066
195.132
199.287
203.519
207.818
212.176
216.58
221.011
225.451
229.878
234.274
238.62
242.893
247.072
251.135
255.06
258.827
262.416
265.808
268.979
271.907
274.569
276.943
279.007
280.741
282.125
283.14
283.77
284.002
283.822
283.221
282.189
280.719
278.808
276.454
273.655
270.414
266.734
262.622
258.086
253.137
247.785
242.045
235.933
229.466
222.663
215.545
208.135
200.456
192.533
184.392
176.061
167.566
158.935
150.197
141.381
132.514
123.624
114.741
105.89
97.099
88.392
79.794
71.33
63.02
54.885
46.945
39.219
31.721
24.469
17.475
10.752
4.31
-1.842
-7.695
-13.243
-18.482
-23.408
-28.021
-32.32
-36.307
-39.984
-43.356
-46.428
-49.206
-51.698
-53.913
-55.859
-57.546
-58.986
-60.189
-61.167
-61.932
-62.496
-62.871
-63.069
-63.103
-62.984
-62.723
-62.333
-61.824
-61.208
-60.496
-59.697
-58.823
-57.883
-56.887
-55.844
-54.763
-53.653
-52.52
-51.373
-50.219
-49.063
-47.911
-46.771
-45.646
-44.542
-43.464
-42.417
-41.404
-40.43
-39.499
-38.615
-37.78
-36.999
-36.276
-35.615
-35.019
-34.492
-34.039
-33.663
-33.369
-33.16
-33.041
-33.014
-33.084
-33.253
-33.525
-33.903
-34.391
-34.99
-35.705
-36.537
-37.489
-38.565
-39.764
-41.09
-42.543
-44.124
-45.834
-47.673
-49.64
-51.735
-53.956
-56.301
-58.768
-61.353
-64.053
-66.863
-69.778
-72.792
-75.898
-79.089
-82.358
-85.696
-89.096
-92.549
-96.046
-99.578
-103.136
-106.709
-110.286
-113.859
-117.416
-120.947
-124.441
-127.886
-131.273
-134.59
-137.828
-140.976
-144.025
-146.965
-149.786
-152.481
-155.04
-157.457
-159.725
-161.837
-163.789
-165.576
-167.194
-168.641
-169.916
-171.017
-171.943
-172.696
-173.276
-173.686
-173.927
-174.004
-173.92
-173.679
-173.288
-172.752
-172.078
-171.273
-170.345
-169.302
-168.152
-166.905
-165.568
-164.152
-162.666
-161.119
-159.521
-157.882
-156.211
-154.518
-152.81
-151.096
-149.384
-147.68
-145.992
-144.324
-142.682
-141.07
-139.492
-137.95
-136.446
-134.983
-133.56
-132.177
-130.833
-129.526
-128.253
-127.01
-125.792
-124.594
-123.41
-122.232
-121.055
-119.869
-118.667
-117.438
-116.174
-114.866
-113.501
-112.071
-110.564
-108.97
-107.28
-105.482
-103.569
-101.531
-99.361
-97.052
-94.596
-91.991
-89.23
-86.311
-83.231
-79.991
-76.59
-73.033
-69.323
-65.465
-61.467
-57.339
-53.095
-48.747
-44.312
-39.807
-35.251
-30.665
-26.071
-21.49
-16.946
-12.462
-8.061
-3.771
0.383
4.372
8.171
11.749
15.082
18.144
20.909
23.359
25.478
27.251
28.664
29.7
30.341
30.57
30.375
29.748
28.685
27.19
25.275
22.967
20.306
17.332
14.087
10.61
6.934
3.098
-0.853
-4.869
-8.887
-12.842
-16.674
-20.32
-23.718
-26.84
-29.681
-32.261
-34.646
-36.896
-39.054
-41.178
-43.329
-45.575
-48.011
-50.744
-53.855
-57.478
-61.799
-66.928
-72.907
-79.597
-86.597
-93.455
-99.733
-104.9
-108.401
-109.861
-109.086
-106.364
-102.636
-98.865
-95.915
-94.631
-95.558
-98.848
-104.25
-110.555
-115.347
-115.971
-109.662
-93.641
-65.789
-24.401
31.72
102.381
185.768
279.212
379.065
481.008
580.886
674.063
755.628
821.361
867.882
892.542
893.725
870.853
824.015
754.477
665.791
562.326
447.771
327.171
203.734
80.233
-35.654
-138.118
-221.164
-279.076
-315.306
-333.899
-338.76
-335.553
-324.342
-305.518
-281.745
-254.217
-225.144
-196.478
-168.579
-142.386
-119.273
-99.67
-83.404
-70.211
-59.945
-52.551
-47.957
-45.317
-42.806
-39.234
-34.264
-27.855
-20.275
-11.759
-2.396
7.256
16.055
23.272
28.714
32.456
34.967
36.715
37.943
39.013
40.427
42.488
45.366
49.146
53.745
59.077
65.113
71.766
78.935
86.548
94.491
102.63
110.816
118.859
126.61
133.981
140.903
147.335
153.247
158.599
163.373
167.585
171.247
174.368
176.953
179.004
180.548
181.64
182.356
182.782
182.985
183.019
182.929
182.756
182.538
182.308
182.091
181.898
181.747
181.663
181.673
181.806
182.083
182.519
183.119
183.892
184.841
185.973
187.287
188.784
190.461
192.318
194.352
196.562
198.94
201.474
204.151
206.95
209.852
212.835
215.875
218.943
222.012
225.053
228.038
230.936
233.718
236.353
238.81
241.061
243.075
244.824
246.281
247.418
248.213
248.642
248.686
248.324
247.541
246.323
244.66
242.541
239.961
236.916
233.403
229.424
224.982
220.083
214.737
208.955
202.75
196.14
189.144
181.782
174.077
166.056
157.743
149.168
140.36
131.349
122.167
112.845
103.416
93.916
84.374
74.822
65.288
55.802
46.393
37.095
27.934
18.928
10.106
1.506
-6.837
-14.89
-22.632
-30.07
-37.191
-43.959
-50.377
-56.489
-62.326
-67.93
-73.303
-78.376
-83.126
-87.626
-91.812
-95.43
-98.42
-100.873
-102.765
-104.373
-105.238
-103.743
-100.163
-96.045
-93.789
-98.028
-108.733
-121.222
-130.909
-131.269
-121.576
-108.097
-95.7
-89.541
-90.792
-94.808
-98.662
-100.454
-99.503
-97.708
-96
-94.309
-92.72
-90.96
-88.95
-86.953
-85.061
-83.231
-81.475
-79.808
-78.222
-76.709
-75.248
-73.796
-72.338
-70.897
-69.479
-68.082
-66.708
-65.355
-64.024
-62.722
-61.451
-60.209
-58.996
-57.812
-56.657
-55.533
-54.44
-53.379
-52.351
-51.355
-50.393
-49.465
-48.571
-47.712
-46.891
-46.108
-45.364
-44.663
-44.007
-43.397
-42.837
-42.328
-41.874
-41.478
-41.14
-40.864
-40.651
-40.504
-40.422
-40.408
-40.462
-40.585
-40.776
-41.035
-41.363
-41.758
-42.22
-42.747
-43.34
-43.997
-44.717
-45.501
-46.345
-47.251
-48.217
-49.241
-50.322
-51.458
-52.648
-53.889
-55.179
-56.516
-57.896
-59.317
-60.776
-62.272
-63.801
-65.36
-66.948
-68.563
-70.202
-71.864
-73.548
-75.253
-76.978
-78.722
-80.485
-82.267
-84.067
-85.884
-87.72
-89.572
-91.44
-93.324
-95.222
-97.135
-99.06
-100.998
-102.947
-104.907
-106.877
-108.857
-110.846
-112.844
-114.85
-116.863
-118.883
-120.91
-122.941
-124.975
-127.012
-129.047
-131.08
-133.108
-135.126
-137.131
-139.119
-141.085
-143.026
-144.935
-146.81
-148.644
-150.433
-152.172
-153.856
-155.481
-157.041
-158.532
-159.948
-161.284
-162.536
-163.698
-164.766
-165.734
-166.597
-167.351
-167.991
-168.512
-168.911
-169.182
-169.322
-169.328
-169.199
-168.933
-168.53
-167.991
-167.316
-166.508
-165.57
-164.505
-163.317
-162.01
-160.59
-159.061
-157.432
-155.708
-153.901
-152.018
-150.074
-148.08
-146.049
-143.995
-141.933
-139.88
-137.852
-135.866
-133.936
-132.075
-130.298
-128.62
-127.057
-125.621
-124.318
-123.155
-122.138
-121.274
-120.572
-120.037
-119.661
-119.432
-119.346
-119.401
-119.604
-119.967
-120.484
-121.151
-121.966
-122.926
-124.033
-125.278
-126.626
-128.03
-129.434
-130.792
-132.083
-133.292
-134.402
-135.371
-136.125
-136.587
-136.703
-136.432
-135.757
-134.641
-133.012
-130.893
-128.436
-125.889
-123.641
-122.031
-121.156
-121.075
-121.909
-123.596
-126.011
-128.823
-131.103
-131.918
-130.869
-127.761
-122.631
-115.92
-107.907
-99.104
-91.264
-86.437
-86.213
-92.098
-103.775
-119.165
-137.105
-156.009
-175.728
-198.843
-223.854
-246.047
-256.772
-241.753
-193.59
-113.447
-8.017
108.968
228.409
348.816
467.267
579.883
679.289
753.059
795.63
809.106
797.377
767.274
721.115
656.135
572.741
472.884
360.982
244.623
129.285
19.117
-81.298
-168.548
-240.112
-294.252
-331.078
-351.97
-358.457
-352.464
-337.075
-316.15
-293.1
-270.558
-250.303
-231.959
-215.081
-201.171
-189.757
-181.4
-177.276
-173.199
-166.782
-155.377
-135.099
-109.73
-83.118
-58.691
-41.177
-29.022
-20.129
-13.849
-8.554
-5.191
-4.711
-6.419
-9.939
-14.63
-19.819
-25.388
-31.207
-36.929
-42.252
-46.956
-50.829
-53.729
-55.585
-56.311
-55.853
-54.232
-51.5
-47.733
-43.068
-37.644
-31.597
-25.088
-18.258
-11.249
-4.23
2.663
9.32
15.657
21.637
27.241
32.447
37.254
41.682
45.758
49.531
53.045
56.336
59.449
62.432
65.34
68.24
71.185
74.208
77.337
80.59
83.976
87.51
91.193
95.02
98.984
103.081
107.308
111.667
116.154
120.761
125.477
130.288
135.183
140.152
145.183
150.263
155.38
160.519
165.669
170.817
175.948
181.044
186.084
191.047
195.912
200.655
205.255
209.687
213.928
217.957
221.752
225.293
228.561
231.535
234.196
236.529
238.515
240.14
241.39
242.253
242.717
242.775
242.419
241.644
240.446
238.822
236.774
234.301
231.408
228.099
224.381
220.264
215.757
210.873
205.627
200.033
194.11
187.875
181.348
174.549
167.499
160.222
152.739
145.073
137.248
129.289
121.217
113.059
104.837
96.574
88.293
80.018
71.768
63.566
55.432
47.386
39.445
31.629
23.954
16.438
9.093
1.936
-5.022
-11.769
-18.295
-24.591
-30.65
-36.464
-42.029
-47.341
-52.395
-57.191
-61.727
-66.004
-70.022
-73.783
-77.292
-80.55
-83.563
-86.334
-88.869
-91.173
-93.251
-95.11
-96.753
-98.189
-99.422
-100.458
-101.305
-101.968
-102.454
-102.769
-102.92
-102.913
-102.754
-102.448
-102.001
-101.419
-100.706
-99.868
-98.911
-97.837
-96.653
-95.362
-93.969
-92.477
-90.891
-89.214
-87.449
-85.6
-83.671
-81.665
-79.586
-77.438
-75.227
-72.957
-70.632
-68.258
-65.84
-63.383
-60.894
-58.377
-55.839
-53.286
-50.725
-48.162
-45.604
-43.059
-40.533
-38.035
-35.571
-33.15
-30.779
-28.466
-26.219
-24.046
-21.955
-19.954
-18.051
-16.254
-14.571
-13.01
-11.576
-10.278
-9.122
-8.113
-7.257
-6.558
-6.022
-5.652
-5.451
-5.423
-5.568
-5.89
-6.388
-7.063
-7.914
-8.939
-10.137
-11.505
-13.038
-14.733
-16.585
-18.588
-20.735
-23.019
-25.433
-27.968
-30.614
-33.363
-36.203
-39.125
-42.116
-45.166
-48.262
-51.393
-54.547
-57.711
-60.873
-64.021
-67.143
-70.225
-73.257
-76.227
-79.122
-81.932
-84.647
-87.256
-89.749
-92.118
-94.353
-96.448
-98.395
-100.187
-101.819
-103.286
-104.584
-105.709
-106.66
-107.433
-108.03
-108.448
-108.689
-108.754
-108.645
-108.366
-107.918
-107.307
-106.537
-105.614
-104.543
-103.33
-101.983
-100.508
-98.913
-97.205
-95.392
-93.482
-91.482
-89.401
-87.246
-85.026
-82.748
-80.42
-78.048
-75.642
-73.206
-70.748
-68.274
-65.789
-63.298
-60.808
-58.322
-55.846
-53.384
-50.94
-48.518
-46.12
-43.751
-41.411
-39.104
-36.831
-34.592
-32.39
-30.224
-28.097
-26.009
-23.961
-21.955
-19.992
-18.073
-16.199
-14.371
-12.59
-10.859
-9.179
-7.553
-5.984
-4.476
-3.037
-1.673
-0.392
0.797
1.889
2.874
3.744
4.488
5.098
5.564
5.879
6.031
6.012
5.809
5.414
4.821
4.026
3.029
1.828
0.42
-1.196
-3.015
-5.027
-7.223
-9.594
-12.139
-14.85
-17.716
-20.72
-23.846
-27.073
-30.388
-33.769
-37.179
-40.586
-43.944
-47.204
-50.339
-53.317
-56.115
-58.726
-61.114
-63.244
-65.082
-66.583
-67.712
-68.466
-68.82
-68.73
-68.261
-67.548
-66.84
-66.511
-66.864
-68.073
-70.224
-73.395
-77.49
-82.138
-86.704
-90.2
-91.639
-90.39
-86.184
-78.91
-68.82
-56.702
-43.696
-31.552
-22.239
-17.302
-17.902
-24.794
-38.01
-56.019
-76.013
-94.869
-109.751
-120.592
-128.497
-131.741
-125.68
-100.972
-48.807
32.607
139.343
260.167
384.234
505.623
617.977
718.785
803.505
864.647
901.311
912.336
898.592
864.432
809.239
733.966
642.188
536.675
423.445
308.733
196.367
90.25
-6.282
-91.066
-162.11
-218.218
-259.707
-287.337
-302.048
-305.019
-298.145
-284.786
-267.202
-246.294
-221.474
-188.864
-148.26
-105.844
-68.865
-47.039
-45.516
-56.849
-70.723
-76.583
-65.661
-41.468
-12.673
14.301
33.15
43.946
51.655
58.355
65.246
72.296
77.118
78.847
77.878
74.45
69.307
63.163
56.312
49.039
41.713
34.579
27.846
21.81
16.658
12.458
9.269
7.101
5.943
5.803
6.636
8.339
10.788
13.847
17.416
21.428
25.79
30.392
35.09
39.725
44.201
48.463
52.47
56.199
59.633
62.763
65.626
68.278
70.77
73.152
75.457
77.71
79.948
82.222
84.584
87.094
89.791
92.7
95.842
99.233
102.883
106.795
110.96
115.356
119.967
124.782
129.79
134.981
140.342
145.851
151.49
157.237
163.072
168.974
174.92
180.887
186.85
192.789
198.679
204.5
210.229
215.839
221.303
226.595
231.687
236.552
241.164
245.496
249.525
253.228
256.583
259.57
262.172
264.372
266.155
267.509
268.423
268.888
268.899
268.451
267.544
266.177
264.354
262.079
259.359
256.202
252.619
248.623
244.227
239.448
234.304
228.816
223.005
216.895
210.511
203.878
197.024
189.975
182.761
175.409
167.947
160.402
152.803
145.178
137.553
129.956
122.412
114.945
107.579
100.337
93.239
86.303
79.546
72.982
66.629
60.498
54.601
48.951
43.556
38.428
33.574
29.001
24.713
20.711
16.994
13.56
10.405
7.522
4.904
2.541
0.422
-1.458
-3.108
-4.535
-5.746
-6.752
-7.562
-8.184
-8.628
-8.906
-9.031
-9.014
-8.865
-8.586
-8.182
-7.661
-7.031
-6.302
-5.492
-4.625
-3.734
-2.869
-2.071
-1.383
-0.836
-0.449
-0.239
-0.227
-0.418
-0.809
-1.395
-2.158
-3.111
-4.284
-5.665
-7.203
-8.803
-10.342
-11.737
-12.961
-13.952
-14.61
-14.879
-14.794
-14.571
-14.506
-14.766
-15.328
-16.063
-16.942
-17.982
-19.112
-19.959
-20.024
-19.049
-17.203
-15.153
-13.553
-12.935
-13.943
-17.509
-24.678
-36.285
-52.633
-73.037
-96.527
-122.107
-148.476
-174.244
-197.984
-218.205
-233.742
-244.495
-250.815
-253.311
-253.054
-250.883
-247.525
-243.966
-241.123
-239.289
-238.448
-238.266
-238.044
-237.484
-236.52
-234.942
-232.576
-229.392
-225.462
-221.08
-216.718
-212.616
-208.822
-205.354
-202.163
-199.243
-196.6
-194.154
-191.76
-189.286
-186.662
-183.874
-180.95
-177.896
-174.677
-171.259
-167.626
-163.795
-159.796
-155.659
-151.402
-147.044
-142.621
-138.182
-133.783
-129.482
-125.317
-121.31
-117.476
-113.833
-110.398
-107.186
-104.206
-101.455
-98.93
-96.633
-94.565
-92.729
-91.119
-89.722
-88.527
-87.52
-86.689
-86.025
-85.517
-85.154
-84.925
-84.823
-84.837
-84.962
-85.187
-85.501
-85.892
-86.346
-86.851
-87.392
-87.956
-88.529
-89.098
-89.65
-90.174
-90.658
-91.092
-91.465
-91.767
-91.99
-92.122
-92.158
-92.087
-91.904
-91.602
-91.177
-90.624
-89.939
-89.119
-88.164
-87.072
-85.843
-84.478
-82.977
-81.341
-79.573
-77.678
-75.658
-73.518
-71.266
-68.907
-66.451
-63.905
-61.281
-58.589
-55.838
-53.042
-50.213
-47.362
-44.502
-41.647
-38.81
-36.004
-33.243
-30.543
-27.919
-25.386
-22.963
-20.667
-18.516
-16.528
-14.719
-13.107
-11.708
-10.533
-9.595
-8.903
-8.467
-8.297
-8.404
-8.794
-9.473
-10.445
-11.711
-13.271
-15.123
-17.258
-19.662
-22.324
-25.234
-28.39
-31.797
-35.457
-39.363
-43.504
-47.864
-52.422
-57.153
-62.014
-66.945
-71.884
-76.769
-81.549
-86.18
-90.615
-94.788
-98.622
-102.025
-104.917
-107.249
-108.992
-110.117
-110.621
-110.514
-109.839
-108.717
-107.288
-105.677
-104.014
-102.404
-100.96
-99.894
-99.486
-99.919
-101.301
-103.584
-106.527
-109.929
-113.559
-116.937
-119.457
-120.676
-120.273
-118.32
-115.55
-112.667
-110.452
-110.186
-112.098
-115.031
-118.208
-120.193
-121.487
-126.015
-134.095
-142.752
-144.196
-124.639
-75.928
3.567
109.879
231.701
359.212
483.792
595.523
687.596
754.719
795.557
814.735
816.178
801.851
770.603
717.802
642.055
545.906
434.077
313.82
191.329
70.993
-42.148
-143.462
-229.479
-297.53
-346.626
-377.553
-391.38
-389.331
-374.205
-349.544
-318.855
-285.637
-252.357
-220.43
-191.51
-167.492
-149.005
-135.711
-126.784
-120.821
-116.854
-114.433
-112.506
-109.494
-104.534
-97.376
-88.25
-77.997
-67.258
-56.391
-46.12
-37.434
-30.953
-26.959
-25.382
-25.751
-27.626
-30.631
-34.286
-38.047
-41.476
-44.279
-46.285
-47.446
-47.75
-47.179
-45.747
-43.504
-40.502
-36.787
-32.44
-27.544
-22.199
-16.543
-10.701
-4.785
1.066
6.754
12.204
17.343
22.137
26.577
30.644
34.334
37.663
40.643
43.305
45.695
47.851
49.825
51.674
53.458
55.251
57.11
59.077
61.189
63.469
65.932
68.597
71.479
74.585
77.932
81.529
85.378
89.484
93.844
98.436
103.236
108.197
113.269
118.422
123.631
128.879
134.17
139.498
144.863
150.272
155.711
161.166
166.63
172.08
177.502
182.904
188.301
193.737
199.274
204.931
210.709
216.588
222.507
228.401
234.187
239.751
245.005
249.876
254.287
258.193
261.548
264.276
266.295
267.498
267.752
266.977
265.125
262.164
258.126
253.061
247.05
240.232
232.726
224.627
216.026
206.982
197.551
187.82
177.877
167.821
157.784
147.863
138.137
128.684
119.536
110.699
102.161
93.858
85.739
77.783
69.973
62.31
54.809
47.468
40.291
33.288
26.446
19.747
13.194
6.79
0.556
-5.477
-11.279
-16.831
-22.089
-27.004
-31.58
-35.862
-39.895
-43.73
-47.377
-50.781
-53.939
-56.939
-59.702
-61.961
-63.684
-64.962
-65.776
-66.464
-66.423
-63.982
-59.665
-54.987
-52.654
-57.531
-68.948
-82.143
-92.233
-92.306
-82.46
-69.143
-57.307
-52.46
-55.15
-60.545
-65.811
-68.861
-69.249
-68.97
-68.83
-68.79
-68.903
-68.862
-68.618
-68.434
-68.378
-68.403
-68.516
-68.725
-69.015
-69.372
-69.765
-70.143
-70.492
-70.827
-71.15
-71.455
-71.737
-71.992
-72.217
-72.414
-72.581
-72.711
-72.8
-72.842
-72.835
-72.774
-72.657
-72.481
-72.243
-71.94
-71.572
-71.138
-70.636
-70.066
-69.429
-68.725
-67.956
-67.121
-66.223
-65.263
-64.243
-63.166
-62.033
-60.848
-59.612
-58.328
-56.998
-55.626
-54.213
-52.763
-51.279
-49.763
-48.219
-46.651
-45.062
-43.457
-41.839
-40.214
-38.585
-36.958
-35.337
-33.727
-32.133
-30.559
-29.01
-27.49
-26.005
-24.558
-23.154
-21.796
-20.49
-19.238
-18.044
-16.913
-15.847
-14.85
-13.925
-13.075
-12.303
-11.611
-11.002
-10.477
-10.037
-9.685
-9.421
-9.244
-9.155
-9.153
-9.236
-9.403
-9.652
-9.98
-10.384
-10.86
-11.405
-12.015
-12.685
-13.411
-14.189
-15.015
-15.883
-16.789
-17.729
-18.697
-19.688
-20.698
-21.723
-22.756
-23.794
-24.834
-25.869
-26.899
-27.919
-28.926
-29.917
-30.892
-31.848
-32.783
-33.697
-34.589
-35.458
-36.306
-37.132
-37.938
-38.725
-39.495
-40.25
-40.991
-41.72
-42.438
-43.148
-43.85
-44.545
-45.236
-45.922
-46.605
-47.287
-47.967
-48.647
-49.325
-50.003
-50.679
-51.352
-52.022
-52.686
-53.344
-53.992
-54.63
-55.255
-55.865
-56.461
-57.041
-57.608
-58.16
-58.699
-59.227
-59.744
-60.253
-60.755
-61.249
-61.735
-62.214
-62.687
-63.157
-63.629
-64.108
-64.597
-65.101
-65.625
-66.174
-66.752
-67.356
-67.984
-68.639
-69.325
-70.059
-70.855
-71.724
-72.672
-73.703
-74.814
-75.996
-77.23
-78.478
-79.701
-80.861
-81.925
-82.873
-83.684
-84.327
-84.767
-84.948
-84.822
-84.358
-83.528
-82.319
-80.746
-78.845
-76.694
-74.424
-72.156
-70.01
-68.121
-66.599
-65.573
-65.184
-65.539
-66.778
-69.1
-72.629
-77.413
-83.357
-90.142
-97.397
-104.766
-111.73
-117.654
-122.011
-124.432
-125.049
-124.513
-123.398
-122.327
-122.04
-123.243
-126.759
-132.097
-136.771
-138.004
-132.998
-122.061
-109.195
-95.919
-81.304
-57.895
-11.198
68.431
184.459
329.164
480.808
617.164
720.7
783.124
810.601
814.557
803.351
781.115
745.05
689.05
611.74
515.658
405.797
289.506
172.384
58.118
-49.568
-147.854
-234.546
-307.608
-365.854
-409.072
-437.665
-452.606
-455.252
-446.732
-428.322
-401.588
-368.282
-330.368
-289.366
-246.393
-202.848
-160.504
-121.16
-86.464
-57.255
-33.523
-15.338
-2.75
4.786
8.277
9.191
9.253
9.418
9.923
10.992
12.717
14.925
17.245
18.924
18.961
16.897
12.777
6.765
-0.805
-9.56
-19.105
-28.854
-38.094
-46.336
-53.357
-59.073
-63.544
-66.831
-68.958
-70.02
-70.167
-69.53
-68.22
-66.317
-63.859
-60.905
-57.574
-53.986
-50.272
-46.561
-42.926
-39.408
-36.041
-32.825
-29.745
-26.778
-23.88
-20.998
-18.089
-15.115
-12.043
-8.846
-5.486
-1.915
1.915
6.056
10.542
15.389
20.612
26.211
32.179
38.505
45.168
52.137
59.387
66.897
74.642
82.603
90.756
99.073
107.522
116.073
124.693
133.353
142.023
150.67
159.265
167.778
176.181
184.448
192.552
200.464
208.153
215.59
222.746
229.595
236.108
242.259
248.025
253.382
258.31
262.792
266.81
270.352
273.403
275.955
277.998
279.526
280.537
281.027
280.998
280.451
279.392
277.826
275.763
273.214
270.189
266.703
262.772
258.411
253.641
248.479
242.947
237.068
230.864
224.36
217.581
210.554
203.304
195.859
188.247
180.495
172.631
164.682
156.675
148.639
140.599
132.584
124.619
116.729
108.941
101.278
93.763
86.421
79.271
72.335
65.634
59.185
53.006
47.115
41.528
36.257
31.318
26.721
22.476
18.594
15.081
11.943
9.185
6.81
4.818
3.211
1.986
1.141
0.67
0.568
0.826
1.434
2.383
3.658
5.245
7.129
9.292
11.717
14.382
17.267
20.349
23.605
27.009
30.536
34.158
37.847
41.575
45.312
49.027
52.691
56.273
59.742
63.068
66.218
69.163
71.872
74.316
76.465
78.291
79.767
80.866
81.565
81.839
81.668
81.032
79.913
78.298
76.171
73.523
70.346
66.633
62.382
57.592
52.266
46.407
40.025
33.13
25.734
17.854
9.507
0.715
-8.499
-18.11
-28.09
-38.409
-49.036
-59.935
-71.071
-82.407
-93.903
-105.52
-117.217
-128.95
-140.679
-152.359
-163.948
-175.404
-186.684
-197.746
-208.549
-219.056
-229.226
-239.024
-248.414
-257.364
-265.842
-273.82
-281.27
-288.169
-294.494
-300.225
-305.346
-309.842
-313.7
-316.912
-319.471
-321.373
-322.617
-323.205
-323.141
-322.432
-321.089
-319.125
-316.553
-313.392
-309.662
-305.385
-300.585
-295.287
-289.519
-283.31
-276.689
-269.688
-262.337
-254.669
-246.716
-238.511
-230.087
-221.477
-212.714
-203.83
-194.858
-185.83
-176.778
-167.731
-158.72
-149.775
-140.921
-132.188
-123.599
-115.179
-106.951
-98.936
-91.153
-83.619
-76.351
-69.36
-62.659
-56.256
-50.159
-44.373
-38.9
-33.742
-28.898
-24.368
-20.146
-16.23
-12.612
-9.285
-6.24
-3.469
-0.959
1.302
3.326
5.127
6.72
8.121
9.344
10.405
11.322
12.11
12.788
13.371
13.877
14.322
14.724
15.097
15.454
15.81
16.174
16.556
16.963
17.401
17.873
18.379
18.92
19.493
20.097
20.725
21.371
22.029
22.692
23.348
23.985
24.592
25.154
25.662
26.097
26.438
26.677
26.802
26.797
26.655
26.359
25.878
25.211
24.352
23.252
21.873
20.191
18.174
15.836
13.222
10.314
7.088
3.702
0.334
-3.056
-6.424
-9.719
-13.201
-16.05
-17.463
-18.482
-19.394
-22.179
-29.205
-37.789
-46.163
-51.697
-50.824
-46.878
-42.705
-40.293
-42.824
-48.138
-54.043
-60.126
-65.078
-69.698
-75.011
-80.786
-87.192
-94.382
-102.273
-110.937
-120.333
-130.106
-139.737
-148.632
-156.013
-160.8
-162.851
-163.334
-163.193
-162.624
-159.658
-149.936
-130.704
-104.477
-79.123
-65.433
-73.032
-102.216
-141.918
-175.716
-183.476
-151.286
-79.802
23.316
143.851
267.545
389.946
508.337
619.145
716.123
787.852
825.98
829.164
803.165
756.606
695.009
619.942
529.905
424.742
308.146
185.953
64.397
-51.52
-158.071
-252.258
-331.69
-394.557
-440.367
-469.847
-483.775
-483.251
-470.384
-447.842
-418.661
-385.886
-351.709
-317.606
-285.359
-256.901
-233.142
-214.09
-199.121
-187.107
-177.192
-168.843
-160.979
-152.011
-141.015
-127.752
-112.489
-96.045
-79.145
-62.301
-46.351
-32.416
-21.192
-12.969
-7.728
-5.039
-4.486
-5.746
-8.326
-11.648
-15.296
-18.949
-22.361
-25.431
-28.019
-29.945
-31.134
-31.552
-31.171
-30.014
-28.107
-25.473
-22.186
-18.345
-14.04
-9.368
-4.407
0.772
6.069
11.38
16.598
21.608
26.335
30.731
34.762
38.426
41.736
44.715
47.405
49.863
52.135
54.268
56.304
58.273
60.218
62.19
64.24
66.428
68.798
71.382
74.206
77.286
80.631
84.244
88.12
92.243
96.603
101.188
105.99
111
116.209
121.597
127.148
132.839
138.647
144.55
150.526
156.547
162.589
168.628
174.638
180.596
186.478
192.255
197.899
203.381
208.673
213.747
218.573
223.125
227.377
231.304
234.883
238.094
240.919
243.34
245.34
246.908
248.032
248.701
248.909
248.652
247.925
246.729
245.064
242.936
240.349
237.314
233.84
229.939
225.627
220.918
215.831
210.384
204.598
198.495
192.096
185.427
178.511
171.374
164.042
156.541
148.896
141.135
133.282
125.362
117.401
109.422
101.45
93.506
85.614
77.794
70.067
62.451
54.965
47.625
40.446
33.444
26.63
20.016
13.612
7.427
1.469
-4.257
-9.745
-14.991
-19.991
-24.746
-29.252
-33.512
-37.525
-41.295
-44.822
-48.111
-51.165
-53.989
-56.586
-58.963
-61.123
-63.074
-64.82
-66.369
-67.725
-68.896
-69.888
-70.708
-71.362
-71.857
-72.199
-72.394
-72.449
-72.369
-72.16
-71.829
-71.38
-70.819
-70.152
-69.384
-68.521
-67.568
-66.53
-65.413
-64.222
-62.964
-61.642
-60.264
-58.836
-57.363
-55.852
-54.31
-52.743
-51.158
-49.56
-47.958
-46.357
-44.763
-43.184
-41.624
-40.092
-38.593
-37.133
-35.718
-34.355
-33.05
-31.808
-30.635
-29.536
-28.518
-27.584
-26.739
-25.989
-25.335
-24.783
-24.334
-23.992
-23.757
-23.631
-23.615
-23.707
-23.907
-24.213
-24.622
-25.132
-25.739
-26.44
-27.23
-28.104
-29.057
-30.085
-31.181
-32.34
-33.556
-34.822
-36.13
-37.476
-38.85
-40.246
-41.656
-43.073
-44.489
-45.896
-47.288
-48.655
-49.992
-51.291
-52.545
-53.75
-54.898
-55.986
-57.01
-57.965
-58.85
-59.663
-60.402
-61.067
-61.659
-62.176
-62.622
-62.997
-63.303
-63.543
-63.719
-63.834
-63.892
-63.897
-63.852
-63.763
-63.634
-63.471
-63.279
-63.064
-62.831
-62.588
-62.34
-62.094
-61.856
-61.632
-61.429
-61.251
-61.103
-60.99
-60.915
-60.881
-60.889
-60.942
-61.038
-61.178
-61.36
-61.583
-61.845
-62.144
-62.476
-62.838
-63.227
-63.637
-64.065
-64.504
-64.95
-65.396
-65.836
-66.262
-66.668
-67.046
-67.389
-67.688
-67.936
-68.123
-68.241
-68.282
-68.237
-68.098
-67.859
-67.513
-67.055
-66.481
-65.788
-64.974
-64.036
-62.975
-61.791
-60.485
-59.06
-57.518
-55.864
-54.103
-52.241
-50.286
-48.248
-46.136
-43.963
-41.742
-39.488
-37.216
-34.946
-32.696
-30.486
-28.334
-26.257
-24.271
-22.394
-20.64
-19.026
-17.562
-16.261
-15.134
-14.196
-13.456
-12.923
-12.594
-12.461
-12.514
-12.75
-13.168
-13.778
-14.589
-15.597
-16.807
-18.225
-19.853
-21.687
-23.702
-25.837
-28.04
-30.268
-32.496
-34.735
-36.975
-39.173
-41.271
-43.18
-44.82
-46.159
-47.136
-47.641
-47.654
-47.233
-46.556
-45.995
-45.881
-46.398
-47.684
-49.795
-52.577
-55.804
-59.066
-61.681
-63.02
-62.547
-59.962
-55.304
-48.993
-41.676
-34.152
-27.447
-22.729
-21.377
-24.437
-32.501
-45.617
-63.093
-84
-107.055
-130.163
-150.474
-165.16
-171.025
-164.933
-145.025
-109.405
-57.407
8.92
88.35
180
282.5
396.224
516.441
632.55
733.276
806.01
846.023
857.251
845.136
816.904
773.424
710.918
627.601
523.091
404.116
281.056
163.113
56.923
-36.551
-118.835
-192.915
-257.903
-308.665
-341.058
-349.645
-335.842
-308.896
-276.689
-248.231
-227.564
-210.3
-193.673
-175.492
-154.867
-135.651
-119.621
-106.742
-97.446
-90.175
-83.916
-78.315
-71.937
-64.198
-55.27
-45.318
-34.94
-24.672
-14.692
-5.477
2.108
7.522
10.55
11.232
9.967
7.166
3.125
-1.778
-7.064
-12.358
-17.352
-21.775
-25.499
-28.44
-30.53
-31.765
-32.165
-31.739
-30.513
-28.55
-25.925
-22.747
-19.128
-15.146
-10.877
-6.41
-1.854
2.656
7.007
11.134
15.003
18.595
21.892
24.88
27.565
29.988
32.201
34.255
36.191
38.04
39.838
41.635
43.488
45.459
47.597
49.936
52.499
55.309
58.386
61.743
65.383
69.299
73.478
77.915
82.604
87.54
92.713
98.109
103.711
109.498
115.453
121.556
127.785
134.117
140.526
146.984
153.462
159.932
166.364
172.726
178.986
185.108
191.056
196.796
202.293
207.519
212.439
217.013
221.207
224.981
228.31
231.183
233.585
235.5
236.914
237.818
238.209
238.096
237.473
236.32
234.618
232.349
229.509
226.122
222.205
217.781
212.86
207.43
201.498
195.09
188.215
180.88
173.086
164.812
156.091
147.006
137.632
128.048
118.309
108.438
98.474
88.463
78.455
68.519
58.702
49.029
39.554
30.347
21.484
13.06
5.105
-2.424
-9.554
-16.311
-22.704
-28.712
-34.337
-39.6
-44.513
-49.086
-53.32
-57.201
-60.747
-64.005
-67.022
-69.86
-72.535
-75.006
-77.251
-79.259
-81.024
-82.561
-83.869
-84.932
-85.753
-86.354
-86.756
-86.989
-87.062
-86.966
-86.695
-86.241
-85.614
-84.848
-83.97
-82.996
-81.945
-80.832
-79.674
-78.498
-77.317
-76.129
-74.935
-73.734
-72.53
-71.336
-70.16
-69.007
-67.881
-66.783
-65.712
-64.673
-63.666
-62.689
-61.742
-60.821
-59.927
-59.063
-58.231
-57.435
-56.675
-55.95
-55.263
-54.614
-54.004
-53.433
-52.899
-52.402
-51.941
-51.517
-51.131
-50.781
-50.468
-50.191
-49.95
-49.745
-49.575
-49.44
-49.339
-49.272
-49.236
-49.233
-49.26
-49.316
-49.402
-49.514
-49.653
-49.816
-50.003
-50.212
-50.44
-50.688
-50.953
-51.234
-51.53
-51.838
-52.157
-52.487
-52.827
-53.175
-53.531
-53.892
-54.26
-54.632
-55.009
-55.389
-55.771
-56.156
-56.542
-56.93
-57.318
-57.706
-58.094
-58.48
-58.866
-59.25
-59.631
-60.011
-60.387
-60.761
-61.131
-61.497
-61.86
-62.218
-62.571
-62.919
-63.261
-63.596
-63.925
-64.246
-64.561
-64.867
-65.166
-65.457
-65.741
-66.017
-66.285
-66.545
-66.798
-67.044
-67.283
-67.516
-67.744
-67.967
-68.188
-68.406
-68.624
-68.842
-69.061
-69.284
-69.51
-69.741
-69.979
-70.223
-70.476
-70.737
-71.009
-71.291
-71.584
-71.888
-72.204
-72.53
-72.865
-73.209
-73.56
-73.915
-74.273
-74.631
-74.986
-75.335
-75.675
-76.002
-76.313
-76.603
-76.867
-77.101
-77.298
-77.455
-77.564
-77.62
-77.618
-77.551
-77.416
-77.208
-76.92
-76.55
-76.092
-75.542
-74.897
-74.153
-73.308
-72.359
-71.306
-70.147
-68.886
-67.525
-66.067
-64.512
-62.864
-61.124
-59.299
-57.399
-55.429
-53.388
-51.289
-49.159
-47.02
-44.9
-42.815
-40.756
-38.736
-36.8
-34.944
-33.129
-31.33
-29.518
-27.707
-25.985
-24.389
-22.855
-21.483
-20.575
-20.198
-20.281
-20.866
-21.646
-23.216
-27.341
-33.6
-40.389
-44.995
-42.388
-32.994
-21.822
-13.911
-16.394
-29.543
-46.631
-62.462
-71.377
-72.505
-70.832
-69.355
-70.142
-73.716
-77.975
-81.982
-85.761
-89.216
-92.597
-95.893
-98.762
-101.065
-102.802
-103.978
-104.559
-104.506
-103.923
-102.996
-102.059
-101.574
-101.78
-102.69
-104.375
-106.928
-110.291
-114.369
-118.611
-121.878
-123.481
-123.221
-120.996
-116.964
-111.389
-104.436
-97.047
-91.317
-88.948
-91.142
-98.746
-110.91
-125.83
-142.142
-158.331
-174.251
-191.052
-206.963
-216.289
-209.109
-175.436
-111.567
-21.187
85.525
200.385
320.317
443.328
567.027
681.744
773.54
833.637
859.896
858.251
837.537
802.011
750.991
681.395
592.158
485.83
368.025
245.73
124.088
7.406
-99.803
-194.106
-272.568
-332.794
-374.35
-397.823
-403.694
-393.699
-370.87
-338.465
-300.164
-259.589
-219.211
-181.118
-147.749
-120.709
-100.368
-86.379
-77.601
-72.606
-70.434
-70.054
-69.852
-68.348
-64.817
-59.183
-51.934
-43.826
-35.396
-27.142
-19.919
-14.645
-11.798
-11.44
-13.289
-16.795
-21.477
-26.95
-32.68
-38.108
-42.85
-46.64
-49.371
-51.089
-51.816
-51.567
-50.402
-48.4
-45.654
-42.283
-38.393
-34.092
-29.52
-24.813
-20.116
-15.553
-11.207
-7.151
-3.428
-0.056
2.958
5.623
7.961
9.993
11.747
13.266
14.588
15.765
16.862
17.94
19.075
20.334
21.764
23.41
25.306
27.474
29.934
32.697
35.758
39.125
42.804
46.804
51.141
55.82
60.835
66.179
71.833
77.768
83.951
90.335
96.863
103.496
110.201
116.955
123.757
130.593
137.453
144.329
151.196
158.031
164.817
171.524
178.128
184.631
191.041
197.403
203.773
210.17
216.592
223.019
229.385
235.626
241.659
247.366
252.66
257.465
261.708
265.348
268.341
270.615
272.093
272.67
272.218
270.664
267.962
264.087
259.076
252.986
245.908
237.993
229.371
220.145
210.418
200.256
189.726
178.921
167.938
156.883
145.895
135.079
124.519
114.302
104.463
95.017
85.951
77.203
68.723
60.485
52.476
44.698
37.169
29.884
22.847
16.064
9.52
3.204
-2.89
-8.778
-14.458
-19.915
-25.126
-30.048
-34.641
-38.886
-42.769
-46.288
-49.449
-52.26
-54.733
-56.892
-58.756
-60.339
-61.657
-62.72
-63.542
-64.143
-64.544
-64.769
-64.843
-64.788
-64.624
-64.37
-64.043
-63.656
-63.222
-62.748
-62.243
-61.714
-61.172
-60.625
-60.083
-59.554
-59.043
-58.56
-58.108
-57.693
-57.316
-56.98
-56.682
-56.424
-56.203
-56.017
-55.863
-55.737
-55.637
-55.557
-55.494
-55.444
-55.402
-55.364
-55.327
-55.285
-55.236
-55.176
-55.102
-55.012
-54.904
-54.777
-54.63
-54.462
-54.273
-54.063
-53.831
-53.578
-53.302
-53.006
-52.688
-52.35
-51.993
-51.619
-51.23
-50.829
-50.419
-50.002
-49.583
-49.164
-48.748
-48.34
-47.943
-47.559
-47.192
-46.846
-46.521
-46.221
-45.948
-45.703
-45.486
-45.299
-45.141
-45.011
-44.909
-44.834
-44.783
-44.756
-44.751
-44.764
-44.796
-44.842
-44.902
-44.972
-45.05
-45.133
-45.218
-45.302
-45.381
-45.452
-45.511
-45.555
-45.581
-45.583
-45.559
-45.506
-45.42
-45.297
-45.135
-44.931
-44.683
-44.389
-44.048
-43.659
-43.222
-42.737
-42.205
-41.626
-41.001
-40.333
-39.622
-38.872
-38.084
-37.26
-36.405
-35.519
-34.608
-33.674
-32.721
-31.754
-30.776
-29.792
-28.808
-27.829
-26.858
-25.903
-24.969
-24.06
-23.183
-22.343
-21.546
-20.797
-20.1
-19.462
-18.886
-18.376
-17.937
-17.57
-17.28
-17.068
-16.936
-16.886
-16.921
-17.039
-17.243
-17.531
-17.905
-18.363
-18.904
-19.526
-20.226
-21.001
-21.848
-22.761
-23.737
-24.769
-25.851
-26.977
-28.14
-29.332
-30.547
-31.775
-33.008
-34.238
-35.457
-36.654
-37.821
-38.95
-40.03
-41.054
-42.014
-42.901
-43.708
-44.428
-45.052
-45.574
-45.987
-46.286
-46.464
-46.516
-46.438
-46.228
-45.882
-45.4
-44.781
-44.027
-43.139
-42.12
-40.975
-39.709
-38.327
-36.837
-35.246
-33.565
-31.804
-29.974
-28.088
-26.16
-24.206
-22.243
-20.29
-18.364
-16.485
-14.671
-12.942
-11.317
-9.81
-8.437
-7.215
-6.157
-5.281
-4.604
-4.14
-3.903
-3.906
-4.159
-4.669
-5.443
-6.475
-7.76
-9.296
-11.081
-13.124
-15.434
-18.01
-20.851
-23.949
-27.286
-30.838
-34.569
-38.422
-42.34
-46.268
-50.152
-53.957
-57.642
-61.159
-64.454
-67.452
-70.078
-72.275
-73.993
-75.195
-75.884
-76.086
-75.863
-75.328
-74.582
-73.726
-72.866
-72.091
-71.497
-71.202
-71.327
-72.051
-73.619
-76.196
-79.856
-84.526
-89.863
-95.427
-100.697
-104.965
-107.513
-107.797
-105.448
-100.731
-94.671
-88.475
-83.724
-81.404
-80.862
-81.324
-82.029
-83.193
-88.257
-99.541
-114.581
-126.674
-122.183
-86.316
-13.166
97.154
236.88
389.559
542.015
680.324
788.547
860.885
895.35
895.516
873.986
837.585
788.009
724.56
642.767
542.74
429.463
309.315
189.036
73.363
-34.236
-130.713
-213.768
-281.578
-333.477
-370.109
-392.159
-400.441
-396.416
-382.023
-359.731
-332.14
-301.297
-268.714
-235.823
-204.326
-176.049
-151.996
-132.228
-116.345
-103.732
-93.89
-86.406
-80.26
-73.836
-66.16
-57.006
-46.565
-35.453
-24.192
-13.088
-2.815
5.58
11.439
14.522
14.898
13.04
9.415
4.363
-1.642
-8.017
-14.295
-20.082
-25.084
-29.216
-32.43
-34.682
-35.994
-36.396
-35.914
-34.62
-32.602
-29.945
-26.759
-23.149
-19.196
-15.006
-10.696
-6.402
-2.271
1.6
5.159
8.377
11.241
13.741
15.879
17.69
19.232
20.562
21.735
22.795
23.78
24.741
25.738
26.834
28.098
29.577
31.305
33.31
35.614
38.232
41.177
44.445
48.023
51.903
56.075
60.535
65.276
70.284
75.543
81.032
86.73
92.613
98.659
104.841
111.133
117.506
123.932
130.382
136.831
143.246
149.595
155.846
161.961
167.908
173.653
179.161
184.399
189.334
193.938
198.182
202.04
205.488
208.503
211.066
213.159
214.767
215.878
216.482
216.571
216.143
215.195
213.73
211.752
209.268
206.288
202.825
198.894
194.512
189.7
184.478
178.87
172.902
166.602
159.997
153.119
145.997
138.664
131.152
123.494
115.723
107.872
99.972
92.056
84.154
76.296
68.513
60.83
53.276
45.874
38.649
31.623
24.815
18.244
11.927
5.878
0.111
-5.365
-10.538
-15.402
-19.951
-24.181
-28.089
-31.675
-34.94
-37.887
-40.519
-42.842
-44.864
-46.592
-48.036
-49.206
-50.114
-50.771
-51.192
-51.388
-51.373
-51.162
-50.768
-50.206
-49.489
-48.632
-47.648
-46.55
-45.352
-44.066
-42.705
-41.28
-39.805
-38.29
-36.745
-35.182
-33.611
-32.042
-30.484
-28.946
-27.437
-25.965
-24.536
-23.158
-21.837
-20.579
-19.387
-18.268
-17.225
-16.26
-15.377
-14.579
-13.866
-13.242
-12.707
-12.262
-11.908
-11.645
-11.475
-11.396
-11.409
-11.514
-11.709
-11.994
-12.368
-12.827
-13.372
-13.998
-14.703
-15.484
-16.336
-17.257
-18.24
-19.282
-20.377
-21.521
-22.708
-23.934
-25.193
-26.48
-27.789
-29.117
-30.457
-31.806
-33.158
-34.509
-35.854
-37.19
-38.512
-39.817
-41.099
-42.356
-43.585
-44.781
-45.942
-47.064
-48.147
-49.187
-50.183
-51.135
-52.041
-52.901
-53.715
-54.486
-55.213
-55.898
-56.543
-57.15
-57.722
-58.262
-58.771
-59.254
-59.713
-60.15
-60.569
-60.971
-61.361
-61.739
-62.108
-62.47
-62.828
-63.182
-63.535
-63.887
-64.241
-64.597
-64.956
-65.32
-65.687
-66.06
-66.437
-66.819
-67.204
-67.592
-67.982
-68.372
-68.761
-69.146
-69.525
-69.896
-70.256
-70.603
-70.932
-71.243
-71.531
-71.795
-72.032
-72.239
-72.416
-72.56
-72.669
-72.744
-72.782
-72.783
-72.746
-72.672
-72.559
-72.409
-72.22
-71.994
-71.73
-71.43
-71.093
-70.72
-70.312
-69.868
-69.391
-68.88
-68.335
-67.758
-67.15
-66.512
-65.845
-65.149
-64.426
-63.676
-62.9
-62.099
-61.271
-60.416
-59.535
-58.625
-57.685
-56.715
-55.712
-54.676
-53.605
-52.496
-51.348
-50.158
-48.926
-47.649
-46.326
-44.956
-43.538
-42.073
-40.56
-39.001
-37.398
-35.753
-34.067
-32.345
-30.589
-28.804
-26.993
-25.163
-23.318
-21.466
-19.614
-17.772
-15.953
-14.168
-12.43
-10.754
-9.155
-7.647
-6.245
-4.963
-3.813
-2.806
-1.954
-1.271
-0.771
-0.467
-0.371
-0.493
-0.842
-1.425
-2.25
-3.319
-4.627
-6.171
-7.949
-9.965
-12.231
-14.756
-17.543
-20.587
-23.879
-27.403
-31.141
-35.058
-39.104
-43.223
-47.361
-51.467
-55.506
-59.435
-63.202
-66.743
-69.973
-72.821
-75.233
-77.171
-78.615
-79.562
-80.025
-80.058
-79.749
-79.212
-78.579
-77.977
-77.531
-77.387
-77.671
-78.567
-80.325
-83.095
-86.918
-91.676
-97.022
-102.591
-108.088
-113.067
-116.947
-119.339
-120.025
-119.26
-117.962
-116.967
-116.912
-118.441
-121.967
-127.572
-135.029
-143.124
-149.433
-151.427
-146.496
-132.056
-106.204
-67.259
-13.951
53.502
133.352
223.026
318.781
416.302
511.442
599.294
674.714
733.467
771.949
787.476
779.085
746.687
690.828
613.743
518.823
410.067
292.582
171.716
52.069
-61.807
-165.519
-255.653
-329.65
-386.027
-424.916
-447.444
-454.797
-448.581
-431.242
-405.628
-374.71
-341.221
-307.086
-273.58
-242.299
-215.023
-192.531
-174.769
-161.178
-150.808
-142.977
-137.295
-132.745
-127.731
-121.333
-113.273
-103.725
-93.344
-82.623
-71.836
-61.624
-52.994
-46.591
-42.656
-41.107
-41.484
-43.353
-46.388
-50.148
-54.061
-57.66
-60.622
-62.733
-63.967
-64.343
-63.842
-62.497
-60.37
-57.513
-54.005
-49.95
-45.43
-40.535
-35.386
-30.081
-24.739
-19.502
-14.475
-9.744
-5.371
-1.372
2.248
5.479
8.333
10.841
13.038
14.981
16.723
18.305
19.78
21.203
22.637
24.157
25.821
27.671
29.743
32.062
34.645
37.514
40.678
44.134
47.88
51.914
56.232
60.836
65.721
70.875
76.283
81.928
87.792
93.859
100.109
106.522
113.074
119.742
126.502
133.332
140.203
147.088
153.954
160.769
167.5
174.114
180.577
186.856
192.918
198.731
204.265
209.49
214.381
218.91
223.054
226.789
230.095
232.956
235.354
237.277
238.713
239.653
240.092
240.026
239.455
238.379
236.802
234.731
232.175
229.145
225.654
221.718
217.354
212.583
207.424
201.903
196.042
189.868
183.408
176.689
169.74
162.591
155.27
147.807
140.232
132.573
124.859
117.119
109.379
101.667
94.008
86.427
78.948
71.593
64.383
57.34
50.48
43.821
37.379
31.167
25.198
19.483
14.033
8.852
3.946
-0.681
-5.027
-9.091
-12.871
-16.37
-19.599
-22.552
-25.228
-27.631
-29.759
-31.629
-33.264
-34.665
-35.827
-36.792
-37.594
-38.26
-38.831
-39.294
-39.618
-39.838
-40.012
-40.033
-39.773
-39.325
-38.694
-37.862
-37.139
-35.726
-32.846
-29.63
-26.427
-25.31
-28.757
-34.038
-39.338
-41.947
-38.142
-31.225
-23.997
-18.377
-17.535
-19.21
-21.112
-22.733
-22.678
-21.762
-21.032
-20.292
-19.679
-19.126
-18.425
-17.718
-17.119
-16.597
-16.147
-15.787
-15.517
-15.335
-15.241
-15.219
-15.25
-15.348
-15.527
-15.789
-16.138
-16.577
-17.11
-17.742
-18.481
-19.329
-20.287
-21.36
-22.55
-23.858
-25.287
-26.839
-28.514
-30.312
-32.233
-34.276
-36.438
-38.717
-41.111
-43.614
-46.223
-48.931
-51.733
-54.621
-57.588
-60.625
-63.723
-66.873
-70.064
-73.285
-76.527
-79.777
-83.024
-86.256
-89.463
-92.632
-95.751
-98.809
-101.795
-104.697
-107.505
-110.208
-112.798
-115.263
-117.597
-119.791
-121.838
-123.732
-125.467
-127.038
-128.442
-129.675
-130.735
-131.622
-132.334
-132.872
-133.239
-133.438
-133.471
-133.343
-133.061
-132.629
-132.054
-131.345
-130.508
-129.552
-128.486
-127.318
-126.057
-124.714
-123.296
-121.814
-120.276
-118.691
-117.068
-115.416
-113.742
-112.055
-110.36
-108.665
-106.977
-105.3
-103.641
-102.004
-100.394
-98.813
-97.265
-95.753
-94.277
-92.839
-91.439
-90.076
-88.749
-87.457
-86.196
-84.965
-83.759
-82.576
-81.411
-80.261
-79.121
-77.987
-76.854
-75.719
-74.575
-73.421
-72.25
-71.059
-69.843
-68.6
-67.325
-66.015
-64.668
-63.281
-61.853
-60.38
-58.861
-57.296
-55.682
-54.02
-52.309
-50.549
-48.742
-46.889
-44.993
-43.056
-41.082
-39.075
-37.039
-34.98
-32.903
-30.813
-28.716
-26.62
-24.531
-22.458
-20.408
-18.391
-16.416
-14.497
-12.646
-10.875
-9.197
-7.627
-6.176
-4.859
-3.686
-2.666
-1.808
-1.12
-0.611
-0.293
-0.176
-0.267
-0.573
-1.102
-1.856
-2.841
-4.054
-5.486
-7.131
-8.981
-11.038
-13.311
-15.809
-18.532
-21.475
-24.631
-27.983
-31.511
-35.179
-38.931
-42.712
-46.47
-50.155
-53.74
-57.186
-60.446
-63.463
-66.158
-68.459
-70.315
-71.685
-72.543
-72.89
-72.747
-72.171
-71.26
-70.129
-68.893
-67.658
-66.515
-65.562
-64.909
-64.738
-65.288
-66.729
-69.147
-72.491
-76.53
-80.968
-85.441
-89.358
-91.99
-92.836
-91.584
-88.3
-83.731
-78.808
-74.605
-72.701
-73.631
-76.338
-80.012
-83.181
-86.337
-93.132
-103.351
-113.272
-114.096
-91.538
-37.601
48.417
161.563
290.689
426.081
560.313
683.622
785.044
856.327
892.6
896.162
876.431
839.915
789.23
724.077
641.15
540.932
428.225
309.379
191.327
79.362
-22.521
-111.905
-188.04
-249.044
-293.748
-320.975
-327.551
-315.953
-293.009
-265.865
-244.307
-231
-220.674
-209.051
-191.273
-167.335
-143.308
-122.634
-106.903
-96.074
-87.955
-81.636
-77.137
-73.625
-69.768
-64.811
-58.391
-50.577
-42.111
-32.445
-20.894
-9.188
1.297
7.699
7.172
2.68
-3.443
-7.956
-6.724
-2.994
0.673
2.521
-0.644
-6.257
-11.839
-16.777
-19.425
-20.575
-21.322
-21.432
-21.076
-20.216
-18.656
-16.608
-14.252
-11.584
-8.631
-5.43
-1.99
1.651
5.429
9.293
13.165
16.956
20.605
24.078
27.364
30.47
33.418
36.236
38.966
41.639
44.284
46.921
49.561
52.226
54.948
57.765
60.728
63.879
67.245
70.85
74.708
78.825
83.201
87.828
92.686
97.755
103.023
108.475
114.101
119.884
125.805
131.841
137.967
144.155
150.381
156.616
162.83
168.995
175.083
181.066
186.919
192.615
198.124
203.417
208.464
213.236
217.705
221.841
225.619
229.011
231.993
234.545
236.648
238.282
239.434
240.089
240.238
239.873
238.987
237.58
235.649
233.199
230.233
226.76
222.79
218.336
213.413
208.039
202.234
196.02
189.422
182.464
175.175
167.583
159.718
151.612
143.297
134.805
126.171
117.427
108.608
99.748
90.881
82.038
73.252
64.555
55.977
47.547
39.293
31.241
23.416
15.841
8.536
1.522
-5.184
-11.569
-17.619
-23.324
-28.674
-33.664
-38.289
-42.548
-46.439
-49.965
-53.13
-55.938
-58.397
-60.515
-62.302
-63.77
-64.93
-65.795
-66.38
-66.699
-66.769
-66.604
-66.221
-65.637
-64.869
-63.933
-62.848
-61.629
-60.293
-58.856
-57.335
-55.743
-54.097
-52.408
-50.691
-48.958
-47.221
-45.49
-43.775
-42.086
-40.43
-38.816
-37.248
-35.734
-34.279
-32.885
-31.559
-30.302
-29.118
-28.01
-26.978
-26.026
-25.154
-24.363
-23.654
-23.028
-22.483
-22.021
-21.64
-21.34
-21.121
-20.981
-20.919
-20.934
-21.025
-21.189
-21.425
-21.731
-22.104
-22.542
-23.043
-23.605
-24.224
-24.899
-25.626
-26.403
-27.227
-28.096
-29.005
-29.951
-30.931
-31.941
-32.976
-34.032
-35.105
-36.19
-37.282
-38.376
-39.467
-40.55
-41.62
-42.671
-43.698
-44.696
-45.66
-46.585
-47.466
-48.3
-49.082
-49.81
-50.479
-51.087
-51.632
-52.111
-52.523
-52.865
-53.138
-53.339
-53.469
-53.528
-53.517
-53.436
-53.286
-53.07
-52.79
-52.448
-52.048
-51.592
-51.086
-50.532
-49.937
-49.303
-48.638
-47.945
-47.232
-46.504
-45.766
-45.026
-44.289
-43.56
-42.846
-42.151
-41.482
-40.844
-40.241
-39.678
-39.16
-38.692
-38.276
-37.917
-37.619
-37.384
-37.215
-37.114
-37.082
-37.123
-37.236
-37.422
-37.683
-38.017
-38.425
-38.906
-39.459
-40.081
-40.772
-41.527
-42.345
-43.221
-44.152
-45.134
-46.162
-47.231
-48.337
-49.475
-50.64
-51.826
-53.028
-54.24
-55.456
-56.67
-57.876
-59.069
-60.242
-61.391
-62.509
-63.592
-64.635
-65.631
-66.577
-67.466
-68.295
-69.059
-69.753
-70.372
-70.913
-71.373
-71.748
-72.037
-72.238
-72.347
-72.366
-72.291
-72.123
-71.862
-71.507
-71.058
-70.515
-69.881
-69.157
-68.346
-67.451
-66.474
-65.418
-64.288
-63.086
-61.817
-60.484
-59.09
-57.64
-56.138
-54.589
-52.999
-51.374
-49.718
-48.039
-46.342
-44.634
-42.922
-41.211
-39.507
-37.818
-36.149
-34.507
-32.9
-31.335
-29.821
-28.371
-26.993
-25.699
-24.5
-23.405
-22.423
-21.566
-20.839
-20.247
-19.794
-19.484
-19.322
-19.317
-19.475
-19.801
-20.297
-20.967
-21.813
-22.835
-24.03
-25.385
-26.891
-28.541
-30.336
-32.288
-34.407
-36.692
-39.141
-41.744
-44.484
-47.342
-50.28
-53.242
-56.17
-59.004
-61.699
-64.226
-66.548
-68.62
-70.379
-71.748
-72.66
-73.07
-72.945
-72.273
-71.062
-69.343
-67.188
-64.711
-62.047
-59.341
-56.724
-54.32
-52.255
-50.648
-49.706
-49.692
-50.765
-52.979
-56.209
-60.132
-64.406
-68.693
-72.431
-74.932
-75.727
-74.569
-71.719
-68.115
-64.759
-62.588
-62.779
-65.534
-69.719
-74.367
-77.567
-79.189
-81.961
-85.238
-86.02
-76.156
-41.845
23.775
120.286
239.593
365.195
485.232
593.505
686.654
765.507
828.582
871.867
892.193
887.074
856.123
800.951
724.509
630.917
524.762
411.225
295.514
181.956
74.73
-22.177
-105.827
-174.154
-226.191
-262.482
-284.271
-292.751
-289.522
-276.893
-257.47
-233.923
-208.512
-182.662
-157.37
-133.961
-113.985
-98.192
-86.51
-78.458
-73.303
-70.527
-69.843
-70.352
-70.506
-69.309
-66.406
-61.806
-55.99
-49.418
-42.331
-35.37
-29.571
-25.558
-23.586
-23.637
-25.311
-28.212
-32.045
-36.345
-40.537
-44.251
-47.255
-49.439
-50.843
-51.449
-51.213
-50.163
-48.352
-45.836
-42.68
-38.936
-34.652
-29.936
-24.924
-19.747
-14.549
-9.418
-4.41
0.424
5.047
9.42
13.516
17.331
20.87
24.139
27.149
29.911
32.44
34.782
36.986
39.107
41.208
43.332
45.509
47.77
50.136
52.625
55.253
58.026
60.943
64.009
67.229
70.61
74.158
77.871
81.744
85.769
89.936
94.235
98.657
103.189
107.82
112.538
117.33
122.183
127.087
132.025
136.977
141.925
146.845
151.715
156.511
161.206
165.775
170.191
174.427
178.46
182.263
185.812
189.083
192.053
194.701
197.005
198.946
200.507
201.67
202.421
202.749
202.642
202.091
201.092
199.639
197.732
195.37
192.556
189.294
185.591
181.455
176.898
171.932
166.573
160.836
154.742
148.311
141.565
134.529
127.228
119.689
111.939
104.006
95.918
87.705
79.395
71.018
62.602
54.176
45.768
37.405
29.113
20.919
12.848
4.921
-2.837
-10.408
-17.771
-24.908
-31.805
-38.446
-44.818
-50.91
-56.712
-62.216
-67.416
-72.309
-76.89
-81.16
-85.119
-88.771
-92.118
-95.168
-97.927
-100.404
-102.607
-104.547
-106.234
-107.681
-108.9
-109.902
-110.703
-111.314
-111.75
-112.023
-112.148
-112.138
-112.004
-111.761
-111.421
-110.994
-110.492
-109.927
-109.308
-108.646
-107.95
-107.228
-106.488
-105.739
-104.985
-104.233
-103.487
-102.752
-102.031
-101.326
-100.641
-99.976
-99.333
-98.713
-98.116
-97.542
-96.991
-96.462
-95.955
-95.468
-95.001
-94.551
-94.118
-93.7
-93.298
-92.908
-92.53
-92.164
-91.807
-91.459
-91.119
-90.784
-90.455
-90.129
-89.806
-89.484
-89.164
-88.843
-88.522
-88.199
-87.874
-87.545
-87.212
-86.873
-86.527
-86.172
-85.806
-85.428
-85.035
-84.627
-84.201
-83.755
-83.287
-82.795
-82.275
-81.726
-81.146
-80.53
-79.878
-79.187
-78.456
-77.681
-76.861
-75.996
-75.083
-74.122
-73.112
-72.051
-70.941
-69.78
-68.569
-67.31
-66.004
-64.653
-63.26
-61.829
-60.363
-58.867
-57.347
-55.807
-54.254
-52.693
-51.132
-49.578
-48.038
-46.52
-45.031
-43.58
-42.174
-40.82
-39.528
-38.303
-37.152
-36.083
-35.102
-34.215
-33.427
-32.743
-32.168
-31.707
-31.362
-31.136
-31.03
-31.046
-31.183
-31.44
-31.815
-32.305
-32.906
-33.613
-34.42
-35.32
-36.306
-37.371
-38.504
-39.696
-40.938
-42.219
-43.529
-44.856
-46.191
-47.522
-48.839
-50.132
-51.391
-52.606
-53.769
-54.87
-55.9
-56.853
-57.721
-58.498
-59.177
-59.756
-60.23
-60.595
-60.852
-60.999
-61.036
-60.965
-60.789
-60.51
-60.135
-59.667
-59.115
-58.484
-57.784
-57.022
-56.208
-55.351
-54.461
-53.547
-52.619
-51.686
-50.757
-49.843
-48.95
-48.089
-47.268
-46.493
-45.773
-45.113
-44.521
-43.999
-43.554
-43.187
-42.902
-42.7
-42.582
-42.548
-42.598
-42.73
-42.94
-43.226
-43.584
-44.006
-44.488
-45.022
-45.601
-46.218
-46.864
-47.533
-48.215
-48.903
-49.59
-50.27
-50.935
-51.579
-52.196
-52.78
-53.327
-53.833
-54.294
-54.709
-55.077
-55.399
-55.68
-55.923
-56.133
-56.316
-56.48
-56.631
-56.777
-56.923
-57.076
-57.242
-57.428
-57.644
-57.902
-58.211
-58.583
-59.026
-59.55
-60.163
-60.87
-61.67
-62.561
-63.541
-64.613
-65.79
-67.085
-68.505
-70.058
-71.744
-73.554
-75.477
-77.489
-79.546
-81.607
-83.625
-85.558
-87.376
-89.044
-90.522
-91.764
-92.702
-93.271
-93.41
-93.068
-92.227
-90.902
-89.125
-86.949
-84.46
-81.734
-78.884
-76.015
-73.166
-70.386
-67.761
-65.411
-63.593
-62.6
-62.567
-63.635
-65.961
-69.366
-73.424
-77.57
-80.891
-83.256
-85.58
-88.077
-90.277
-89.843
-83.139
-69.559
-51.968
-37.024
-32.73
-42.741
-66.027
-96.371
-124.192
-140.17
-134.779
-101.455
-38.339
51.464
158.414
272.473
386.192
495.177
599.426
697.457
784.629
855.596
904.308
926.91
922.984
893.292
839.213
763.399
669.392
561.366
444.703
325.048
207.002
95.037
-6.591
-94.96
-167.866
-223.877
-263.553
-288.645
-300.923
-302.796
-296.773
-284.646
-268.49
-250.446
-231.43
-211.615
-191.134
-169.888
-148.191
-127.172
-107.62
-89.713
-73.874
-60.651
-50.472
-43.632
-39.773
-37.603
-35.798
-33.691
-30.89
-27.19
-22.529
-16.842
-10.362
-3.905
1.59
5.651
8.141
9.179
9.058
7.967
6.111
3.91
1.841
0.204
-0.835
-1.244
-1.105
-0.444
0.733
2.375
4.407
6.75
9.317
12.04
14.855
17.692
20.468
23.086
25.472
27.579
29.376
30.846
31.99
32.808
33.313
33.533
33.498
33.242
32.807
32.237
31.586
30.91
30.272
29.74
29.374
29.222
29.323
29.71
30.405
31.433
32.809
34.536
36.622
39.072
41.888
45.073
48.624
52.53
56.78
61.355
66.237
71.406
76.84
82.517
88.411
94.498
100.751
107.144
113.648
120.231
126.86
133.499
140.113
146.667
153.125
159.45
165.608
171.565
177.288
182.748
187.914
192.759
197.257
201.384
205.119
208.442
211.335
213.785
215.779
217.308
218.366
218.949
219.058
218.693
217.859
216.562
214.811
212.617
209.993
206.954
203.516
199.697
195.517
190.996
186.158
181.024
175.62
169.968
164.095
158.025
151.783
145.394
138.883
132.275
125.593
118.861
112.101
105.336
98.586
91.872
85.212
78.624
72.123
65.726
59.444
53.291
47.276
41.41
35.7
30.154
24.777
19.574
14.55
9.707
5.049
0.575
-3.712
-7.813
-11.727
-15.457
-19.004
-22.369
-25.556
-28.566
-31.404
-34.071
-36.573
-38.911
-41.09
-43.114
-44.986
-46.709
-48.288
-49.726
-51.024
-52.187
-53.216
-54.113
-54.88
-55.518
-56.029
-56.414
-56.675
-56.813
-56.829
-56.727
-56.507
-56.173
-55.727
-55.173
-54.515
-53.755
-52.899
-51.951
-50.916
-49.799
-48.606
-47.342
-46.014
-44.628
-43.191
-41.709
-40.19
-38.641
-37.07
-35.484
-33.892
-32.301
-30.721
-29.16
-27.627
-26.132
-24.684
-23.291
-21.963
-20.708
-19.533
-18.447
-17.456
-16.566
-15.783
-15.111
-14.555
-14.118
-13.802
-13.61
-13.542
-13.599
-13.781
-14.087
-14.514
-15.061
-15.725
-16.502
-17.39
-18.383
-19.478
-20.669
-21.95
-23.316
-24.761
-26.275
-27.853
-29.486
-31.165
-32.882
-34.629
-36.396
-38.176
-39.959
-41.737
-43.502
-45.246
-46.962
-48.643
-50.281
-51.87
-53.405
-54.88
-56.29
-57.63
-58.896
-60.085
-61.193
-62.217
-63.153
-64
-64.754
-65.414
-65.977
-66.441
-66.807
-67.073
-67.239
-67.307
-67.276
-67.148
-66.925
-66.61
-66.205
-65.714
-65.138
-64.483
-63.752
-62.95
-62.081
-61.15
-60.162
-59.123
-58.038
-56.913
-55.753
-54.564
-53.353
-52.125
-50.887
-49.646
-48.408
-47.181
-45.973
-44.791
-43.642
-42.534
-41.475
-40.472
-39.531
-38.659
-37.862
-37.146
-36.516
-35.977
-35.534
-35.189
-34.947
-34.81
-34.78
-34.857
-35.041
-35.332
-35.729
-36.229
-36.83
-37.527
-38.316
-39.192
-40.149
-41.18
-42.278
-43.435
-44.642
-45.888
-47.162
-48.455
-49.753
-51.045
-52.317
-53.558
-54.755
-55.897
-56.97
-57.964
-58.866
-59.665
-60.35
-60.911
-61.338
-61.622
-61.755
-61.731
-61.542
-61.186
-60.658
-59.957
-59.082
-58.033
-56.813
-55.424
-53.871
-52.158
-50.293
-48.286
-46.147
-43.888
-41.522
-39.067
-36.543
-33.969
-31.365
-28.752
-26.15
-23.582
-21.072
-18.642
-16.31
-14.097
-12.021
-10.104
-8.368
-6.836
-5.521
-4.439
-3.602
-3.02
-2.709
-2.677
-2.923
-3.446
-4.24
-5.308
-6.662
-8.309
-10.247
-12.466
-14.951
-17.682
-20.641
-23.796
-27.1
-30.499
-33.936
-37.36
-40.731
-44.013
-47.175
-50.173
-52.954
-55.454
-57.601
-59.35
-60.676
-61.574
-62.087
-62.241
-62.021
-61.547
-61.062
-60.784
-60.985
-61.777
-62.981
-64.644
-67.083
-70.272
-73.947
-77.656
-80.505
-82.095
-82.751
-82.353
-80.396
-76.816
-71.731
-65.921
-61.22
-58.658
-58.278
-60.442
-65.47
-73.333
-83.813
-95.367
-104.799
-109.32
-106.567
-94.027
-69.684
-31.459
22.373
91.771
174.8
268.567
369.191
472.115
572.623
664.977
743.217
802.066
837.215
846.019
828.393
786.243
721.907
638.215
535.961
415.404
280.995
141.03
8.977
-100.887
-181.416
-233.569
-265.75
-288.265
-306.856
-321.575
-328.492
-324.715
-310.542
-288.866
-263.893
-237.576
-210.103
-181.932
-153.725
-127.132
-104.098
-85.22
-70.331
-59.619
-53.235
-50.945
-51.997
-54.536
-56.413
-56.487
-54.409
-50.067
-43.54
-34.992
-24.798
-14.014
-4.004
4.432
11
15.728
18.89
20.688
21.254
20.925
20.163
19.247
18.332
17.476
16.582
15.605
14.577
13.503
12.414
11.388
10.457
9.632
8.939
8.384
7.988
7.796
7.825
8.085
8.581
9.306
10.274
11.507
12.995
14.708
16.595
18.577
20.617
22.714
24.868
27.09
29.387
31.757
34.217
36.799
39.523
42.406
45.455
48.668
52.06
55.655
59.484
63.588
67.988
72.693
77.707
83.026
88.641
94.541
100.701
107.088
113.672
120.425
127.322
134.339
141.446
148.608
155.789
162.95
170.054
177.063
183.94
190.647
197.15
203.414
209.407
215.103
220.473
225.487
230.118
234.338
238.121
241.445
244.286
246.626
248.445
249.73
250.47
250.657
250.284
249.351
247.855
245.802
243.194
240.042
236.354
232.143
227.425
222.218
216.541
210.417
203.868
196.921
189.602
181.939
173.963
165.702
157.188
148.452
139.528
130.448
121.245
111.952
102.602
93.229
83.864
74.54
65.287
56.135
47.112
38.246
29.561
21.083
12.832
4.831
-2.902
-10.351
-17.5
-24.336
-30.849
-37.03
-42.87
-48.365
-53.512
-58.308
-62.753
-66.848
-70.598
-74.007
-77.081
-79.826
-82.254
-84.373
-86.197
-87.736
-89.002
-90.008
-90.772
-91.313
-91.65
-91.8
-91.776
-91.595
-91.279
-90.847
-90.305
-89.645
-88.862
-87.963
-86.978
-85.936
-84.841
-83.706
-82.587
-81.573
-80.75
-80.158
-79.766
-79.526
-79.471
-79.578
-79.621
-79.378
-78.795
-77.935
-77.05
-75.705
-72.457
-66.505
-58.708
-52.764
-54.052
-65.338
-84.187
-102.597
-111.484
-106.315
-89.762
-70.904
-58.363
-56.068
-62.499
-71.734
-79.193
-83.332
-84.613
-85.065
-85.739
-86.509
-87.23
-87.691
-87.935
-88.221
-88.618
-89.087
-89.634
-90.259
-90.946
-91.661
-92.35
-92.97
-93.515
-94.004
-94.443
-94.83
-95.163
-95.444
-95.676
-95.866
-96.015
-96.123
-96.188
-96.212
-96.196
-96.145
-96.06
-95.944
-95.8
-95.63
-95.44
-95.231
-95.008
-94.774
-94.533
-94.289
-94.045
-93.804
-93.57
-93.345
-93.133
-92.936
-92.758
-92.601
-92.466
-92.357
-92.273
-92.218
-92.19
-92.192
-92.224
-92.286
-92.377
-92.498
-92.648
-92.827
-93.034
-93.267
-93.524
-93.804
-94.105
-94.423
-94.757
-95.103
-95.458
-95.821
-96.187
-96.554
-96.92
-97.281
-97.636
-97.981
-98.315
-98.634
-98.937
-99.22
-99.483
-99.723
-99.939
-100.128
-100.289
-100.42
-100.519
-100.585
-100.617
-100.612
-100.569
-100.487
-100.364
-100.2
-99.994
-99.745
-99.452
-99.116
-98.735
-98.309
-97.837
-97.319
-96.752
-96.135
-95.469
-94.75
-93.979
-93.154
-92.273
-91.335
-90.339
-89.283
-88.167
-86.988
-85.748
-84.444
-83.077
-81.648
-80.158
-78.609
-77.002
-75.34
-73.627
-71.866
-70.059
-68.212
-66.33
-64.417
-62.478
-60.522
-58.555
-56.586
-54.627
-52.69
-50.788
-48.934
-47.143
-45.43
-43.809
-42.295
-40.898
-39.632
-38.507
-37.537
-36.736
-36.118
-35.695
-35.481
-35.486
-35.721
-36.195
-36.912
-37.87
-39.067
-40.502
-42.178
-44.109
-46.304
-48.765
-51.492
-54.481
-57.714
-61.171
-64.815
-68.587
-72.43
-76.287
-80.103
-83.84
-87.457
-90.903
-94.121
-97.039
-99.591
-101.731
-103.419
-104.624
-105.355
-105.646
-105.577
-105.279
-104.869
-104.467
-104.206
-104.196
-104.566
-105.439
-106.905
-109.104
-112.234
-116.397
-121.594
-127.699
-134.347
-141.135
-147.682
-153.397
-157.588
-159.742
-159.625
-157.422
-153.756
-149.4
-145.091
-141.664
-140.201
-140.535
-140.859
-139.059
-132.398
-121.095
-109.228
-98.608
-88.454
-71.162
-31.513
41.328
151.243
290.552
437.722
570.755
672.92
736.691
768.019
777.491
772.481
756.281
725.932
675.428
603.254
511.788
405.768
292.414
177.561
65.061
-41.145
-137.531
-221.318
-290.126
-342.492
-378.45
-398.753
-404.188
-396.262
-377.296
-349.806
-316.6
-280.55
-243.767
-208.034
-175.461
-147.676
-125.281
-108.341
-96.244
-87.812
-82.159
-78.281
-74.58
-69.745
-63.177
-54.694
-44.677
-33.917
-22.984
-12.57
-3.711
2.848
6.74
7.882
6.606
3.441
-1.172
-6.725
-12.61
-18.367
-23.62
-28.082
-31.664
-34.334
-36.077
-36.927
-36.931
-36.118
-34.542
-32.287
-29.44
-26.11
-22.412
-18.445
-14.317
-10.146
-6.069
-2.202
1.383
4.644
7.573
10.163
12.406
14.314
15.921
17.279
18.444
19.471
20.401
21.284
22.179
23.151
24.273
25.6
27.172
29.02
31.168
33.637
36.447
39.607
43.114
46.961
51.147
55.668
60.523
65.702
71.191
76.969
83.016
89.313
95.84
102.578
109.501
116.588
123.812
131.15
138.575
146.055
153.555
161.036
168.458
175.781
182.968
189.98
196.777
203.324
209.59
215.539
221.14
226.353
231.138
235.46
239.292
242.613
245.41
247.684
249.441
250.696
251.466
251.766
251.6
250.964
249.839
248.209
246.054
243.374
240.182
236.494
232.322
227.674
222.551
216.941
210.819
204.15
196.89
189.02
180.546
171.509
161.988
152.081
141.906
131.56
121.121
110.658
100.238
89.928
79.798
69.936
60.437
51.42
43.018
35.338
28.452
22.385
17.112
12.573
8.673
5.331
2.486
0.082
-1.917
-3.549
-4.85
-5.864
-6.64
-7.252
-7.797
-8.358
-8.999
-9.75
-10.604
-11.525
-12.452
-13.333
-14.125
-14.8
-15.346
-15.761
-16.048
-16.215
-16.275
-16.224
-16.042
-15.714
-15.225
-14.577
-13.789
-12.889
-11.921
-10.922
-9.928
-8.968
-8.06
-7.216
-6.44
-5.731
-5.082
-4.49
-3.958
-3.489
-3.091
-2.764
-2.509
-2.32
-2.193
-2.119
-2.09
-2.099
-2.138
-2.204
-2.294
-2.406
-2.542
-2.701
-2.884
-3.087
-3.309
-3.546
-3.794
-4.05
-4.31
-4.57
-4.828
-5.081
-5.329
-5.57
-5.803
-6.027
-6.24
-6.442
-6.631
-6.805
-6.963
-7.103
-7.224
-7.324
-7.4
-7.453
-7.48
-7.48
-7.451
-7.392
-7.302
-7.18
-7.023
-6.832
-6.605
-6.342
-6.043
-5.709
-5.34
-4.938
-4.504
-4.039
-3.545
-3.024
-2.478
-1.907
-1.315
-0.704
-0.076
0.566
1.218
1.876
2.537
3.196
3.85
4.493
5.122
5.73
6.314
6.869
7.389
7.869
8.304
8.689
9.02
9.292
9.503
9.647
9.724
9.73
9.663
9.522
9.305
9.012
8.642
8.194
7.67
7.068
6.392
5.642
4.821
3.931
2.976
1.958
0.882
-0.248
-1.428
-2.654
-3.92
-5.221
-6.552
-7.906
-9.277
-10.658
-12.044
-13.429
-14.805
-16.167
-17.51
-18.828
-20.117
-21.372
-22.587
-23.76
-24.885
-25.958
-26.977
-27.937
-28.836
-29.67
-30.438
-31.138
-31.769
-32.328
-32.816
-33.232
-33.574
-33.843
-34.038
-34.16
-34.207
-34.182
-34.084
-33.915
-33.677
-33.372
-33.001
-32.567
-32.07
-31.514
-30.899
-30.228
-29.502
-28.724
-27.896
-27.021
-26.103
-25.145
-24.151
-23.124
-22.068
-20.988
-19.887
-18.771
-17.643
-16.51
-15.376
-14.249
-13.137
-12.049
-10.996
-9.988
-9.034
-8.147
-7.339
-6.623
-6.015
-5.526
-5.164
-4.941
-4.867
-4.952
-5.207
-5.641
-6.254
-7.051
-8.035
-9.212
-10.589
-12.165
-13.929
-15.87
-17.975
-20.243
-22.68
-25.29
-28.067
-31.003
-34.091
-37.327
-40.71
-44.221
-47.82
-51.455
-55.061
-58.595
-62.028
-65.344
-68.534
-71.55
-74.309
-76.731
-78.738
-80.289
-81.38
-81.974
-81.993
-81.461
-80.493
-79.362
-78.516
-78.21
-78.48
-79.315
-80.691
-82.629
-85.141
-87.836
-89.802
-90.337
-89.184
-86.451
-82.526
-77.561
-71.556
-65.06
-59.507
-56.529
-57.256
-62.145
-71.001
-83.613
-99.883
-119.036
-138.882
-156.234
-167.947
-171.015
-162.811
-141.039
-103.142
-48.035
22.631
106.26
200.395
304.219
418.113
539.211
659.001
763.54
838.904
877.417
879.507
853.384
807.744
747.167
673.184
584.56
481.865
369.5
253.236
139.317
33.371
-60.645
-140.011
-202.934
-249.138
-279.592
-295.645
-298.921
-291.652
-276.463
-256.384
-234.378
-212.077
-190.338
-169.91
-151.603
-136.484
-125.008
-116.593
-110.44
-106.242
-103.857
-103.21
-103.757
-104.131
-103.471
-101.734
-99.126
-95.963
-92.502
-88.779
-85.158
-82.505
-81.313
-81.64
-83.305
-85.857
-88.924
-92.298
-95.679
-98.647
-100.928
-102.369
-102.916
-102.651
-101.607
-99.79
-97.246
-94.056
-90.324
-86.176
-81.758
-77.19
-72.591
-68.071
-63.704
-59.541
-55.608
-51.915
-48.455
-45.229
-42.242
-39.49
-36.974
-34.684
-32.594
-30.665
-28.84
-27.06
-25.271
-23.423
-21.479
-19.405
-17.181
-14.791
-12.228
-9.486
-6.551
-3.41
-0.049
3.548
7.387
11.475
15.811
20.394
25.217
30.274
35.555
41.05
46.746
52.634
58.7
64.93
71.308
77.811
84.418
91.101
97.834
104.588
111.33
118.031
124.656
131.175
137.555
143.764
149.769
155.538
161.04
166.243
171.117
175.635
179.768
183.49
186.778
189.61
191.966
193.83
195.186
196.023
196.333
196.109
195.349
194.052
192.222
189.863
186.985
183.598
179.715
175.352
170.528
165.264
159.583
153.509
147.068
140.29
133.202
125.835
118.22
110.39
102.377
94.214
85.934
77.571
69.157
60.725
52.307
43.933
35.634
27.438
19.373
11.463
3.732
-3.796
-11.103
-18.169
-24.979
-31.518
-37.774
-43.737
-49.399
-54.753
-59.795
-64.523
-68.936
-73.035
-76.822
-80.302
-83.478
-86.358
-88.954
-91.277
-93.341
-95.157
-96.733
-98.085
-99.236
-100.196
-100.962
-101.538
-101.923
-102.131
-102.202
-102.155
-101.975
-101.696
-101.389
-101.109
-100.919
-100.834
-100.787
-100.767
-100.861
-100.992
-100.877
-100.462
-99.838
-98.97
-98.178
-96.869
-93.248
-87.735
-81.97
-78.704
-83.063
-94.647
-108.329
-118.971
-119.281
-108.914
-94.738
-82.05
-76.612
-79.332
-85.064
-90.68
-94.009
-94.432
-94.049
-93.789
-93.586
-93.509
-93.238
-92.7
-92.177
-91.751
-91.375
-91.056
-90.808
-90.619
-90.476
-90.356
-90.208
-90.019
-89.813
-89.597
-89.369
-89.131
-88.884
-88.629
-88.371
-88.114
-87.853
-87.591
-87.33
-87.068
-86.801
-86.539
-86.289
-86.057
-85.851
-85.666
-85.485
-85.323
-85.191
-85.06
-84.91
-84.723
-84.473
-84.182
-83.893
-83.583
-83.205
-82.875
-82.727
-82.679
-82.736
-82.923
-82.945
-83.587
-85.612
-87.924
-90.188
-90.391
-86.124
-80.048
-73.933
-70.418
-73.13
-78.854
-84.864
-89.291
-89.049
-86.339
-83.389
-80.693
-79.609
-79.344
-78.878
-78.402
-77.784
-77.089
-76.523
-75.949
-75.258
-74.487
-73.643
-72.715
-71.708
-70.632
-69.493
-68.316
-67.127
-65.922
-64.695
-63.456
-62.209
-60.96
-59.718
-58.486
-57.267
-56.069
-54.899
-53.765
-52.671
-51.623
-50.628
-49.689
-48.813
-48.002
-47.261
-46.593
-45.998
-45.48
-45.038
-44.671
-44.378
-44.156
-44.001
-43.909
-43.876
-43.893
-43.956
-44.056
-44.186
-44.335
-44.497
-44.66
-44.816
-44.953
-45.063
-45.134
-45.157
-45.122
-45.021
-44.843
-44.581
-44.226
-43.77
-43.208
-42.531
-41.736
-40.816
-39.771
-38.597
-37.296
-35.867
-34.315
-32.644
-30.859
-28.967
-26.978
-24.9
-22.744
-20.523
-18.251
-15.941
-13.61
-11.275
-8.955
-6.672
-4.446
-2.298
-0.249
1.681
3.47
5.094
6.532
7.767
8.782
9.56
10.086
10.34
10.309
9.985
9.362
8.437
7.209
5.673
3.827
1.684
-0.742
-3.433
-6.374
-9.562
-12.992
-16.651
-20.52
-24.576
-28.791
-33.144
-37.607
-42.13
-46.661
-51.135
-55.478
-59.646
-63.598
-67.305
-70.746
-73.857
-76.547
-78.743
-80.383
-81.439
-81.942
-81.879
-81.185
-79.919
-78.23
-76.389
-74.795
-73.659
-72.954
-72.643
-72.777
-73.406
-74.459
-75.538
-75.866
-74.703
-71.663
-66.868
-60.382
-52.83
-45.853
-39.876
-35.267
-31.313
-24.767
-16.74
-11.6
-13.982
-29.536
-55.494
-82.08
-101.357
-107.477
-101.376
-87.428
-63.8
-23.198
42.863
138.223
257.193
386.161
511.337
624.177
721.104
802.131
866.815
912.387
935.553
934.058
907.639
857.454
786.046
697.058
594.335
482.723
367.639
253.434
144.184
43.942
-44.426
-118.608
-176.82
-219.353
-247.801
-263.539
-268.488
-264.767
-253.847
-237.859
-219.25
-199.009
-177.42
-155.056
-132.256
-109.885
-89.575
-71.877
-56.517
-43.773
-33.973
-27.162
-23.327
-21.513
-19.886
-17.47
-14.094
-9.634
-4.208
2.024
9.019
16.16
22.266
26.664
29.147
29.711
28.702
26.448
23.103
19.013
14.716
10.58
6.9
3.921
1.657
0.112
-0.671
-0.733
-0.115
1.169
3.052
5.455
8.323
11.576
15.154
19.036
23.158
27.448
31.813
36.12
40.29
44.285
48.068
51.624
54.937
57.994
60.816
63.455
65.951
68.345
70.662
72.914
75.133
77.358
79.636
82.021
84.553
87.256
90.153
93.266
96.607
100.188
104.006
108.045
112.292
116.741
121.382
126.211
131.217
136.382
141.688
147.116
152.647
158.259
163.93
169.634
175.348
181.046
186.705
192.302
197.812
203.208
208.464
213.551
218.441
223.107
227.521
231.656
235.484
238.982
242.127
244.896
247.27
249.232
250.763
251.851
252.482
252.647
252.337
251.548
250.275
248.52
246.284
243.57
240.386
236.742
232.648
228.119
223.172
217.823
212.093
206.002
199.575
192.835
185.808
178.52
171
163.275
155.374
147.328
139.166
130.917
122.611
114.277
105.944
97.64
89.392
81.227
73.171
65.248
57.483
49.896
42.508
35.339
28.406
21.723
15.306
9.165
3.31
-2.25
-7.509
-12.462
-17.106
-21.441
-25.466
-29.183
-32.596
-35.709
-38.529
-41.063
-43.32
-45.309
-47.04
-48.524
-49.774
-50.802
-51.62
-52.243
-52.684
-52.957
-53.076
-53.057
-52.913
-52.659
-52.309
-51.877
-51.375
-50.817
-50.215
-49.579
-48.923
-48.254
-47.584
-46.921
-46.273
-45.648
-45.051
-44.489
-43.965
-43.485
-43.05
-42.664
-42.329
-42.045
-41.813
-41.633
-41.505
-41.427
-41.397
-41.414
-41.475
-41.575
-41.713
-41.883
-42.083
-42.306
-42.549
-42.807
-43.075
-43.348
-43.621
-43.89
-44.149
-44.394
-44.62
-44.824
-45.001
-45.148
-45.261
-45.339
-45.378
-45.377
-45.335
-45.25
-45.122
-44.95
-44.735
-44.477
-44.177
-43.836
-43.457
-43.042
-42.592
-42.112
-41.604
-41.072
-40.52
-39.952
-39.372
-38.786
-38.197
-37.61
-37.031
-36.465
-35.917
-35.392
-34.895
-34.43
-34.003
-33.617
-33.276
-32.985
-32.745
-32.561
-32.434
-32.367
-32.362
-32.421
-32.545
-32.734
-32.989
-33.312
-33.7
-34.154
-34.673
-35.256
-35.902
