Name,John Breau
Date of Birth,"Dec 20, 1971"
Recorded Date,2023-07-21 12:26:17 -0500
Classification,Poor Recording
Symptoms,
Software Version,1.90
Device,"Watch6,3"
Sample Rate,512 hertz


Lead,Lead I
Unit,µV

-34.115
-33.273
-32.6
-32.088
-31.737
-31.566
-31.588
-31.798
-32.162
-32.616
-33.107
-33.603
-34.078
-34.517
-34.899
-35.199
-35.403
-35.51
-35.518
-35.417
-35.189
-34.8
-34.216
-33.42
-32.41
-31.195
-29.781
-28.163
-26.34
-24.308
-22.071
-19.628
-16.972
-14.088
-10.962
-7.588
-3.964
-0.096
4.012
8.357
12.938
17.752
22.796
28.062
33.544
39.232
45.121
51.196
57.443
63.84
70.367
77.001
83.719
90.498
97.311
104.131
110.929
117.679
124.351
130.916
137.343
143.599
149.655
155.478
161.038
166.306
171.249
175.841
180.052
183.857
187.23
190.149
192.591
194.537
195.969
196.872
197.232
197.039
196.285
194.963
193.069
190.604
187.569
183.968
179.809
175.101
169.857
164.092
157.822
151.067
143.848
136.188
128.112
119.646
110.819
101.66
92.198
82.465
72.492
62.313
51.96
41.465
30.862
20.181
9.456
-1.283
-12.006
-22.683
-33.287
-43.788
-54.163
-64.386
-74.432
-84.28
-93.91
-103.301
-112.436
-121.299
-129.876
-138.153
-146.119
-153.765
-161.082
-168.064
-174.703
-180.997
-186.94
-192.532
-197.769
-202.652
-207.181
-211.356
-215.179
-218.652
-221.777
-224.556
-226.992
-229.086
-230.843
-232.264
-233.352
-234.11
-234.541
-234.648
-234.434
-233.902
-233.056
-231.9
-230.436
-228.668
-226.601
-224.238
-221.583
-218.641
-215.416
-211.913
-208.139
-204.098
-199.798
-195.246
-190.45
-185.419
-180.16
-174.686
-169.005
-163.13
-157.072
-150.847
-144.466
-137.947
-131.303
-124.553
-117.712
-110.798
-103.83
-96.824
-89.798
-82.771
-75.761
-68.785
-61.861
-55.006
-48.237
-41.57
-35.021
-28.604
-22.334
-16.224
-10.287
-4.532
1.029
6.388
11.538
16.472
21.184
25.672
29.932
33.965
37.77
41.351
44.709
47.85
50.78
53.506
56.036
58.378
60.543
62.539
64.378
66.069
67.624
69.054
70.369
71.58
72.697
73.73
74.688
75.58
76.416
77.201
77.943
78.648
79.321
79.967
80.588
81.189
81.77
82.332
82.876
83.4
83.903
84.382
84.834
85.253
85.635
85.975
86.267
86.506
86.684
86.797
86.84
86.806
86.691
86.491
86.203
85.825
85.353
84.788
84.13
83.379
82.539
81.613
80.606
79.522
78.369
77.155
75.886
74.574
73.226
71.854
70.469
69.082
67.705
66.35
65.031
63.761
62.552
61.417
60.369
59.421
58.582
57.865
57.279
56.831
56.53
56.382
56.392
56.561
56.892
57.383
58.033
58.836
59.786
60.875
62.09
63.42
64.848
66.359
67.934
69.555
71.199
72.847
74.475
76.062
77.585
79.022
80.349
81.542
82.577
83.432
84.084
84.51
84.688
84.597
84.217
83.536
82.54
81.22
79.568
77.576
75.234
72.537
69.488
66.092
62.359
58.308
53.957
49.343
44.515
39.523
34.416
29.242
24.036
18.842
13.706
8.674
3.806
-0.844
-5.24
-9.336
-13.102
-16.527
-19.598
-22.341
-24.84
-27.167
-29.397
-31.601
-33.794
-36.013
-38.327
-40.799
-43.525
-46.59
-50.032
-53.929
-58.401
-63.448
-68.974
-74.706
-80.121
-84.711
-88.075
-89.758
-89.293
-86.427
-81.228
-74.182
-66.227
-58.337
-51.14
-45.165
-41.057
-39.002
-38.336
-37.673
-34.764
-27.037
-12.635
10.077
43.149
87.808
143.919
210.256
283.805
360.502
436.887
509.186
572.535
622.609
655.909
669.679
663.334
637.634
593.027
530.885
454.114
365.881
269.909
170.439
70.645
-26.696
-118.126
-200.648
-272.096
-330.569
-375.2
-406.4
-424.765
-431.429
-428.482
-418.18
-402.775
-384.73
-365.877
-346.933
-328.159
-309.29
-289.607
-268.52
-245.577
-220.28
-192.733
-163.988
-135.412
-108.662
-85.349
-66.543
-52.913
-44.842
-41.997
-43.282
-47.459
-53.152
-59.167
-64.79
-69.538
-73.151
-75.776
-77.895
-79.913
-82.173
-84.81
-87.688
-90.612
-93.33
-95.509
-96.778
-96.901
-95.778
-93.417
-89.944
-85.497
-80.207
-74.228
-67.73
-60.839
-53.65
-46.266
-38.768
-31.261
-23.875
-16.697
-9.782
-3.169
3.136
9.145
14.868
20.337
25.599
30.69
35.642
40.479
45.216
49.877
54.494
59.101
63.74
68.441
73.219
78.087
83.049
88.099
93.233
98.434
103.681
108.956
114.246
119.537
124.822
130.086
135.315
140.492
145.598
150.618
155.533
160.328
164.984
169.485
173.815
177.96
181.906
185.638
189.141
192.398
195.392
198.108
200.53
202.644
204.435
205.89
206.998
207.748
208.133
208.143
207.774
207.02
205.879
204.347
202.425
200.115
197.419
194.341
190.889
187.069
182.892
178.368
173.513
168.339
162.865
157.109
151.09
144.831
138.353
131.681
124.839
117.854
110.752
103.56
96.305
89.017
81.724
74.453
67.233
60.091
53.054
46.15
39.403
32.839
26.482
20.355
14.48
8.878
3.569
-1.43
-6.101
-10.43
-14.403
-18.009
-21.239
-24.086
-26.543
-28.609
-30.28
-31.559
-32.448
-32.951
-33.075
-32.827
-32.219
-31.26
-29.964
-28.346
-26.419
-24.201
-21.709
-18.961
-15.974
-12.769
-9.364
-5.779
-2.035
1.85
5.854
9.959
14.143
18.388
22.674
26.983
31.296
35.597
39.87
44.098
48.269
52.367
56.382
60.301
64.116
67.817
71.396
74.848
78.166
81.347
84.387
87.284
90.036
92.643
95.105
97.422
99.596
101.629
103.523
105.282
106.907
108.404
109.777
111.03
112.169
113.198
114.124
114.952
115.689
116.339
116.911
117.408
117.838
118.206
118.518
118.779
118.994
119.168
119.305
119.41
119.486
119.536
119.564
119.571
119.561
119.535
119.494
119.441
119.375
119.299
119.212
119.115
119.008
118.89
118.762
118.621
118.467
118.297
118.111
117.904
117.675
117.421
117.138
116.823
116.473
116.083
115.651
115.171
114.642
114.058
113.417
112.714
111.948
111.115
110.212
109.238
108.192
107.071
105.875
104.603
103.256
101.834
100.336
98.766
97.122
95.409
93.628
91.782
89.875
87.911
85.895
83.831
81.727
79.588
77.42
75.23
73.025
70.812
68.599
66.392
64.2
62.029
59.887
57.782
55.72
53.707
51.749
49.851
48.016
46.248
44.55
42.923
41.367
39.882
38.468
37.122
35.841
34.621
33.456
32.339
31.263
30.217
29.189
28.166
27.133
26.074
24.973
23.813
22.576
21.246
19.806
18.241
16.535
14.67
12.629
10.392
7.942
5.263
2.337
-0.848
-4.305
-8.043
-12.067
-16.376
-20.974
-25.868
-31.07
-36.593
-42.442
-48.618
-55.119
-61.93
-69.037
-76.412
-84.009
-91.786
-99.699
-107.707
-115.784
-123.902
-132.023
-140.101
-148.076
-155.886
-163.487
-170.841
-177.914
-184.708
-191.235
-197.544
-203.723
-209.841
-215.974
-222.208
-228.619
-235.306
-242.378
-249.917
-258.054
-266.977
-276.779
-287.456
-298.854
-310.563
-322.141
-333.194
-343.212
-351.655
-358.174
-362.672
-365.58
-367.913
-370.741
-374.962
-381.318
-390.346
-402.231
-416.554
-431.809
-445.485
-454.627
-456.299
-448.065
-427.752
-393.579
-344.841
-282.26
-208.075
-125.966
-40.331
44.497
123.69
191.913
244.313
276.838
286.54
273.149
238.377
182.785
107.534
13.854
-98.525
-223.556
-350.926
-471.095
-572.271
-650.323
-709.635
-753.818
-788.365
-815.618
-832.32
-837.472
-831.917
-817.523
-798.229
-777.154
-755.578
-734.177
-713.384
-693.369
-673.996
-655.355
-637.632
-620.483
-603.885
-587.841
-571.893
-556.04
-540.616
-525.652
-511.127
-497.326
-484.42
-472.734
-462.952
-455.334
-449.86
-446.602
-445.518
-446.414
-449.075
-453.088
-457.823
-462.846
-467.844
-472.477
-476.509
-479.745
-482.015
-483.287
-483.623
-483.064
-481.656
-479.463
-476.544
-473.003
-468.98
-464.6
-459.992
-455.284
-450.604
-446.104
-441.936
-438.206
-434.984
-432.308
-430.187
-428.627
-427.624
-427.147
-427.152
-427.591
-428.411
-429.569
-431.022
-432.716
-434.594
-436.595
-438.651
-440.712
-442.742
-444.709
-446.59
-448.366
-450.02
-451.545
-452.942
-454.208
-455.339
-456.329
-457.169
-457.858
-458.398
-458.791
-459.044
-459.161
-459.149
-459.017
-458.773
-458.429
-457.997
-457.488
-456.915
-456.295
-455.645
-454.986
-454.342
-453.734
-453.188
-452.728
-452.38
-452.17
-452.123
-452.263
-452.615
-453.203
-454.05
-455.18
-456.614
-458.373
-460.477
-462.944
-465.791
-469.033
-472.683
-476.752
-481.247
-486.178
-491.546
-497.356
-503.606
-510.293
-517.414
-524.961
-532.924
-541.291
-550.048
-559.179
-568.666
-578.489
-588.625
-599.053
-609.746
-620.679
-631.826
-643.158
-654.646
-666.261
-677.972
-689.75
-701.562
-713.378
-725.167
-736.897
-748.538
-760.059
-771.431
-782.627
-793.616
-804.373
-814.872
-825.087
-834.996
-844.575
-853.803
-862.662
-871.133
-879.199
-886.846
-894.059
-900.828
-907.14
-912.987
-918.359
-923.25
-927.653
-931.563
-934.976
-937.89
-940.301
-942.211
-943.617
-944.522
-944.926
-944.832
-944.241
-943.156
-941.582
-939.52
-936.974
-933.95
-930.451
-926.482
-922.048
-917.153
-911.804
-906.003
-899.758
-893.071
-885.948
-878.393
-870.411
-862.007
-853.186
-843.952
-834.311
-824.269
-813.832
-803.005
-791.794
-780.206
-768.247
-755.923
-743.24
-730.207
-716.83
-703.116
-689.074
-674.711
-660.037
-645.06
-629.788
-614.231
-598.396
-582.293
-565.932
-549.32
-532.468
-515.384
-498.08
-480.564
-462.848
-444.94
-426.852
-408.593
-390.173
-371.601
-352.886
-334.038
-315.066
-295.977
-276.781
-257.485
-238.098
-218.627
-199.08
-179.463
-159.784
-140.046
-120.258
-100.423
-80.547
-60.634
-40.692
-20.723
-0.734
19.271
39.286
59.307
79.329
99.346
119.355
139.351
159.329
179.284
199.211
219.104
238.959
258.767
278.525
298.224
317.858
337.421
356.904
376.299
395.599
414.794
433.875
452.831
471.651
490.324
508.836
527.175
545.328
563.281
581.022
598.536
615.81
632.83
649.581
666.049
682.219
698.077
713.607
728.795
743.627
758.089
772.166
785.846
799.116
811.963
824.375
836.34
847.846
858.881
869.436
879.501
889.068
898.129
906.677
914.709
922.22
929.207
935.669
941.605
947.014
951.897
956.252
960.082
963.391
966.18
968.454
970.216
971.469
972.223
972.489
972.279
971.603
970.473
968.902
966.909
964.514
961.735
958.592
955.102
951.283
947.161
942.768
938.141
933.307
928.291
923.105
917.768
912.303
906.735
901.084
895.368
889.601
883.816
878.058
872.39
866.871
861.546
856.436
851.554
846.914
842.562
838.575
835.03
831.975
829.429
827.388
825.872
824.949
824.609
824.688
824.882
824.856
824.426
823.634
822.581
821.169
819.248
816.883
814.467
812.637
811.879
812.127
812.955
814.255
816.142
818.536
820.99
822.491
821.824
818.527
812.788
804.563
793.816
780.775
765.965
750.937
738.143
729.662
727.329
733.256
749.155
776.566
816.92
870.294
935.355
1010.232
1092.009
1176.889
1261.177
1340.517
1409.931
1465.144
1502.5
1519.043
1513.589
1486.078
1436.854
1367.699
1281.673
1182.419
1074.746
963.842
853.946
749.045
653.019
568.847
498.936
444.885
406.368
382.011
370.492
370.096
379.008
395.408
416.779
440.603
465.624
491.204
516.653
541.318
564.056
583.766
600.436
614.538
626.098
634.974
641.125
644.767
646.962
649.009
651.389
654.065
656.991
660.123
663.488
667.041
670.17
671.984
672.07
670.391
667.106
662.524
656.856
650.25
643.084
635.916
629.149
623.05
617.766
613.271
609.563
606.68
604.585
603.2
602.444
602.221
602.452
603.094
604.094
605.392
606.925
608.596
610.313
611.99
613.536
614.9
616.049
616.956
617.618
618.046
618.256
618.281
618.161
617.925
617.601
617.213
616.781
616.335
615.91
615.539
615.257
615.089
615.049
615.148
615.388
615.764
616.27
616.89
617.601
618.386
619.228
620.108
621.011
621.919
622.809
623.658
624.441
625.132
625.708
626.141
626.406
626.476
626.327
625.933
625.272
624.32
623.051
621.442
619.468
617.106
614.333
611.131
607.477
603.354
598.746
593.64
588.023
581.887
575.223
568.027
560.296
552.03
543.23
533.901
524.049
513.682
502.81
491.448
479.61
467.314
454.578
441.426
427.879
413.963
399.705
385.133
370.275
355.162
339.823
324.291
308.596
292.769
276.843
260.848
244.817
228.779
212.765
196.804
180.923
165.149
149.507
134.021
118.712
103.603
88.711
74.055
59.649
45.508
31.642
18.063
4.778
-8.208
-20.891
-33.269
-45.344
-57.116
-68.591
-79.774
-90.672
-101.294
-111.648
-121.747
-131.602
-141.225
-150.629
-159.828
-168.837
-177.67
-186.342
-194.867
-203.26
-211.535
-219.705
-227.785
-235.787
-243.723
-251.605
-259.443
-267.249
-275.032
-282.799
-290.558
-298.316
-306.079
-313.849
-321.631
-329.427
-337.237
-345.062
-352.901
-360.754
-368.617
-376.49
-384.368
-392.25
-400.132
-408.01
-415.881
-423.741
-431.587
-439.416
-447.224
-455.009
-462.769
-470.502
-478.206
-485.881
-493.525
-501.138
-508.72
-516.273
-523.796
-531.292
-538.762
-546.208
-553.632
-561.039
-568.431
-575.812
-583.187
-590.559
-597.932
-605.312
-612.701
-620.104
-627.525
-634.965
-642.429
-649.917
-657.432
-664.973
-672.542
-680.136
-687.756
-695.398
-703.06
-710.738
-718.426
-726.12
-733.812
-741.498
-749.168
-756.815
-764.431
-772.006
-779.533
-787
-794.4
-801.72
-808.953
-816.088
-823.114
-830.022
-836.803
-843.447
-849.946
-856.291
-862.476
-868.494
-874.34
-880.009
-885.498
-890.804
-895.927
-900.865
-905.62
-910.194
-914.59
-918.813
-922.868
-926.761
-930.5
-934.093
-937.55
-940.88
-944.095
-947.206
-950.223
-953.159
-956.025
-958.834
-961.597
-964.324
-967.027
-969.718
-972.405
-975.098
-977.806
-980.536
-983.292
-986.082
-988.906
-991.766
-994.662
-997.592
-1000.551
-1003.535
-1006.536
-1009.546
-1012.553
-1015.545
-1018.507
-1021.424
-1024.28
-1027.054
-1029.727
-1032.276
-1034.677
-1036.908
-1038.944
-1040.758
-1042.325
-1043.619
-1044.614
-1045.288
-1045.615
-1045.57
-1045.13
-1044.27
-1042.966
-1041.193
-1038.929
-1036.149
-1032.831
-1028.954
-1024.495
-1019.445
-1013.793
-1007.527
-1000.637
-993.117
-984.955
-976.146
-966.689
-956.574
-945.803
-934.385
-922.323
-909.637
-896.346
-882.465
-868.016
-853.002
-837.411
-821.238
-804.474
-787.102
-769.121
-750.526
-731.298
-711.451
-690.996
-669.928
-648.267
-626.027
-603.223
-579.889
-556.081
-531.873
-507.364
-482.686
-457.976
-433.405
-409.153
-385.395
-362.302
-340.04
-318.833
-298.866
-280.212
-262.809
-246.441
-230.899
-216.016
-201.503
-186.9
-171.81
-156.062
-139.94
-124.159
-109.23
-95.608
-84.008
-75.182
-69.83
-67.31
-65.064
-60.442
-51.889
-40.525
-29.327
-18.16
-2.637
25.511
76.158
153.429
254.089
369.572
486.066
590.312
673.555
729.632
758.674
765.396
752.828
724.463
680.822
618.992
539.652
444.992
339.194
229.445
120.983
17.743
-76.303
-158.577
-227.084
-279.99
-317.323
-340.611
-351.254
-351.103
-342.29
-326.358
-305.22
-281.165
-255.362
-228.158
-199.964
-170.996
-141.732
-113.428
-86.912
-62.235
-39.711
-19.808
-2.815
11.039
22.07
31.478
40.438
49.444
58.793
68.649
79.037
90.038
101.468
112.606
122.63
131.142
138.057
143.5
147.701
150.798
152.964
154.575
156.101
157.873
160.065
162.731
165.862
169.468
173.569
178.131
183.055
188.248
193.625
199.12
204.697
210.317
215.915
221.426
226.792
231.952
236.857
241.458
245.684
249.487
252.845
255.752
258.228
260.299
261.992
263.342
264.397
265.195
265.778
266.187
266.452
266.609
266.701
266.768
266.862
267.023
267.281
267.657
268.167
268.821
269.627
270.585
271.688
272.929
274.301
275.801
277.424
279.165
281.011
282.949
284.962
287.035
289.151
291.294
293.443
295.581
297.689
299.749
301.746
303.661
305.476
307.171
308.726
310.124
311.347
312.376
313.196
313.79
314.147
314.255
314.104
313.684
312.988
312.011
310.751
309.209
307.382
305.268
302.879
300.226
297.322
294.184
290.814
287.209
283.393
279.393
275.195
270.793
266.186
261.367
256.374
251.273
246.058
240.703
235.347
230.149
225.045
220.064
215.251
210.324
206.113
203.428
201.154
198.965
194.802
186.194
175.903
165.773
158.544
157.973
160.755
164.086
166.048
163.464
158.614
153.806
149.555
147.267
146.128
145.085
144.338
143.749
143.384
143.455
143.814
144.343
145.068
145.988
147.079
148.339
149.767
151.354
153.116
155.084
157.246
159.594
162.13
164.821
167.639
170.577
173.581
176.578
179.535
182.416
185.193
187.927
190.68
193.453
196.392
199.778
203.612
207.75
212.249
216.785
221.598
228.06
235.768
243.292
248.49
246.245
235.184
219.157
203.719
199.462
212.789
240.234
274.192
300.821
309.217
299.456
277.59
255.332
242.692
241.782
249.83
260.58
269.024
273.87
275.821
276.767
277.74
278.657
279.341
279.576
279.44
279.221
279.021
278.852
278.738
278.669
278.627
278.582
278.483
278.291
278.009
277.655
277.24
276.768
276.243
275.669
275.056
274.412
273.739
273.038
272.309
271.555
270.779
269.981
269.165
268.332
267.483
266.618
265.738
264.843
263.934
263.01
262.07
261.114
260.14
259.147
258.133
257.097
256.037
254.95
253.835
252.689
251.511
250.297
249.045
247.754
246.421
245.044
243.622
242.153
240.637
239.072
237.459
235.797
234.087
232.33
230.526
228.677
226.783
224.848
222.872
220.859
218.811
216.732
214.624
212.493
210.341
208.174
205.996
203.813
201.629
199.45
197.281
195.129
192.997
190.892
188.819
186.784
184.79
182.843
180.947
179.106
177.323
175.601
173.943
172.35
170.823
169.362
167.969
166.642
165.379
164.179
163.039
161.955
160.925
159.942
159.002
158.098
157.224
156.371
155.531
154.691
153.84
152.966
152.055
151.095
150.072
148.973
147.785
146.499
145.106
143.596
141.959
140.185
138.263
136.187
133.949
131.544
128.969
126.22
123.298
120.211
116.966
113.57
110.023
106.32
102.456
98.435
94.265
89.954
85.521
80.983
76.37
71.73
67.109
62.553
58.104
53.789
49.643
45.711
42.045
38.713
35.774
33.269
31.23
29.679
28.621
28.041
27.895
28.105
28.587
29.244
29.978
30.686
31.242
31.532
31.401
30.635
29.09
26.71
23.573
19.961
16.217
12.65
9.692
7.875
7.57
8.979
11.863
15.361
18.565
20.643
20.744
18.238
12.784
4.398
-5.875
-15.774
-22.713
-23.823
-16.226
2.39
34.217
80.91
142.497
217.358
302.732
394.548
488.212
579.16
661.973
731.211
782.552
812.606
819.364
802.585
762.784
701.218
620.814
525.422
419.29
307.354
194.263
83.862
-20.017
-113.817
-194.879
-261.244
-311.875
-347.007
-367.488
-374.147
-368.209
-351.605
-326.705
-296.116
-262.3
-227.126
-192.043
-158.841
-129.498
-105.065
-85.757
-71.219
-60.641
-53.345
-48.804
-45.86
-42.796
-38.584
-32.861
-25.707
-17.718
-9.377
-0.981
6.777
12.859
16.622
17.85
16.634
13.437
8.691
2.695
-4.101
-11.118
-17.879
-24.039
-29.369
-33.792
-37.266
-39.726
-41.163
-41.621
-41.147
-39.811
-37.692
-34.856
-31.382
-27.359
-22.867
-17.989
-12.834
-7.5
-2.089
3.288
8.566
13.701
18.655
23.418
27.995
32.398
36.657
40.816
44.906
48.957
52.997
57.047
61.136
65.295
69.555
73.951
78.504
83.223
88.114
93.173
98.389
103.747
109.225
114.793
120.423
126.092
131.773
137.445
143.081
148.654
154.135
159.494
164.7
169.725
174.541
179.119
183.432
187.453
191.159
194.527
197.535
200.16
202.38
204.173
205.521
206.405
206.811
206.723
206.13
205.024
203.398
201.25
198.579
195.386
191.676
187.457
182.738
177.53
171.85
165.712
159.136
152.142
144.754
136.995
128.891
120.47
111.761
102.793
93.598
84.207
74.652
64.965
55.18
45.329
35.443
25.556
15.697
5.897
-3.813
-13.406
-22.855
-32.134
-41.219
-50.089
-58.722
-67.101
-75.209
-83.033
-90.559
-97.777
-104.678
-111.255
-117.504
-123.42
-129.002
-134.25
-139.164
-143.749
-148.007
-151.946
-155.571
-158.89
-161.913
-164.649
-167.109
-169.304
-171.245
-172.945
-174.416
-175.672
-176.725
-177.589
-178.276
-178.799
-179.17
-179.402
-179.506
-179.493
-179.373
-179.156
-178.85
-178.465
-178.009
-177.488
-176.911
-176.283
-175.612
-174.903
-174.162
-173.393
-172.603
-171.795
-170.974
-170.143
-169.306
-168.467
-167.63
-166.796
-165.97
-165.154
-164.35
-163.561
-162.789
-162.036
-161.304
-160.594
-159.908
-159.249
-158.618
-158.018
-157.45
-156.918
-156.422
-155.966
-155.551
-155.178
-154.85
-154.567
-154.33
-154.139
-153.995
-153.897
-153.843
-153.834
-153.867
-153.941
-154.053
-154.201
-154.382
-154.593
-154.83
-155.09
-155.369
-155.665
-155.973
-156.291
-156.615
-156.941
-157.267
-157.588
-157.903
-158.207
-158.497
-158.769
-159.022
-159.252
-159.457
-159.634
-159.782
-159.9
-159.986
-160.041
-160.064
-160.055
-160.015
-159.946
-159.85
-159.728
-159.583
-159.417
-159.235
-159.038
-158.83
-158.613
-158.392
-158.168
-157.945
-157.724
-157.508
-157.297
-157.095
-156.901
-156.717
-156.544
-156.38
-156.227
-156.082
-155.947
-155.818
-155.695
-155.575
-155.455
-155.333
-155.205
-155.067
-154.915
-154.744
-154.55
-154.327
-154.071
-153.774
-153.433
-153.04
-152.592
-152.083
-151.508
-150.862
-150.141
-149.341
-148.459
-147.493
-146.439
-145.296
-144.063
-142.741
-141.329
-139.829
-138.243
-136.573
-134.822
-132.995
-131.096
-129.129
-127.1
-125.015
-122.881
-120.706
-118.497
-116.263
-114.013
-111.757
-109.503
-107.263
-105.046
-102.862
-100.722
-98.637
-96.618
-94.675
-92.82
-91.062
-89.413
-87.886
-86.492
-85.242
-84.148
-83.221
-82.471
-81.908
-81.54
-81.374
-81.414
-81.665
-82.129
-82.81
-83.711
-84.836
-86.184
-87.758
-89.554
-91.571
-93.803
-96.238
-98.866
-101.673
-104.649
-107.791
-111.095
-114.554
-118.16
-121.902
-125.762
-129.714
-133.724
-137.743
-141.722
-145.612
-149.37
-152.965
-156.361
-159.522
-162.405
-164.959
-167.134
-168.891
-170.189
-170.991
-171.297
-171.142
-170.591
-169.753
-168.721
-167.557
-166.349
-165.2
-164.181
-163.372
-162.88
-162.772
-163.196
-164.405
-166.49
-169.375
-172.977
-176.989
-180.762
-183.815
-185.669
-185.387
-183.534
-181.068
-177.352
-173.212
-167.639
-159.024
-151.266
-146.926
-149.247
-160.779
-175.091
-186.661
-189.975
-180.351
-160.581
-129.822
-85.536
-25.392
55.752
155.999
266.722
376.321
471.4
541.952
585.392
605.154
605.24
590.155
561.352
515.706
452.618
373.611
281.701
182.711
81.644
-18.479
-114.892
-204.793
-285.734
-355.434
-412.153
-455.4
-485.446
-502.578
-507.41
-501.118
-485.348
-462.314
-434.345
-403.289
-370.626
-337.709
-306.035
-277.24
-252.219
-231.003
-213.277
-198.554
-186.426
-176.6
-168.251
-159.974
-150.952
-140.996
-130.212
-119.069
-107.929
-96.939
-86.604
-77.81
-71.088
-66.602
-64.277
-63.707
-64.524
-66.498
-69.264
-72.313
-75.238
-77.73
-79.582
-80.736
-81.162
-80.816
-79.702
-77.871
-75.377
-72.294
-68.703
-64.673
-60.283
-55.619
-50.753
-45.763
-40.746
-35.792
-30.994
-26.445
-22.198
-18.285
-14.727
-11.525
-8.666
-6.125
-3.863
-1.83
0.018
1.721
3.316
4.838
6.328
7.831
9.391
11.057
12.861
14.83
16.984
19.337
21.892
24.654
27.616
30.766
34.094
37.593
41.251
45.061
49.013
53.09
57.277
61.555
65.906
70.31
74.749
79.2
83.645
88.062
92.43
96.733
100.949
105.057
109.034
112.859
116.511
119.968
123.21
126.217
128.971
131.455
133.654
135.554
137.143
138.41
139.347
139.947
140.202
140.11
139.669
138.877
137.736
136.249
134.419
132.254
129.76
126.948
123.827
120.41
116.71
112.743
108.522
104.065
99.389
94.511
89.45
84.226
78.857
73.362
67.762
62.077
56.325
50.527
44.7
38.864
33.036
27.234
21.474
15.773
10.146
4.608
-0.827
-6.145
-11.334
-16.383
-21.28
-26.016
-30.582
-34.97
-39.173
-43.185
-47.002
-50.618
-54.032
-57.24
-60.242
-63.038
-65.627
-68.011
-70.193
-72.175
-73.962
-75.556
-76.963
-78.188
-79.238
-80.117
-80.833
-81.393
-81.803
-82.072
-82.208
-82.218
-82.111
-81.896
-81.581
-81.175
-80.687
-80.126
-79.501
-78.82
-78.093
-77.327
-76.532
-75.716
-74.886
-74.05
-73.214
-72.387
-71.573
-70.778
-70.008
-69.266
-68.558
-67.887
-67.256
-66.667
-66.123
-65.625
-65.175
-64.772
-64.419
-64.113
-63.854
-63.642
-63.474
-63.348
-63.261
-63.211
-63.193
-63.205
-63.242
-63.299
-63.372
-63.455
-63.543
-63.63
-63.712
-63.782
-63.836
-63.868
-63.874
-63.848
-63.785
-63.682
-63.535
-63.341
-63.095
-62.795
-62.439
-62.025
-61.552
-61.016
-60.419
-59.76
-59.037
-58.253
-57.406
-56.5
-55.534
-54.512
-53.435
-52.306
-51.13
-49.909
-48.648
-47.351
-46.023
-44.668
-43.292
-41.901
-40.499
-39.092
-37.686
-36.286
-34.898
-33.526
-32.176
-30.853
-29.56
-28.302
-27.083
-25.906
-24.775
-23.692
-22.66
-21.682
-20.759
-19.894
-19.087
-18.341
-17.654
-17.028
-16.461
-15.954
-15.504
-15.111
-14.772
-14.485
-14.246
-14.054
-13.903
-13.79
-13.711
-13.659
-13.63
-13.618
-13.617
-13.621
-13.625
-13.621
-13.605
-13.57
-13.511
-13.423
-13.298
-13.133
-12.92
-12.655
-12.332
-11.946
-11.491
-10.964
-10.359
-9.675
-8.906
-8.05
-7.105
-6.067
-4.936
-3.709
-2.387
-0.968
0.547
2.156
3.856
5.645
7.518
9.471
11.497
13.592
15.747
17.956
20.212
22.505
24.827
27.17
29.522
31.874
34.214
36.531
38.809
41.036
43.196
45.276
47.26
49.135
50.887
52.502
53.972
55.286
56.435
57.409
58.198
58.793
59.187
59.375
59.353
59.12
58.674
58.02
57.169
56.129
54.909
53.513
51.934
50.17
48.228
46.114
43.843
41.432
38.9
36.281
33.62
30.965
28.366
25.863
23.486
21.271
19.264
17.521
16.115
15.107
14.543
14.458
14.869
15.776
17.157
18.969
21.137
23.571
26.162
28.806
31.407
33.869
36.113
37.99
39.259
39.773
39.509
38.571
37.242
35.793
34.412
33.479
33.573
35.076
38.067
42.23
46.846
51.136
54.467
56.118
55.057
51.619
47.865
45.841
47.986
53.781
58.864
62.284
66.116
77.669
110.605
172.398
264.669
381.927
508.038
628.068
727.857
796.596
833.758
842.84
831.266
806.827
771.763
724.973
663.505
586.182
495.417
396.068
294.223
194.332
99.54
12.865
-63.375
-127.043
-176.44
-211.432
-232.709
-240.836
-236.722
-221.869
-198.28
-168.59
-135.452
-100.685
-65.719
-32.253
-2.166
23.026
42.648
57.005
66.862
72.754
75.211
75.146
74.022
73.42
74.231
76.598
80.248
84.897
90.307
96.113
101.545
105.608
107.753
107.905
106.291
103.301
99.235
94.354
89.091
84.026
79.594
76.035
73.418
71.661
70.707
70.547
71.133
72.378
74.177
76.425
79.03
81.937
85.093
88.423
91.835
95.209
98.426
101.41
104.117
106.529
108.637
110.434
111.92
113.118
114.069
114.814
115.394
115.837
116.17
116.427
116.652
116.898
117.218
117.649
118.22
118.95
119.859
120.962
122.272
123.791
125.514
127.438
129.566
131.898
134.438
137.183
140.128
143.266
146.588
150.084
153.747
157.564
161.522
165.607
169.806
174.103
178.485
182.933
187.429
191.952
196.479
200.99
205.46
209.866
214.183
218.389
222.461
226.374
230.108
233.641
236.953
240.023
242.833
245.366
247.604
249.533
251.138
252.408
253.331
253.897
254.1
253.933
253.393
252.478
251.187
249.524
247.492
245.096
242.345
239.249
235.817
232.064
228.003
223.65
219.022
214.137
209.015
203.676
198.142
192.433
186.571
180.579
174.48
168.295
162.047
155.759
149.452
143.149
136.872
130.641
124.476
118.399
112.427
106.578
100.87
95.317
89.934
84.733
79.726
74.923
70.333
65.961
61.814
57.896
54.209
50.753
47.529
44.533
41.763
39.214
36.88
34.753
32.826
31.091
29.537
28.155
26.933
25.861
24.926
24.117
23.42
22.823
22.313
21.877
21.501
21.172
20.879
20.608
20.348
20.088
19.816
19.524
19.2
18.837
18.426
17.961
17.434
16.842
16.179
15.442
14.63
13.74
12.772
11.727
10.605
9.407
8.136
6.794
5.384
3.91
2.376
0.785
-0.857
-2.545
-4.274
-6.039
-7.833
-9.653
-11.492
-13.344
-15.206
-17.071
-18.936
-20.795
-22.643
-24.478
-26.295
-28.092
-29.865
-31.612
-33.332
-35.024
-36.689
-38.325
-39.933
-41.515
-43.072
-44.606
-46.117
-47.609
-49.082
-50.541
-51.987
-53.422
-54.849
-56.272
-57.692
-59.112
-60.534
-61.96
-63.393
-64.833
-66.282
-67.74
-69.21
-70.69
-72.183
-73.687
-75.202
-76.728
-78.264
-79.808
-81.358
-82.912
-84.467
-86.021
-87.571
-89.113
-90.644
-92.162
-93.664
-95.146
-96.607
-98.043
-99.453
-100.834
-102.186
-103.506
-104.794
-106.05
-107.274
-108.467
-109.629
-110.762
-111.869
-112.952
-114.013
-115.056
-116.085
-117.104
-118.116
-119.127
-120.141
-121.165
-122.202
-123.259
-124.342
-125.457
-126.608
-127.802
-129.043
-130.336
-131.686
-133.095
-134.568
-136.105
-137.71
-139.382
-141.123
-142.931
-144.804
-146.741
-148.738
-150.791
-152.895
-155.045
-157.235
-159.458
-161.705
-163.97
-166.242
-168.513
-170.773
-173.012
-175.219
-177.385
-179.498
-181.548
-183.524
-185.416
-187.213
-188.908
-190.49
-191.95
-193.282
-194.478
-195.533
-196.443
-197.205
-197.816
-198.276
-198.586
-198.749
-198.768
-198.647
-198.394
-198.016
-197.521
-196.92
-196.224
-195.447
-194.603
-193.71
-192.786
-191.85
-190.922
-190.023
-189.175
-188.397
-187.711
-187.134
-186.684
-186.379
-186.238
-186.28
-186.525
-186.987
-187.683
-188.626
-189.827
-191.295
-193.037
-195.048
-197.328
-199.876
-202.694
-205.793
-209.178
-212.848
-216.797
-221.014
-225.483
-230.183
-235.082
-240.131
-245.283
-250.49
-255.71
-260.914
-266.065
-271.115
-276.007
-280.67
-285.039
-289.069
-292.722
-295.971
-298.808
-301.241
-303.31
-305.085
-306.64
-308.059
-309.427
-310.829
-312.379
-314.18
-316.369
-319.147
-322.642
-326.896
-331.828
-337.151
-342.511
-347.609
-352.04
-355.292
-357.033
-357.089
-355.687
-353.684
-351.979
-351.332
-352.477
-355.95
-362.011
-370.609
-380.781
-390.348
-396.74
-397.292
-389.586
-371.512
-340.806
-295.89
-236.384
-164.341
-84.343
-0.066
85.779
171.469
256.688
335.837
399.376
438.682
444.869
417.531
364.196
291.75
209.266
121.748
28.462
-68.638
-167.691
-266.112
-358.201
-440.158
-510.184
-566.59
-609.188
-638.949
-656.249
-661.864
-657.377
-643.992
-623.273
-597.526
-568.583
-537.481
-505.392
-473.296
-442.112
-413.346
-387.787
-365.203
-345.331
-328.108
-313.352
-300.949
-290.341
-280.184
-269.707
-258.897
-247.896
-236.952
-226.258
-215.796
-205.893
-197.399
-190.777
-186.075
-183.164
-181.633
-181.148
-181.556
-182.543
-183.587
-184.302
-184.403
-183.695
-182.204
-179.946
-176.895
-173.096
-168.617
-163.535
-157.958
-151.987
-145.69
-139.139
-132.401
-125.538
-118.648
-111.823
-105.152
-98.73
-92.61
-86.82
-81.384
-76.3
-71.556
-67.133
-62.99
-59.077
-55.353
-51.78
-48.323
-44.955
-41.635
-38.322
-34.971
-31.535
-27.981
-24.288
-20.433
-16.405
-12.199
-7.814
-3.255
1.461
6.324
11.325
16.45
21.693
27.038
32.47
37.97
43.518
49.092
54.672
60.238
65.766
71.235
76.622
81.906
87.067
92.084
96.933
101.591
106.034
110.239
114.185
117.851
121.215
124.26
126.968
129.325
131.317
132.934
134.166
135.006
135.449
135.491
135.132
134.373
133.217
131.669
129.737
127.43
124.757
121.733
118.37
114.684
110.692
106.412
101.864
97.067
92.044
86.816
81.408
75.842
70.144
64.337
58.446
52.495
46.509
40.511
34.524
28.57
22.672
16.85
11.123
5.511
0.031
-5.3
-10.467
-15.456
-20.255
-24.85
-29.232
-33.392
-37.32
-41.01
-44.455
-47.649
-50.589
-53.27
-55.69
-57.848
-59.743
-61.375
-62.747
-63.859
-64.714
-65.316
-65.668
-65.775
-65.641
-65.271
-64.669
-63.842
-62.795
-61.533
-60.062
-58.388
-56.517
-54.455
-52.206
-49.777
-47.173
-44.399
-41.461
-38.364
-35.114
-31.717
-28.179
-24.506
-20.704
-16.779
-12.739
-8.59
-4.338
0.009
4.445
8.963
13.555
18.214
22.933
27.703
32.516
37.365
42.242
47.138
52.045
56.954
61.858
66.749
71.617
76.454
81.253
86.005
90.702
95.336
99.898
104.383
108.782
113.09
117.3
121.407
125.407
129.294
133.067
136.72
140.253
143.663
146.95
150.114
153.154
156.073
158.871
161.553
164.12
166.578
168.93
171.181
173.337
175.404
177.387
179.294
181.131
182.906
184.625
186.297
187.93
189.531
191.109
192.671
194.226
195.78
197.342
198.919
200.515
202.139
203.795
205.489
207.224
209.005
210.834
212.715
214.648
216.636
218.676
220.77
222.914
225.108
227.348
229.631
231.952
234.307
236.691
239.098
241.521
243.955
246.39
248.821
251.237
253.632
255.995
258.318
260.591
262.805
264.95
267.018
268.999
270.884
272.665
274.333
275.879
277.298
278.581
279.722
280.716
281.558
282.244
282.77
283.134
283.335
283.37
283.24
282.945
282.487
281.866
281.086
280.15
279.062
277.829
276.455
274.947
273.314
271.563
269.702
267.742
265.692
263.563
261.366
259.111
256.811
254.477
252.121
249.755
247.391
245.04
242.714
240.423
238.178
235.988
233.865
231.815
229.85
227.976
226.202
224.536
222.984
221.552
220.245
219.067
218.022
217.111
216.337
215.699
215.198
214.833
214.602
214.501
214.527
214.676
214.94
215.313
215.787
216.355
217.006
217.73
218.519
219.36
220.244
221.16
222.095
223.038
223.977
224.899
225.789
226.632
227.412
228.112
228.716
229.208
229.572
229.793
229.858
229.756
229.478
229.013
228.353
227.485
226.4
225.091
223.553
221.78
219.768
217.515
215.025
212.307
209.369
206.219
202.856
199.273
195.465
191.437
187.194
182.747
178.111
173.306
168.365
163.339
158.281
153.242
148.266
143.38
138.625
134.047
129.706
125.673
122.005
118.744
115.92
113.55
111.635
110.157
109.056
108.243
107.611
107.043
106.43
105.659
104.6
103.137
101.094
98.244
94.455
89.697
84.092
77.951
71.596
65.317
59.557
54.875
51.701
50.24
50.136
50.527
50.627
49.75
47.33
42.917
36.132
27.151
17.336
8.872
4.252
6.282
17.24
39.155
73.407
119.527
176.31
242.7
319.476
408.303
507.49
610.066
702.547
770.339
806.071
810.719
792.575
761.13
719.873
667.208
599.665
515.708
417.919
311.784
203.205
96.945
-2.463
-91.31
-166.673
-227.043
-273.624
-306.84
-326.383
-331.04
-317.835
-290.035
-255.707
-223.032
-201.699
-192.338
-187.268
-180.322
-164.583
-139.231
-110.686
-82.961
-59.192
-40.837
-26.256
-15.101
-7.828
-4.183
-3.625
-5.118
-7.483
-9.946
-12.063
-13.458
-13.919
-13.559
-12.928
-12.767
-13.508
-15.263
-17.936
-21.327
-25.228
-29.368
-33.347
-36.703
-39.166
-40.663
-41.219
-40.939
-39.907
-38.18
-35.869
-33.123
-30.066
-26.794
-23.384
-19.893
-16.412
-13.073
-9.974
-7.179
-4.723
-2.605
-0.823
0.624
1.757
2.616
3.241
3.673
3.949
4.092
4.139
4.131
4.117
4.155
4.292
4.558
4.982
5.58
6.366
7.353
8.542
9.926
11.499
13.261
15.207
17.341
19.658
22.149
24.804
27.61
30.555
33.625
36.806
40.08
43.431
46.841
50.291
53.766
57.244
60.705
64.124
67.477
70.739
73.887
76.895
79.737
82.391
84.833
87.041
88.997
90.68
92.074
93.163
93.932
94.37
94.466
94.211
93.597
92.619
91.276
89.564
87.486
85.044
82.243
79.09
75.594
71.766
67.619
63.168
58.427
53.415
48.152
42.657
36.953
31.061
25.004
18.807
12.494
6.089
-0.384
-6.901
-13.44
-19.977
-26.492
-32.963
-39.37
-45.696
-51.921
-58.029
-64.005
-69.834
-75.503
-80.999
-86.313
-91.436
-96.359
-101.076
-105.582
-109.874
-113.949
-117.806
-121.446
-124.869
-128.078
-131.078
-133.872
-136.468
-138.87
-141.088
-143.127
-144.997
-146.705
-148.261
-149.671
-150.946
-152.092
-153.117
-154.029
-154.834
-155.539
-156.15
-156.673
-157.113
-157.474
-157.762
-157.98
-158.131
-158.219
-158.246
-158.215
-158.128
-157.986
-157.79
-157.543
-157.245
-156.896
-156.498
-156.049
-155.551
-155.003
-154.405
-153.758
-153.061
-152.314
-151.519
-150.676
-149.786
-148.851
-147.874
-146.857
-145.804
-144.717
-143.601
-142.461
-141.3
-140.125
-138.94
-137.752
-136.566
-135.388
-134.224
-133.08
-131.962
-130.875
-129.826
-128.82
-127.862
-126.957
-126.11
-125.325
-124.608
-123.96
-123.388
-122.893
-122.478
-122.147
-121.901
-121.742
-121.671
-121.688
-121.793
-121.985
-122.264
-122.627
-123.073
-123.598
-124.2
-124.873
-125.615
-126.42
-127.283
-128.199
-129.163
-130.168
-131.209
-132.279
-133.373
-134.485
-135.608
-136.738
-137.867
-138.99
-140.101
-141.196
-142.269
-143.314
-144.327
-145.303
-146.239
-147.128
-147.969
-148.756
-149.487
-150.159
-150.768
-151.314
-151.793
-152.204
-152.548
-152.822
-153.028
-153.165
-153.235
-153.239
-153.179
-153.056
-152.875
-152.636
-152.345
-152.004
-151.618
-151.191
-150.726
-150.23
-149.705
-149.156
-148.589
-148.007
-147.415
-146.817
-146.218
-145.622
-145.033
-144.456
-143.895
-143.353
-142.834
-142.341
-141.877
-141.445
-141.046
-140.683
-140.357
-140.068
-139.816
-139.601
-139.423
-139.28
-139.169
-139.089
-139.034
-139.001
-138.984
-138.979
-138.98
-138.98
-138.974
-138.954
-138.915
-138.849
-138.75
-138.611
-138.423
-138.181
-137.877
-137.503
-137.053
-136.518
-135.893
-135.172
-134.348
-133.416
-132.371
-131.208
-129.923
-128.513
-126.972
-125.301
-123.495
-121.554
-119.479
-117.271
-114.932
-112.466
-109.877
-107.171
-104.352
-101.428
-98.407
-95.296
-92.103
-88.84
-85.516
-82.142
-78.731
-75.297
-71.853
-68.416
-64.999
-61.618
-58.291
-55.038
-51.878
-48.83
-45.911
-43.136
-40.521
-38.08
-35.828
-33.779
-31.942
-30.326
-28.94
-27.794
-26.902
-26.27
-25.896
-25.77
-25.88
-26.216
-26.777
-27.567
-28.587
-29.835
-31.306
-32.998
-34.911
-37.04
-39.361
-41.832
-44.391
-46.992
-49.605
-52.225
-54.866
-57.507
-60.09
-62.539
-64.764
-66.704
-68.352
-69.666
-70.562
-71.051
-71.207
-71.244
-71.558
-72.375
-73.68
-75.436
-77.553
-79.86
-82.326
-84.716
-86.364
-86.948
-86.456
-84.943
-82.854
-80.626
-78.274
-76.006
-74.565
-74.44
-76.107
-79.972
-85.876
-93.833
-104.132
-116.85
-130.606
-142.753
-150.843
-153.302
-151.904
-150.086
-147.751
-140.093
-116.899
-67.478
11.091
112.822
224.297
331.322
425.84
505.473
571.357
624.062
661.622
680.926
679.616
657.621
616.1
557.256
484.38
400.676
309.736
215.615
121.29
29.332
-57.322
-136.529
-206.497
-265.472
-312.741
-348.334
-372.099
-384.341
-385.787
-376.794
-358.48
-332.744
-301.261
-265.747
-228.081
-189.85
-152.945
-119.81
-91.9
-69.634
-53.079
-41.747
-34.909
-31.881
-31.259
-30.937
-29.56
-26.556
-21.739
-15.457
-8.101
0.063
8.273
15.316
20.473
23.474
24.33
23.449
21.191
17.778
13.645
9.397
5.456
2.116
-0.451
-2.29
-3.427
-3.843
-3.595
-2.754
-1.388
0.412
2.574
5.058
7.806
10.764
13.879
17.064
20.24
23.33
26.247
28.944
31.393
33.574
35.488
37.149
38.573
39.799
40.875
41.839
42.732
43.589
44.438
45.32
46.278
47.355
48.601
50.048
51.721
53.642
55.826
58.28
61.007
64.004
67.259
70.761
74.502
78.473
82.665
87.065
91.657
96.423
101.341
106.39
111.547
116.789
122.09
127.424
132.764
138.085
143.362
148.567
153.672
158.646
163.462
168.088
172.497
176.661
180.552
184.143
187.411
190.333
192.889
195.059
196.826
198.176
199.097
199.576
199.607
199.184
198.304
196.965
195.169
192.919
190.224
187.09
183.531
179.558
175.188
170.44
165.332
159.886
154.126
148.077
141.764
135.214
128.455
121.515
114.423
107.209
99.902
92.531
85.125
77.712
70.32
62.975
55.704
48.531
41.48
34.573
27.831
21.273
14.917
8.779
2.874
-2.785
-8.189
-13.327
-18.193
-22.782
-27.09
-31.116
-34.86
-38.324
-41.511
-44.425
-47.072
-49.461
-51.599
-53.495
-55.159
-56.604
-57.84
-58.879
-59.735
-60.42
-60.946
-61.327
-61.576
-61.705
-61.727
-61.652
-61.494
-61.262
-60.968
-60.621
-60.23
-59.804
-59.349
-58.873
-58.381
-57.878
-57.367
-56.851
-56.334
-55.817
-55.3
-54.786
-54.272
-53.759
-53.245
-52.73
-52.211
-51.685
-51.151
-50.606
-50.046
-49.47
-48.874
-48.259
-47.619
-46.951
-46.253
-45.522
-44.758
-43.961
-43.127
-42.252
-41.343
-40.408
-39.452
-38.486
-37.504
-36.493
-35.468
-34.445
-33.398
-32.308
-31.161
-29.935
-28.657
-27.376
-26.073
-24.707
-23.402
-22.305
-21.337
-20.51
-19.856
-19.075
-18.992
-20.41
-22.192
-23.994
-23.724
-18.874
-12.224
-5.627
-1.843
-4.659
-10.725
-17.202
-22.144
-22.335
-20.071
-17.681
-15.678
-15.482
-16.262
-16.956
-17.76
-18.536
-19.347
-20.405
-21.562
-22.7
-23.85
-25.014
-26.172
-27.322
-28.464
-29.598
-30.739
-31.904
-33.079
-34.249
-35.413
-36.567
-37.705
-38.826
-39.922
-40.989
-42.023
-43.024
-43.989
-44.917
-45.805
-46.653
-47.458
-48.221
-48.941
-49.618
-50.252
-50.843
-51.391
-51.898
-52.364
-52.791
-53.18
-53.533
-53.851
-54.135
-54.388
-54.609
-54.8
-54.961
-55.094
-55.199
-55.276
-55.326
-55.347
-55.341
-55.307
-55.245
-55.152
-55.029
-54.873
-54.682
-54.456
-54.19
-53.884
-53.534
-53.137
-52.692
-52.195
-51.644
-51.036
-50.367
-49.635
-48.836
-47.969
-47.029
-46.015
-44.923
-43.752
-42.501
-41.169
-39.754
-38.258
-36.681
-35.023
-33.286
-31.471
-29.581
-27.619
-25.588
-23.491
-21.334
-19.121
-16.86
-14.556
-12.216
-9.849
-7.463
-5.066
-2.667
-0.276
2.097
4.442
6.748
9.004
11.197
13.316
15.346
17.272
19.081
20.759
22.291
23.664
24.863
25.878
26.698
27.314
27.718
27.901
27.853
27.567
27.034
26.25
25.211
23.913
22.355
20.54
18.475
16.171
13.635
10.875
7.888
4.674
1.24
-2.408
-6.256
-10.287
-14.479
-18.802
-23.21
-27.655
-32.091
-36.474
-40.772
-44.95
-48.965
-52.769
-56.295
-59.483
-62.284
-64.652
-66.549
-67.966
-68.905
-69.405
-69.542
-69.38
-68.99
-68.463
-67.878
-67.348
-66.986
-66.875
-67.16
-68.043
-69.657
-72.065
-75.16
-78.611
-82.109
-85.401
-88.074
-89.65
-89.781
-88.281
-85.558
-82.514
-79.867
-78.245
-78.362
-80.804
-85.94
-92.926
-99.013
-100.924
-96.423
-86.582
-74.39
-61.157
-44.765
-15.49
37.644
119.946
230.941
356.191
475.882
575.591
643.349
680.314
696.477
697.473
689.312
672.075
638.819
587.108
517.086
431.075
335.57
236.032
135.599
37.413
-55.162
-139.05
-211.161
-269.12
-312.55
-342.084
-358.23
-362.114
-355.629
-340.963
-321.14
-299.21
-276.987
-255.836
-236.798
-220.439
-207.333
-197.534
-190.081
-183.75
-177.558
-170.533
-162.273
-152.651
-141.193
-127.802
-112.918
-97.17
-81.467
-66.813
-53.703
-42.356
-33.061
-25.862
-20.649
-17.252
-15.233
-14.04
-13.321
-12.864
-12.519
-12.233
-11.935
-11.489
-10.799
-9.804
-8.422
-6.597
-4.287
-1.445
1.932
5.799
10.087
14.705
19.561
24.594
29.764
35.033
40.367
45.709
50.985
56.121
61.039
65.679
70.005
73.99
77.627
80.927
83.917
86.637
89.134
91.446
93.601
95.624
97.536
99.367
101.154
102.937
104.76
106.662
108.67
110.808
113.092
115.532
118.131
120.883
123.777
126.801
129.947
133.205
136.567
140.021
143.551
147.141
150.769
154.417
158.064
161.687
165.264
168.774
172.194
175.502
178.681
181.709
184.564
187.224
189.669
191.876
193.826
195.499
196.876
197.941
198.677
199.072
199.113
198.791
198.099
197.03
195.582
193.754
191.547
188.966
186.016
182.706
179.046
175.047
170.725
166.093
161.171
155.976
150.528
144.848
138.959
132.883
126.644
120.267
113.775
107.193
100.546
93.858
87.155
80.46
73.798
67.193
60.667
54.242
47.941
41.783
35.787
29.971
24.352
18.943
13.757
8.807
4.102
-0.35
-4.542
-8.47
-12.129
-15.517
-18.635
-21.481
-24.059
-26.37
-28.42
-30.213
-31.755
-33.054
-34.116
-34.952
-35.568
-35.976
-36.186
-36.209
-36.055
-35.737
-35.268
-34.659
-33.924
-33.075
-32.126
-31.089
-29.976
-28.799
-27.57
-26.3
-24.999
-23.676
-22.342
-21.005
-19.674
-18.355
-17.057
-15.786
-14.549
-13.35
-12.196
-11.091
-10.039
-9.044
-8.11
-7.239
-6.434
-5.696
-5.028
-4.429
-3.901
-3.442
-3.053
-2.73
-2.472
-2.276
-2.14
-2.06
-2.032
-2.053
-2.119
-2.227
-2.372
-2.551
-2.759
-2.993
-3.248
-3.521
-3.807
-4.103
-4.403
-4.704
-5.002
-5.293
-5.573
-5.838
-6.084
-6.307
-6.504
-6.672
-6.808
-6.909
-6.974
-7
-6.988
-6.936
-6.845
-6.715
-6.548
-6.344
-6.105
-5.833
-5.531
-5.199
-4.841
-4.46
-4.057
-3.637
-3.201
-2.752
-2.295
-1.831
-1.364
-0.897
-0.434
0.022
0.469
0.902
1.318
1.715
2.09
2.439
2.761
3.053
3.315
3.545
3.743
3.908
4.042
4.145
4.219
4.264
4.283
4.279
4.252
4.207
4.145
4.07
3.982
3.887
3.784
3.677
3.569
3.459
3.352
3.248
3.148
3.055
2.97
2.893
2.826
2.769
2.724
2.689
2.665
2.65
2.645
2.647
2.655
2.666
2.678
2.687
2.691
2.686
2.668
2.633
2.579
2.5
2.393
2.256
2.085
1.877
1.631
1.346
1.02
0.654
0.248
-0.196
-0.678
-1.195
-1.743
-2.321
-2.924
-3.549
-4.19
-4.842
-5.499
-6.156
-6.805
-7.439
-8.051
-8.632
-9.175
-9.67
-10.109
-10.483
-10.784
-11.002
-11.129
-11.157
-11.077
-10.883
-10.568
-10.126
-9.552
-8.844
-7.999
-7.017
-5.897
-4.642
-3.255
-1.74
-0.103
1.65
3.51
5.468
7.514
9.636
11.822
14.058
16.331
18.622
20.913
23.185
25.418
27.59
29.681
31.667
33.529
35.245
36.797
38.17
39.344
40.304
41.031
41.508
41.723
41.664
41.322
40.691
39.765
38.544
37.036
35.249
33.189
30.858
28.248
25.356
22.188
18.754
15.069
11.154
7.032
2.74
-1.67
-6.144
-10.63
-15.077
-19.451
-23.708
-27.791
-31.632
-35.146
-38.255
-40.904
-43.049
-44.666
-45.751
-46.315
-46.394
-46.053
-45.378
-44.472
-43.439
-42.375
-41.379
-40.551
-40.065
-40.195
-41.104
-42.792
-45.105
-47.706
-50.261
-52.519
-54.054
-54.24
-52.719
-49.558
-45.273
-40.801
-37.126
-35.071
-35.469
-39.239
-45.83
-52.972
-58.31
-59.78
-57.827
-54.865
-50.251
-39.438
-14.119
34.848
110.986
211.808
329.094
451.106
566.451
663.369
733.176
772.541
783.012
771.634
745.614
708.5
660.144
597.751
520.321
429.945
331.205
230.07
130.858
36.657
-49.705
-126.349
-191.386
-243.051
-281.219
-306.786
-320.717
-324.527
-319.852
-307.888
-290.344
-269.33
-246.045
-221.053
-194.905
-167.982
-140.98
-115.31
-91.975
-71.164
-53.231
-38.657
-27.747
-20.683
-17.074
-15.62
-14.995
-14.579
-13.963
-12.833
-11.018
-8.329
-4.886
-1.413
1.21
2.552
2.514
1.212
-1.112
-4.315
-8.208
-12.355
-16.203
-19.356
-21.625
-22.995
-23.565
-23.401
-22.527
-21.014
-18.981
-16.548
-13.821
-10.875
-7.738
-4.441
-1.055
2.334
5.621
8.707
11.536
14.088
16.347
18.314
19.992
21.397
22.559
23.526
24.337
25.024
25.613
26.126
26.592
27.055
27.557
28.148
28.862
29.72
30.742
31.942
33.331
34.913
36.687
38.64
40.765
43.058
45.512
48.124
50.886
53.783
56.802
59.927
63.141
66.427
69.766
73.139
76.526
79.907
83.264
86.577
89.827
92.992
96.052
98.983
101.764
104.373
106.79
108.993
110.964
112.683
114.134
115.302
116.172
116.732
116.971
116.878
116.448
115.673
114.55
113.077
111.255
109.086
106.573
103.724
100.546
97.05
93.247
89.151
84.778
80.144
75.267
70.165
64.859
59.369
53.716
47.923
42.012
36.005
29.924
23.793
17.633
11.467
5.316
-0.799
-6.858
-12.839
-18.726
-24.499
-30.142
-35.638
-40.974
-46.134
-51.107
-55.883
-60.452
-64.806
-68.94
-72.849
-76.53
-79.982
-83.205
-86.199
-88.969
-91.517
-93.849
-95.971
-97.89
-99.614
-101.151
-102.51
-103.702
-104.736
-105.622
-106.372
-106.996
-107.504
-107.909
-108.222
-108.452
-108.613
-108.713
-108.765
-108.778
-108.763
-108.728
-108.684
-108.637
-108.596
-108.567
-108.557
-108.571
-108.612
-108.685
-108.793
-108.937
-109.12
-109.342
-109.603
-109.903
-110.24
-110.615
-111.026
-111.47
-111.946
-112.452
-112.986
-113.545
-114.127
-114.73
-115.352
-115.989
-116.638
-117.298
-117.965
-118.637
-119.31
-119.983
-120.652
-121.316
-121.972
-122.618
-123.254
-123.878
-124.489
-125.087
-125.671
-126.242
-126.8
-127.345
-127.88
-128.405
-128.921
-129.43
-129.934
-130.433
-130.929
-131.423
-131.916
-132.409
-132.904
-133.399
-133.897
-134.399
-134.904
-135.413
-135.928
-136.448
-136.975
-137.509
-138.05
-138.599
-139.157
-139.723
-140.299
-140.883
-141.477
-142.08
-142.691
-143.311
-143.938
-144.571
-145.209
-145.851
-146.496
-147.144
-147.792
-148.44
-149.087
-149.733
-150.378
-151.022
-151.664
-152.304
-152.943
-153.581
-154.219
-154.857
-155.495
-156.135
-156.777
-157.421
-158.068
-158.718
-159.372
-160.029
-160.69
-161.356
-162.025
-162.7
-163.38
-164.067
-164.76
-165.46
-166.169
-166.887
-167.615
-168.354
-169.103
-169.862
-170.633
-171.414
-172.205
-173.006
-173.815
-174.63
-175.452
-176.277
-177.103
-177.929
-178.751
-179.568
-180.375
-181.172
-181.954
-182.72
-183.466
-184.19
-184.889
-185.561
-186.202
-186.809
-187.378
-187.905
-188.388
-188.82
-189.199
-189.52
-189.778
-189.97
-190.089
-190.133
-190.096
-189.975
-189.764
-189.459
-189.057
-188.554
-187.946
-187.231
-186.406
-185.469
-184.416
-183.248
-181.961
-180.554
-179.025
-177.373
-175.596
-173.693
-171.662
-169.503
-167.216
-164.8
-162.258
-159.59
-156.797
-153.884
-150.852
-147.706
-144.449
-141.088
-137.627
-134.072
-130.433
-126.715
-122.928
-119.081
-115.182
-111.242
-107.271
-103.28
-99.278
-95.277
-91.29
-87.327
-83.401
-79.526
-75.715
-71.983
-68.348
-64.827
-61.437
-58.195
-55.12
-52.229
-49.54
-47.068
-44.828
-42.831
-41.09
-39.617
-38.423
-37.52
-36.918
-36.623
-36.642
-36.979
-37.636
-38.614
-39.904
-41.498
-43.391
-45.577
-48.06
-50.844
-53.924
-57.289
-60.928
-64.816
-68.926
-73.223
-77.653
-82.159
-86.687
-91.185
-95.614
-99.933
-104.092
-108.031
-111.675
-114.95
-117.8
-120.184
-122.072
-123.462
-124.369
-124.841
-124.968
-124.835
-124.531
-124.154
-123.787
-123.532
-123.511
-123.832
-124.652
-126.179
-128.513
-131.655
-135.443
-139.489
-143.397
-146.82
-149.283
-150.264
-149.409
-146.589
-142.231
-137.31
-132.671
-128.962
-126.654
-125.994
-127.14
-129.833
-132.63
-133.154
-128.949
-117.571
-97.247
-66.708
-24.343
30.774
97.888
175.013
259.016
345.871
432.204
514.583
588.225
648.711
692.54
716.804
720.582
704.288
667.813
612.007
539.615
453.785
358.658
259.234
159.108
61.474
-29.56
-110.723
-179.543
-233.856
-273.476
-299.593
-312.879
-314.43
-306.151
-289.699
-267.422
-242.066
-214.94
-186.709
-158.34
-130.623
-104.522
-81.124
-60.457
-41.989
-25.797
-11.997
-0.537
8.807
17.014
25.118
33.366
41.644
49.889
57.96
65.8
73.2
79.386
83.683
85.91
86.141
84.691
81.958
78.209
73.788
69.272
65.178
61.84
59.457
58.032
57.507
57.886
59.142
61.199
63.977
67.369
71.257
75.556
80.177
85.008
89.936
94.822
99.506
103.882
107.879
111.457
114.609
117.327
119.606
121.462
122.933
124.065
124.904
125.495
125.873
126.083
126.183
126.237
126.314
126.468
126.732
127.137
127.704
128.451
129.395
130.544
131.893
133.442
135.192
137.146
139.311
141.685
144.262
147.034
149.991
153.124
156.424
159.881
163.481
167.209
171.052
174.995
179.022
183.115
187.254
191.416
195.577
199.713
203.799
207.811
211.724
215.512
219.153
222.625
225.906
228.976
231.816
234.407
236.735
238.782
240.536
241.985
243.118
243.927
244.405
244.548
244.353
243.817
242.943
241.732
240.191
238.324
236.142
233.655
230.875
227.816
224.494
220.927
217.132
213.13
208.94
204.583
200.081
195.456
190.729
185.923
181.058
176.156
171.237
166.323
161.433
156.585
151.799
147.091
142.478
137.976
133.6
129.363
125.278
121.358
117.612
114.049
110.678
107.505
104.535
101.773
99.22
96.878
94.746
92.824
91.109
89.596
88.283
87.162
86.229
85.476
84.896
84.481
84.223
84.113
84.143
84.304
84.586
84.982
85.481
86.075
86.755
87.51
88.333
89.215
90.146
91.117
92.121
93.148
94.191
95.243
96.295
97.342
98.376
99.393
100.386
101.352
102.284
103.18
104.036
104.849
105.616
106.334
107.001
107.614
108.173
108.674
109.116
109.498
109.819
110.076
110.268
110.395
110.457
110.451
110.379
110.241
110.035
109.764
109.428
109.026
108.562
108.035
107.448
106.801
106.096
105.334
104.517
103.647
102.725
101.753
100.732
99.665
98.553
97.398
96.202
94.969
93.701
92.399
91.069
89.712
88.333
86.935
85.521
84.096
82.662
81.223
79.783
78.345
76.912
75.487
74.073
72.674
71.291
69.928
68.587
67.271
65.981
64.721
63.493
62.298
61.139
60.018
58.935
57.894
56.895
55.938
55.026
54.157
53.332
52.551
51.812
51.114
50.456
49.835
49.249
48.697
48.174
47.679
47.209
46.761
46.332
45.919
45.518
45.128
44.743
44.361
43.979
43.592
43.197
42.79
42.368
41.926
41.461
40.97
40.449
39.894
39.303
38.671
37.998
37.28
36.516
35.705
34.845
33.937
32.981
31.977
30.926
29.83
28.69
27.507
26.285
25.024
23.727
22.397
21.036
19.648
18.236
16.804
15.356
13.895
12.426
10.954
9.484
8.019
6.566
5.129
3.714
2.324
0.966
-0.356
-1.637
-2.873
-4.06
-5.195
-6.273
-7.293
-8.252
-9.148
-9.979
-10.746
-11.446
-12.08
-12.647
-13.147
-13.58
-13.949
-14.252
-14.493
-14.673
-14.794
-14.86
-14.874
-14.84
-14.763
-14.647
-14.498
-14.322
-14.124
-13.913
-13.695
-13.478
-13.27
-13.08
-12.916
-12.787
-12.704
-12.68
-12.724
-12.848
-13.063
-13.381
-13.812
-14.366
-15.051
-15.873
-16.84
-17.956
-19.23
-20.669
-22.28
-24.066
-26.031
-28.178
-30.508
-33.018
-35.7
-38.545
-41.545
-44.694
-47.997
-51.456
-55.067
-58.826
-62.724
-66.744
-70.863
-75.054
-79.271
-83.467
-87.6
-91.627
-95.52
-99.25
-102.776
-106.053
-109.022
-111.624
-113.817
-115.562
-116.831
-117.629
-117.975
-117.924
-117.565
-116.972
-116.232
-115.443
-114.699
-114.117
-113.832
-113.957
-114.658
-116.157
-118.568
-121.893
-125.987
-130.439
-134.798
-138.662
-141.493
-142.71
-142.017
-139.422
-135.441
-131.185
-127.812
-126.27
-127.417
-131.921
-139.813
-150.392
-161.994
-171.821
-176.521
-172.839
-157.791
-129.461
-87.685
-32.957
34.13
114.225
208.233
313.683
423.195
523.293
599.651
643.989
655.855
642.646
613.136
571.87
518.906
451.294
367.952
271.212
165.792
57.724
-48.488
-149.636
-242.82
-325.751
-396.358
-452.992
-495.001
-522.538
-536.025
-536.178
-524.207
-501.996
-471.879
-436.281
-397.576
-357.711
-318.571
-282.344
-250.83
-224.895
-204.686
-189.771
-179.313
-172.529
-168.408
-165.292
-161.545
-156.215
-148.943
-139.886
-129.525
-118.318
-106.821
-95.988
-86.872
-80.066
-75.73
-73.714
-73.637
-75.158
-77.987
-81.663
-85.608
-89.431
-92.902
-95.9
-98.433
-100.452
-101.839
-102.558
-102.634
-102.099
-101.014
-99.427
-97.347
-94.825
-91.925
-88.711
-85.271
-81.667
-77.934
-74.127
-70.299
-66.509
-62.847
-59.365
-56.081
-53.002
-50.114
-47.394
-44.83
-42.389
-40.026
-37.704
-35.383
-33.036
-30.646
-28.191
-25.639
-22.959
-20.108
-17.059
-13.8
-10.32
-6.619
-2.699
1.435
5.768
10.278
14.942
19.744
24.665
29.693
34.808
39.987
45.207
50.441
55.666
60.857
65.987
71.033
75.968
80.77
85.417
89.887
94.159
98.212
102.023
105.571
108.836
111.797
114.438
116.74
118.689
120.271
121.476
122.295
122.722
122.752
122.383
121.614
120.448
118.887
116.937
114.606
111.903
108.839
105.428
101.684
97.622
93.26
88.617
83.713
78.567
73.202
67.639
61.9
56.009
49.989
43.863
37.656
31.391
25.091
18.781
12.482
6.217
0.007
-6.127
-12.167
-18.093
-23.889
-29.539
-35.029
-40.344
-45.474
-50.407
-55.135
-59.649
-63.945
-68.016
-71.86
-75.474
-78.858
-82.011
-84.934
-87.631
-90.103
-92.355
-94.391
-96.218
-97.841
-99.268
-100.506
-101.564
-102.451
-103.176
-103.747
-104.175
-104.468
-104.638
-104.692
-104.641
-104.495
-104.261
-103.95
-103.57
-103.128
-102.631
-102.087
-101.502
-100.88
-100.228
-99.548
-98.847
-98.125
-97.388
-96.637
-95.876
-95.105
-94.327
-93.543
-92.753
-91.959
-91.159
-90.355
-89.546
-88.732
-87.912
-87.086
-86.252
-85.411
-84.56
-83.7
-82.829
-81.946
-81.049
-80.139
-79.214
-78.275
-77.321
-76.352
-75.37
-74.375
-73.368
-72.351
-71.326
-70.293
-69.254
-68.212
-67.168
-66.124
-65.083
-64.047
-63.017
-61.997
-60.989
-59.995
-59.017
-58.056
-57.116
-56.198
-55.304
-54.435
-53.593
-52.781
-51.998
-51.248
-50.532
-49.849
-49.201
-48.589
-48.011
-47.468
-46.96
-46.484
-46.041
-45.628
-45.245
-44.89
-44.561
-44.256
-43.973
-43.71
-43.464
-43.233
-43.015
-42.808
-42.608
-42.414
-42.224
-42.035
-41.846
-41.655
-41.46
-41.259
-41.05
-40.832
-40.603
-40.362
-40.108
-39.84
-39.557
-39.259
-38.946
-38.617
-38.273
-37.914
-37.541
-37.153
-36.751
-36.336
-35.908
-35.469
-35.02
-34.56
-34.091
-33.613
-33.128
-32.635
-32.134
-31.625
-31.109
-30.584
-30.051
-29.508
-28.954
-28.389
-27.812
-27.22
-26.612
-25.985
-25.338
-24.669
-23.973
-23.248
-22.493
-21.703
-20.876
-20.008
-19.098
-18.143
-17.138
-16.082
-14.971
-13.802
-12.573
-11.28
-9.922
-8.496
-7.002
-5.437
-3.802
-2.095
-0.317
1.532
3.45
5.438
7.493
9.613
11.796
14.038
16.334
18.68
21.072
23.503
25.968
28.46
30.972
33.497
36.029
38.56
41.081
43.585
46.062
48.504
50.899
53.235
55.501
57.684
59.771
61.75
63.609
65.335
66.918
68.349
69.621
70.726
71.658
72.408
72.968
73.331
73.492
73.447
73.193
72.727
72.051
71.171
70.095
68.829
67.375
65.727
63.88
61.834
59.593
57.166
54.57
51.825
48.961
46.03
43.082
40.166
37.331
34.611
32.043
29.67
27.543
25.725
24.276
23.24
22.652
22.53
22.862
23.613
24.717
26.068
27.566
29.094
30.527
31.76
32.68
33.183
33.166
32.457
30.837
28.203
24.561
20.038
14.949
9.603
4.32
-0.344
-3.729
-5.429
-5.279
-3.444
-0.604
2.529
5.305
6.68
6.434
5.845
6.118
8.828
13.119
14.948
13.565
11.299
16.815
44.106
99.226
182.34
286.431
396.971
506.682
609.311
697.568
768.824
815.952
835.533
831.484
806.445
765.488
711.253
642.005
558.781
463.649
360.554
255.864
154.295
59.748
-24.303
-96.023
-154.134
-197.857
-227.798
-245.092
-251.115
-248.184
-238.767
-224.885
-208.316
-190.327
-171.566
-152.691
-134.352
-116.484
-98.778
-81.054
-63.269
-45.774
-29.062
-13.208
2.056
16.673
30.376
42.88
53.982
63.843
72.678
80.364
86.5
90.848
93.395
94.27
93.691
91.745
88.542
84.392
79.746
75.019
70.533
66.538
63.21
60.714
59.174
58.612
58.984
60.223
62.266
65.041
68.473
72.47
76.914
81.702
86.742
91.938
97.188
102.372
107.363
112.078
116.469
120.513
124.204
127.539
130.526
133.197
135.599
137.778
139.776
141.629
143.369
145.036
146.677
148.342
150.086
151.947
153.953
156.125
158.478
161.027
163.777
166.726
169.863
173.18
176.671
180.332
184.158
188.141
192.266
196.522
200.892
205.362
209.916
214.535
219.203
223.9
228.608
233.308
237.984
242.615
247.18
251.656
256.02
260.25
264.323
268.216
271.905
275.37
278.588
281.541
284.212
286.582
288.637
290.363
291.749
292.783
293.458
293.765
293.702
293.263
292.448
291.257
289.692
287.757
285.457
282.799
279.792
276.447
272.776
268.79
264.506
259.937
255.101
250.016
244.699
239.17
233.448
227.554
221.509
215.333
209.048
202.673
196.23
189.738
183.217
176.686
170.163
163.665
157.208
150.81
144.485
138.248
132.111
126.087
120.188
114.424
108.804
103.338
98.032
92.892
87.923
83.131
78.518
74.086
69.837
65.77
61.886
58.182
54.656
51.306
48.127
45.115
42.266
39.573
37.032
34.637
32.382
30.261
28.268
26.397
24.642
22.997
21.456
20.013
18.662
17.397
16.213
15.104
14.065
13.091
12.176
11.316
10.507
9.744
9.024
8.343
7.698
7.085
6.503
5.949
5.42
4.916
4.433
3.972
3.529
3.104
2.696
2.302
1.922
1.553
1.195
0.844
0.5
0.159
-0.179
-0.518
-0.859
-1.206
-1.559
-1.922
-2.296
-2.683
-3.087
-3.508
-3.949
-4.412
-4.9
-5.415
-5.958
-6.532
-7.139
-7.781
-8.46
-9.178
-9.935
-10.733
-11.573
-12.456
-13.383
-14.353
-15.367
-16.423
-17.522
-18.661
-19.84
-21.055
-22.306
-23.589
-24.902
-26.242
-27.606
-28.992
-30.396
-31.815
-33.247
-34.688
-36.136
-37.587
-39.039
-40.488
-41.931
-43.366
-44.791
-46.203
-47.6
-48.98
-50.343
-51.687
-53.012
-54.317
-55.603
-56.868
-58.115
-59.345
-60.558
-61.756
-62.943
-64.12
-65.29
-66.456
-67.621
-68.787
-69.958
-71.136
-72.324
-73.525
-74.741
-75.974
-77.227
-78.502
-79.8
-81.124
-82.474
-83.851
-85.256
-86.689
-88.149
-89.635
-91.145
-92.677
-94.23
-95.799
-97.382
-98.974
-100.57
-102.166
-103.755
-105.333
-106.892
-108.427
-109.93
-111.395
-112.816
-114.187
-115.5
-116.749
-117.929
-119.034
-120.057
-120.994
-121.839
-122.587
-123.236
-123.78
-124.217
-124.545
-124.761
-124.865
-124.856
-124.735
-124.503
-124.161
-123.714
-123.164
-122.516
-121.777
-120.952
-120.05
-119.08
-118.049
-116.97
-115.851
-114.705
-113.542
-112.376
-111.218
-110.082
-108.98
-107.928
-106.941
-106.036
-105.229
-104.536
-103.975
-103.56
-103.309
-103.235
-103.35
-103.663
-104.186
-104.928
-105.9
-107.113
-108.573
-110.286
-112.258
-114.491
-116.987
-119.743
-122.751
-126
-129.477
-133.178
-137.105
-141.257
-145.635
-150.229
-155.017
-159.987
-165.135
-170.439
-175.865
-181.364
-186.863
-192.317
-197.722
-203.023
-208.122
-212.92
-217.302
-221.202
-224.641
-227.602
-229.985
-231.856
-233.498
-235.015
-236.392
-237.75
-238.902
-240.464
-244.221
-249.934
-256.138
-260.45
-258.286
-250.034
-240.576
-234.651
-238.86
-253.407
-271.518
-287.744
-296.109
-295.194
-289.759
-283.09
-277.842
-275.668
-275.682
-277.753
-282.883
-290.769
-299.68
-308.623
-316.371
-322.258
-327.875
-330.149
-321.827
-296.142
-245.433
-169.957
-78.522
19.961
115.361
202.033
279.772
346.369
399.398
435.836
451.368
444.659
416.491
368.115
302.283
222.402
131.902
35.032
-63.81
-161.084
-253.616
-338.621
-413.98
-477.97
-529.418
-568.156
-594.688
-609.724
-614.13
-608.628
-594.336
-572.992
-546.445
-516.442
-484.533
-452.057
-420.658
-392.488
-368.924
-350.398
-336.894
-327.86
-322.624
-320.563
-320.377
-320.083
-318.361
-314.639
-308.744
-301.08
-292.098
-282.112
-271.925
-262.736
-255.306
-249.978
-246.799
-245.415
-245.508
-246.908
-249.263
-252.092
-255.05
-257.885
-260.47
-262.843
-265.005
-266.89
-268.45
-269.665
-270.534
-271.092
-271.378
-271.406
-271.199
-270.779
-270.17
-269.407
-268.526
-267.562
-266.536
-265.471
-264.395
-263.352
-262.409
-261.61
-260.973
-260.488
-260.131
-259.879
-259.709
-259.593
-259.493
-259.369
-259.188
-258.922
-258.553
-258.059
-257.411
-256.569
-255.491
-254.143
-252.504
-250.561
-248.307
-245.739
-242.855
-239.662
-236.179
-232.42
-228.398
-224.128
-219.617
-214.883
-209.945
-204.826
-199.549
-194.138
-188.618
-183.012
-177.348
-171.648
-165.939
-160.242
-154.578
-148.969
-143.439
-138.01
-132.706
-127.546
-122.553
-117.745
-113.142
-108.76
-104.614
-100.717
-97.081
-93.712
-90.62
-87.808
-85.279
-83.034
-81.071
-79.386
-77.975
-76.829
-75.938
-75.292
-74.877
-74.679
-74.682
-74.869
-75.221
-75.722
-76.35
-77.087
-77.911
-78.804
-79.744
-80.71
-81.683
-82.642
-83.568
-84.442
-85.244
-85.959
-86.569
-87.059
-87.414
-87.623
-87.672
-87.552
-87.254
-86.772
-86.098
-85.229
-84.164
-82.901
-81.442
-79.789
-77.946
-75.92
-73.715
-71.342
-68.808
-66.122
-63.297
-60.341
-57.269
-54.09
-50.819
-47.468
-44.048
-40.575
-37.058
-33.512
-29.947
-26.375
-22.808
-19.254
-15.725
-12.228
-8.773
-5.366
-2.015
1.275
4.498
7.652
10.733
13.74
16.673
19.532
22.318
25.034
27.682
30.266
32.791
35.262
37.682
40.059
42.397
44.703
46.983
49.242
51.486
53.72
55.95
58.179
60.413
62.653
64.903
67.164
69.44
71.729
74.034
76.353
78.687
81.033
83.39
85.755
88.125
90.496
92.863
95.222
97.568
99.894
102.195
104.464
106.696
108.884
111.022
113.103
115.122
117.073
118.95
120.748
122.462
124.089
125.625
127.068
128.416
129.667
130.823
131.882
132.847
133.719
134.5
135.194
135.803
136.331
136.784
137.165
137.48
137.734
137.934
138.084
138.192
138.263
138.303
138.317
138.312
138.293
138.264
138.231
138.198
138.168
138.146
138.135
138.137
138.153
138.185
138.232
138.295
138.372
138.462
138.561
138.668
138.778
138.889
138.995
139.092
139.176
139.241
139.282
139.294
139.271
139.207
139.098
138.938
138.722
138.446
138.105
137.697
137.218
136.666
136.037
135.332
134.548
133.685
132.743
131.723
130.626
129.455
128.213
126.902
125.527
124.093
122.604
121.066
119.484
117.864
116.213
114.536
112.841
111.134
109.422
107.713
106.012
104.328
102.667
101.035
99.439
97.885
96.378
94.923
93.525
92.187
90.912
89.705
88.567
87.5
86.506
85.585
84.738
83.965
83.264
82.634
82.074
81.58
81.15
80.78
80.468
80.21
80.002
79.84
79.719
79.635
79.582
79.554
79.546
79.551
79.562
79.573
79.577
79.567
79.535
79.475
79.379
79.241
79.052
78.804
78.492
78.106
77.638
77.078
76.417
75.646
74.753
73.729
72.564
71.248
69.772
68.129
66.312
64.315
62.132
59.756
57.18
54.399
51.408
48.205
44.787
41.154
37.308
33.256
29.007
24.57
19.949
15.144
10.151
4.975
-0.381
-5.906
-11.585
-17.399
-23.32
-29.306
-35.309
-41.284
-47.182
-52.97
-58.608
-64.053
-69.253
-74.139
-78.643
-82.711
-86.288
-89.338
-91.847
-93.814
-95.274
-96.303
-96.965
-97.344
-97.54
-97.646
-97.793
-98.11
-98.692
-99.702
-101.349
-103.772
-107.047
-111.056
-115.413
-119.754
-123.789
-127.08
-129.141
-129.596
-128.2
-125.337
-122.063
-119.305
-117.65
-117.742
-120.161
-125.077
-132.47
-140.226
-143.975
-141.113
-130.11
-111.142
-87.124
-55.648
-10.731
52.018
137.54
242.238
354.597
464.994
563.089
642.768
704.324
746.942
769.9
773.044
754.933
715.083
655.118
578.091
487.789
388.629
285.18
180.83
78.955
-16.059
-100.678
-172.187
-228.245
-268.253
-292.575
-301.199
-295.273
-277.554
-250.945
-218.897
-185.099
-152.049
-121.928
-96.969
-78.203
-65.577
-58.519
-55.488
-54.544
-54.2
-52.826
-48.971
-42.028
-31.828
-18.617
-3.289
13.065
29.395
44.47
57.375
67.742
75.394
80.425
83.185
84.034
83.432
81.974
80.071
77.938
75.734
73.506
71.305
69.278
67.519
66.082
65.059
64.509
64.472
64.999
66.077
67.648
69.649
72
74.626
77.486
80.534
83.728
87.031
90.377
93.703
96.948
100.037
102.918
105.565
107.96
110.112
112.046
113.791
115.386
116.875
118.29
119.663
121.019
122.378
123.769
125.225
126.781
128.48
130.355
132.429
134.721
137.244
139.999
142.989
146.207
149.639
153.275
157.103
161.113
165.296
169.641
174.13
178.745
183.464
188.265
193.127
198.024
202.932
207.826
212.681
217.473
222.18
226.776
231.238
235.54
239.656
243.563
247.236
250.652
253.789
256.627
259.144
261.324
263.151
264.612
265.694
266.386
266.681
266.573
266.059
265.137
263.807
262.072
259.937
257.409
254.497
251.213
247.57
243.583
239.269
234.646
229.735
224.555
219.13
213.482
207.634
201.611
195.437
189.136
182.735
176.258
169.729
163.175
156.618
150.084
143.593
137.17
130.834
124.605
118.503
112.544
106.744
101.118
95.68
90.44
85.408
80.594
76.004
71.643
67.514
63.621
59.963
56.54
53.35
50.389
47.655
45.142
42.843
40.753
38.864
37.167
35.654
34.317
33.144
32.126
31.253
30.513
29.897
29.394
28.993
28.685
28.459
28.307
28.219
28.187
28.203
28.26
28.351
28.47
28.612
28.772
28.947
29.132
29.325
29.524
29.727
29.933
30.14
30.347
30.554
30.761
30.967
31.173
31.379
31.585
31.792
32.001
32.214
32.431
32.653
32.882
33.119
33.365
33.62
33.885
34.161
34.449
34.748
35.058
35.38
35.711
36.052
36.4
36.754
37.113
37.473
37.833
38.191
38.543
38.889
39.226
39.551
39.864
40.162
40.442
40.705
40.947
41.168
41.366
41.539
41.686
41.806
41.899
41.963
41.997
42.001
41.974
41.916
41.826
41.703
41.549
41.364
41.147
40.9
40.624
40.321
39.992
39.639
39.264
38.868
38.454
38.024
37.578
37.118
36.647
36.165
35.673
35.173
34.664
34.148
33.624
33.092
32.551
32.001
31.442
30.871
30.288
29.69
29.078
28.448
27.799
27.13
26.438
25.72
24.974
24.198
23.388
22.541
21.653
20.722
19.745
18.717
17.635
16.497
15.299
14.039
12.714
11.322
9.861
8.331
6.731
5.062
3.324
1.519
-0.351
-2.282
-4.272
-6.316
-8.409
-10.546
-12.719
-14.924
-17.152
-19.396
-21.647
-23.898
-26.138
-28.359
-30.551
-32.703
-34.806
-36.848
-38.818
-40.706
-42.499
-44.185
-45.754
-47.193
-48.493
-49.642
-50.63
-51.45
-52.091
-52.547
-52.811
-52.878
-52.743
-52.402
-51.853
-51.096
-50.132
-48.961
-47.587
-46.015
-44.25
-42.299
-40.171
-37.874
-35.419
-32.817
-30.08
-27.222
-24.258
-21.203
-18.074
-14.892
-11.676
-8.45
-5.236
-2.058
1.06
4.093
7.018
9.813
12.458
14.934
17.223
19.307
21.166
22.784
24.145
25.237
26.049
26.571
26.794
26.717
26.345
25.681
24.729
23.489
21.949
20.104
17.955
15.509
12.775
9.772
6.518
3.049
-0.581
-4.318
-8.105
-11.892
-15.647
-19.328
-22.88
-26.242
-29.334
-32.086
-34.451
-36.387
-37.87
-38.896
-39.486
-39.694
-39.616
-39.356
-39.023
-38.732
-38.584
-38.68
-39.111
-40.005
-41.567
-43.958
-47.235
-51.295
-55.871
-60.666
-65.424
-69.774
-73.158
-75.071
-75.237
-73.93
-71.871
-69.724
-68.166
-67.903
-69.676
-74.358
-81.161
-86.933
-88.568
-83.221
-72.045
-60.814
-51.993
-44.261
-28.205
13.216
91.257
208.474
353.463
501.074
626.492
711.702
751.771
756.097
738.381
709.349
672.92
625.471
561.437
479.241
381.415
273.859
163.884
56.419
-45.117
-137.535
-218.605
-286.218
-338.658
-376.067
-399.576
-410.37
-410.056
-400.293
-382.737
-359.602
-333.176
-304.799
-275.24
-245.157
-215.287
-186.81
-160.924
-138.294
-119.008
-103.175
-91.055
-82.826
-78.239
-76.392
-76.042
-75.989
-75.618
-74.675
-72.897
-70.125
-66.424
-62.183
-58.112
-55.021
-53.275
-52.855
-53.643
-55.404
-57.895
-60.826
-63.745
-66.149
-67.754
-68.483
-68.363
-67.51
-66.001
-63.884
-61.266
-58.293
-55.089
-51.753
-48.362
-44.967
-41.647
-38.518
-35.681
-33.204
-31.128
-29.452
-28.163
-27.251
-26.692
-26.448
-26.471
-26.712
-27.12
-27.656
-28.283
-28.951
-29.603
-30.168
-30.578
-30.786
-30.761
-30.484
-29.949
-29.15
-28.082
-26.757
-25.196
-23.407
-21.392
-19.137
-16.611
-13.807
-10.728
-7.391
-3.828
-0.056
3.924
8.107
12.497
17.093
21.89
26.901
32.158
37.657
43.371
49.238
55.153
61.039
66.839
72.504
78.005
83.297
88.318
93.015
97.341
101.243
104.67
107.548
109.768
111.272
112.042
112.1
111.522
110.363
108.645
106.401
103.649
100.419
96.755
92.685
88.221
83.396
78.248
72.843
67.281
61.622
55.897
50.109
44.225
38.234
32.143
25.956
19.678
13.317
6.881
0.394
-6.099
-12.57
-19
-25.383
-31.732
-38.043
-44.294
-50.457
-56.491
-62.361
-68.045
-73.516
-78.745
-83.71
-88.397
-92.8
-96.927
-100.781
-104.361
-107.663
-110.682
-113.418
-115.875
-118.062
-119.985
-121.654
-123.08
-124.276
-125.257
-126.039
-126.633
-127.051
-127.303
-127.398
-127.351
-127.172
-126.875
-126.472
-125.978
-125.403
-124.761
-124.064
-123.323
-122.549
-121.755
-120.947
-120.129
-119.318
-118.526
-117.765
-117.049
-116.375
-115.733
-115.136
-114.602
-114.1
-113.611
-113.116
-112.587
-112.047
-111.54
-111.04
-110.497
-110.031
-109.782
-109.663
-109.677
-109.848
-109.864
-110.554
-112.727
-115.218
-117.671
-117.952
-113.508
-107.157
-100.775
-97.158
-100.15
-106.346
-112.857
-117.706
-117.624
-114.945
-112.032
-109.411
-108.524
-108.532
-108.357
-108.206
-107.939
-107.63
-107.497
-107.399
-107.221
-107.003
-106.754
-106.462
-106.132
-105.774
-105.395
-105.017
-104.668
-104.34
-104.025
-103.731
-103.458
-103.209
-102.989
-102.796
-102.63
-102.494
-102.389
-102.318
-102.282
-102.28
-102.313
-102.379
-102.479
-102.612
-102.775
-102.968
-103.189
-103.434
-103.703
-103.991
-104.297
-104.618
-104.949
-105.288
-105.63
-105.973
-106.311
-106.642
-106.961
-107.264
-107.548
-107.808
-108.04
-108.243
-108.411
-108.542
-108.632
-108.679
-108.68
-108.634
-108.537
-108.39
-108.19
-107.937
-107.631
-107.272
-106.86
-106.395
-105.879
-105.312
-104.695
-104.029
-103.316
-102.556
-101.752
-100.906
-100.02
-99.095
-98.134
-97.139
-96.111
-95.054
-93.969
-92.856
-91.718
-90.556
-89.371
-88.165
-86.938
-85.693
-84.429
-83.148
-81.849
-80.533
-79.199
-77.848
-76.477
-75.088
-73.678
-72.249
-70.799
-69.33
-67.842
-66.335
-64.81
-63.269
-61.714
-60.144
-58.563
-56.974
-55.379
-53.782
-52.188
-50.601
-49.029
-47.48
-45.962
-44.484
-43.057
-41.691
-40.396
-39.182
-38.061
-37.04
-36.127
-35.332
-34.664
-34.133
-33.75
-33.526
-33.468
-33.585
-33.885
-34.372
-35.051
-35.917
-36.968
-38.201
-39.618
-41.228
-43.037
-45.047
-47.255
-49.656
-52.235
-54.974
-57.843
-60.795
-63.785
-66.768
-69.702
-72.558
-75.306
-77.907
-80.315
-82.472
-84.319
-85.817
-86.93
-87.63
-87.922
-87.825
-87.395
-86.726
-85.898
-85.004
-84.143
-83.391
-82.848
-82.627
-82.818
-83.567
-85.07
-87.411
-90.579
-94.47
-98.747
-103.016
-106.916
-109.911
-111.402
-111.058
-108.828
-104.977
-100.275
-95.783
-92.335
-90.647
-91.617
-94.613
-98.393
-102.647
-105.306
-105.688
-103.569
-93.751
-72.233
-34.579
23.586
97.906
183.072
273.378
361.202
444.555
521.032
586.282
637.648
670.981
683.123
673.931
643.851
594.078
527.213
446.305
354.753
256.951
157.245
59.116
-34.097
-119.334
-194.306
-256.969
-305.875
-341.146
-363.541
-373.822
-373.121
-362.568
-343.607
-318.575
-289.859
-258.943
-227.068
-195.476
-165.505
-138.947
-116.894
-99.21
-85.361
-74.971
-67.585
-62.694
-59.293
-55.608
-50.487
-43.69
-35.327
-25.736
-15.28
-4.201
6.886
16.847
24.967
31.025
35.051
37.413
38.433
38.273
37.24
35.803
34.306
32.979
31.941
31.135
30.544
30.221
30.208
30.562
31.312
32.442
33.937
35.788
37.977
40.494
43.319
46.411
49.724
53.22
56.869
60.664
64.582
68.584
72.614
76.601
80.507
84.323
88.049
91.696
95.277
98.798
102.283
105.765
109.272
112.829
116.45
120.142
123.921
127.811
131.844
136.051
140.455
145.064
149.882
154.908
160.137
165.56
171.16
176.911
182.792
188.785
194.869
201.028
207.243
213.486
219.733
225.957
232.13
238.228
244.223
250.091
255.805
261.343
266.681
271.801
276.68
281.298
285.634
289.668
293.38
296.752
299.768
302.414
304.674
306.539
308.001
309.052
309.688
309.907
309.708
309.093
308.066
306.631
304.797
302.573
299.969
296.999
293.678
290.021
286.046
281.771
277.217
272.404
267.354
262.089
256.633
251.007
245.236
239.345
233.356
227.295
221.185
215.05
208.912
202.795
196.721
190.71
184.782
178.956
173.25
167.681
162.262
157.009
151.934
147.047
142.358
137.874
133.602
129.547
125.711
122.095
118.701
115.526
112.569
109.825
107.289
104.956
102.819
100.871
99.101
97.503
96.064
94.777
93.628
92.609
91.707
90.911
90.211
89.594
89.051
88.569
88.139
87.75
87.393
87.057
86.735
86.419
86.101
85.775
85.435
85.078
84.698
84.294
83.863
83.404
82.917
82.4
81.856
81.286
80.691
80.074
79.437
78.785
78.12
77.445
76.764
76.082
75.4
74.723
74.054
73.397
72.755
72.132
71.53
70.952
70.401
69.878
69.387
68.928
68.503
68.111
67.754
67.431
67.141
66.883
66.655
66.455
66.28
66.128
65.994
65.875
65.767
65.666
65.567
65.466
65.359
65.242
65.114
64.969
64.801
64.605
64.375
64.109
63.807
63.465
63.072
62.63
62.151
61.644
61.124
60.587
60.009
59.387
58.744
58.062
57.288
56.382
55.299
54.035
52.66
51.198
49.576
47.876
46.364
45.097
44.003
43.118
42.16
41.67
43.292
46.658
50.271
51.634
46.075
33.932
19.89
8.635
6.816
14.789
26.284
36.462
40.074
36.259
29.713
23.3
18.998
17.382
16.537
15.608
14.658
13.62
12.786
12.224
11.675
11.062
10.427
9.764
9.059
8.321
7.561
6.802
6.089
5.432
4.813
4.223
3.667
3.142
2.65
2.193
1.762
1.359
0.986
0.646
0.341
0.071
-0.163
-0.36
-0.518
-0.636
-0.713
-0.748
-0.738
-0.682
-0.578
-0.424
-0.218
0.042
0.359
0.732
1.164
1.656
2.208
2.819
3.491
4.222
5.01
5.853
6.75
7.696
8.687
9.718
10.784
11.878
12.993
14.12
15.248
16.366
17.462
18.523
19.535
20.484
21.357
22.138
22.815
23.377
23.809
24.099
24.231
24.189
23.96
23.529
22.883
22.012
20.902
19.548
17.946
16.098
14.001
11.649
9.031
6.134
2.953
-0.513
-4.263
-8.287
-12.573
-17.096
-21.818
-26.697
-31.696
-36.776
-41.915
-47.082
-52.238
-57.336
-62.309
-67.098
-71.652
-75.926
-79.886
-83.529
-86.862
-89.928
-92.801
-95.539
-98.215
-100.915
-103.699
-106.66
-109.908
-113.542
-117.744
-122.746
-128.66
-135.508
-143.179
-151.344
-159.632
-167.68
-174.938
-180.807
-184.995
-187.459
-188.537
-189.149
-190.407
-193.319
-198.893
-207.221
-216.918
-226.444
-234.722
-242.6
-252.207
-263.241
-270.757
-264.142
-232.303
-170.082
-81.258
21.672
125.307
220.603
304.27
377.652
440.512
490.205
523.207
535.447
525.78
495.384
445.298
377.747
295.848
202.644
102.088
-1.386
-104.584
-204.471
-297.306
-380.319
-451.318
-508.362
-551.214
-580.705
-597.423
-602.717
-598.778
-587.375
-570.864
-551.982
-532.315
-513.006
-495.067
-478.721
-464.07
-451.542
-440.706
-430.628
-420.74
-410.335
-399.064
-387.165
-374.598
-361.091
-346.897
-332.526
-318.58
-305.94
-295.071
-285.997
-278.841
-273.721
-270.562
-269.197
-269.26
-270.163
-271.515
-273.137
-274.865
-276.585
-278.163
-279.44
-280.333
-280.84
-280.935
-280.552
-279.638
-278.147
-276.088
-273.534
-270.563
-267.255
-263.682
-259.903
-255.968
-251.939
-247.874
-243.814
-239.809
-235.902
-232.146
-228.61
-225.344
-222.368
-219.687
-217.284
-215.124
-213.173
-211.391
-209.73
-208.16
-206.66
-205.19
-203.714
-202.234
-200.739
-199.209
-197.624
-195.927
-194.048
-191.995
-189.803
-187.35
-184.491
-181.315
-177.827
-174.013
-170.182
-165.537
-159.297
-152.599
-145.8
-140.982
-140.638
-142.053
-143.427
-142.069
-134.276
-123.368
-112.163
-102.596
-97.853
-95.693
-93.846
-91.825
-88.255
-83.971
-80.035
-76.271
-72.832
-69.666
-66.578
-63.722
-61.221
-59.049
-57.208
-55.718
-54.58
-53.788
-53.34
-53.213
-53.378
-53.841
-54.601
-55.644
-56.96
-58.535
-60.35
-62.391
-64.642
-67.082
-69.689
-72.441
-75.314
-78.286
-81.333
-84.431
-87.555
-90.682
-93.786
-96.843
-99.829
-102.72
-105.493
-108.125
-110.594
-112.879
-114.959
-116.816
-118.432
-119.789
-120.874
-121.673
-122.172
-122.361
-122.231
-121.773
-120.982
-119.852
-118.379
-116.563
-114.403
-111.899
-109.055
-105.874
-102.361
-98.522
-94.364
-89.896
-85.125
-80.063
-74.72
-69.108
-63.239
-57.127
-50.787
-44.234
-37.482
-30.549
-23.45
-16.204
-8.825
-1.333
6.257
13.926
21.659
29.438
37.247
45.068
52.886
60.686
68.452
76.17
83.826
91.406
98.897
106.288
113.566
120.721
127.741
134.616
141.337
147.895
154.283
160.492
166.517
172.352
177.993
183.436
188.68
193.722
198.562
203.199
207.634
211.868
215.903
219.742
223.388
226.844
230.115
233.206
236.122
238.868
241.449
243.871
246.14
248.263
250.245
252.092
253.813
255.412
256.898
258.276
259.554
260.739
261.837
262.854
263.795
264.667
265.472
266.216
266.902
267.533
268.11
268.637
269.113
269.539
269.917
270.244
270.52
270.744
270.914
271.027
271.08
271.07
270.994
270.848
270.628
270.329
269.948
269.479
268.917
268.258
267.494
266.621
265.633
264.525
263.289
261.922
260.418
258.772
256.981
255.04
252.947
250.7
248.295
245.733
243.012
240.132
237.094
233.898
230.547
227.042
223.387
219.584
215.639
211.554
207.336
202.989
198.52
193.936
189.241
184.446
179.556
174.58
169.527
164.406
159.225
153.995
148.724
143.422
138.099
132.763
127.424
122.091
116.771
111.472
106.2
100.964
95.767
90.616
85.516
80.47
75.482
70.555
65.692
60.892
56.159
51.491
46.887
42.345
37.864
33.441
29.07
24.748
20.468
16.223
12.007
7.811
3.625
-0.559
-4.752
-8.965
-13.21
-17.5
-21.85
-26.273
-30.784
-35.399
-40.132
-44.998
-50.01
-55.183
-60.524
-66.044
-71.751
-77.653
-83.759
-90.078
-96.617
-103.382
-110.376
-117.603
-125.062
-132.751
-140.659
-148.775
-157.089
-165.594
-174.29
-183.178
-192.251
-201.501
-210.913
-220.464
-230.128
-239.868
-249.627
-259.352
-268.99
-278.491
-287.818
-296.933
-305.787
-314.329
-322.491
-330.208
-337.428
-344.106
-350.203
-355.724
-360.692
-365.161
-369.225
-372.954
-376.428
-379.76
-383.05
-386.405
-389.941
-393.738
-397.943
-402.807
-408.458
-414.875
-421.906
-429.139
-436.164
-442.654
-448.086
-451.803
-453.452
-453.079
-451.173
-448.723
-446.767
-446.231
-448.104
-453.368
-461.428
-469.86
-476.178
-478.273
-476.766
-474.206
-469.678
-457.478
-428.233
-373.463
-291.384
-188.355
-75.04
39.453
147.817
243.679
319.94
367.885
382.521
365.535
324.379
267.752
200.907
125.224
39.114
-57.407
-160.799
-266.68
-370.024
-466.175
-552.123
-625.352
-683.835
-727.163
-755.894
-770.539
-772.043
-762.047
-742.644
-716.788
-687.556
-656.67
-625.284
-594.607
-565.854
-540.422
-518.956
-500.893
-485.365
-472.04
-460.739
-451.285
-443.077
-434.735
-425.476
-415.413
-404.877
-394.242
-383.748
-373.411
-363.589
-355.197
-348.792
-344.451
-342.033
-341.092
-341.251
-342.328
-343.992
-345.721
-347.085
-347.762
-347.573
-346.552
-344.743
-342.149
-338.812
-334.79
-330.157
-325.028
-319.508
-313.686
-307.65
-301.479
-295.256
-289.084
-283.081
-277.36
-272
-267.036
-262.48
-258.333
-254.593
-251.252
-248.279
-245.619
-243.219
-241.027
-239
-237.101
-235.282
-233.487
-231.654
-229.723
-227.646
-225.39
-222.926
-220.229
-217.278
-214.055
-210.553
-206.774
-202.718
-198.382
-193.763
-188.859
-183.673
-178.214
-172.49
-166.515
-160.3
-153.859
-147.208
-140.367
-133.354
-126.188
-118.891
-111.484
-103.988
-96.43
-88.836
-81.234
-73.652
-66.117
-58.657
-51.301
-44.076
-37.007
-30.119
-23.435
-16.978
-10.767
-4.822
0.84
6.205
11.257
15.987
20.385
24.444
28.159
31.529
34.552
37.232
39.573
41.58
43.264
44.634
45.704
46.487
47
47.26
47.287
47.1
46.721
46.173
45.477
44.658
43.739
42.744
41.697
40.621
39.541
38.479
37.458
36.5
35.626
34.856
34.21
33.707
33.364
33.198
33.224
33.456
33.906
34.585
35.503
36.669
38.088
39.767
41.709
43.916
46.39
49.13
52.135
55.401
58.924
62.699
66.72
70.978
75.466
80.175
85.094
90.213
95.52
101.004
106.652
112.452
118.388
124.449
130.618
136.883
143.227
149.636
156.094
162.587
169.099
175.615
182.12
188.6
195.04
201.426
207.743
213.979
220.121
226.155
232.071
237.856
243.501
248.994
254.327
259.491
264.478
269.28
273.889
278.301
282.51
286.51
290.3
293.874
297.232
300.373
303.297
306.004
308.496
310.776
312.847
314.715
316.384
317.86
319.15
320.263
321.207
321.992
322.626
323.12
323.486
323.735
323.878
323.926
323.892
323.788
323.627
323.42
323.182
322.923
322.657
322.396
322.153
321.939
321.767
321.647
321.589
321.605
321.703
321.893
322.182
322.578
323.088
323.717
324.47
325.351
326.362
327.507
328.785
330.197
331.743
333.42
335.226
337.159
339.214
341.388
343.676
346.071
348.569
351.161
353.842
356.602
359.433
362.327
365.274
368.265
371.291
374.34
377.405
380.474
383.538
386.586
389.61
392.598
395.543
398.434
401.264
404.024
406.707
409.307
411.817
414.232
416.547
418.757
420.861
422.853
424.732
426.495
428.142
429.671
431.083
432.378
433.558
434.625
435.582
436.432
437.18
437.829
438.387
438.856
439.244
439.557
439.802
439.985
440.113
440.195
440.236
440.245
440.229
440.195
440.148
440.095
440.039
439.987
439.942
439.907
439.885
439.879
439.89
439.92
439.967
440.032
440.111
440.203
440.303
440.405
440.503
440.588
440.65
440.68
440.665
440.592
440.448
440.219
439.891
439.449
438.879
438.169
437.303
436.268
435.051
433.638
432.014
430.167
428.084
425.755
423.174
420.335
417.238
413.88
410.26
406.373
402.214
397.785
393.084
388.113
382.883
377.407
371.716
365.853
359.861
353.789
347.682
341.576
335.515
329.542
323.698
318.04
312.617
307.475
302.663
298.221
294.172
290.52
287.22
284.182
281.313
278.521
275.73
272.876
269.863
266.575
262.908
258.76
254.057
248.698
242.491
235.331
227.278
218.597
209.809
201.471
194.026
187.995
184.029
182.511
183.436
186.246
189.736
192.854
194.747
194.411
191.164
184.789
176.605
170.02
167.973
172.526
183.849
199.831
222.48
256.444
307.358
382.615
481.482
596.888
717.733
827.088
912.67
967.158
989.034
984.552
959.288
917.818
861.66
788.671
699.552
596.796
485.059
371.273
260.393
156.102
61.499
-21.679
-91.98
-148.287
-190.778
-220.423
-238.358
-245.992
-244.449
-234.822
-218.675
-197.678
-173.244
-146.381
-117.994
-89.185
-61.643
-37.045
-16.249
0.509
13.322
22.289
27.578
29.782
30.287
30.761
32.055
34.352
37.679
41.84
46.627
51.997
56.358
57.896
57.124
54.229
51.385
51.361
51.742
50.98
46.845
36.247
22.872
9.75
-1.079
-6.467
-8.607
-9.701
-10.259
-11.726
-13.372
-14.243
-14.602
-14.364
-13.654
-12.75
-11.591
-10.149
-8.548
-6.877
-5.207
-3.626
-2.202
-0.98
-0.004
0.704
1.17
1.421
1.486
1.406
1.214
0.943
0.629
0.303
-0.003
-0.252
-0.409
-0.432
-0.29
0.036
0.561
1.291
2.225
3.361
4.691
6.198
7.869
9.692
11.654
13.745
15.954
18.262
20.652
23.104
25.597
28.114
30.635
33.138
35.605
38.015
40.349
42.591
44.722
46.721
48.569
50.246
51.731
53.008
54.058
54.865
55.413
55.687
55.676
55.369
54.756
53.828
52.579
51.004
49.098
46.86
44.29
41.388
38.159
34.607
30.737
26.56
22.083
17.318
12.278
6.976
1.428
-4.35
-10.341
-16.527
-22.889
-29.408
-36.063
-42.836
-49.705
-56.651
-63.653
-70.691
-77.745
-84.797
-91.827
-98.816
-105.747
-112.603
-119.366
-126.022
-132.555
-138.951
-145.198
-151.283
-157.196
-162.926
-168.467
-173.81
-178.949
-183.879
-188.598
-193.102
-197.39
-201.462
-205.319
-208.962
-212.395
-215.62
-218.642
-221.465
-224.094
-226.535
-228.794
-230.877
-232.791
-234.543
-236.139
-237.588
-238.896
-240.07
-241.119
-242.049
-242.869
-243.585
-244.204
-244.734
-245.181
-245.552
-245.853
-246.09
-246.269
-246.394
-246.471
-246.503
-246.496
-246.452
-246.375
-246.269
-246.136
-245.979
-245.802
-245.605
-245.393
-245.168
-244.931
-244.685
-244.433
-244.178
-243.92
-243.664
-243.41
-243.162
-242.922
-242.691
-242.472
-242.267
-242.077
-241.903
-241.747
-241.61
-241.494
-241.398
-241.324
-241.272
-241.243
-241.238
-241.256
-241.297
-241.362
-241.449
-241.558
-241.688
-241.837
-242.005
-242.189
-242.388
-242.6
-242.821
-243.05
-243.284
-243.518
-243.75
-243.976
-244.192
-244.395
-244.581
-244.746
-244.889
-245.004
-245.09
-245.144
-245.165
-245.148
-245.094
-245.001
-244.866
-244.691
-244.474
-244.216
-243.917
-243.578
-243.201
-242.788
-242.339
-241.859
-241.349
-240.812
-240.252
-239.672
-239.077
-238.47
-237.857
-237.242
-236.631
-236.027
-235.438
-234.867
-234.319
-233.8
-233.313
-232.863
-232.454
-232.089
-231.77
-231.502
-231.285
-231.122
-231.013
-230.959
-230.96
-231.013
-231.119
-231.275
-231.477
-231.723
-232.008
-232.329
-232.68
-233.055
-233.448
-233.854
-234.264
-234.672
-235.068
-235.446
-235.797
-236.111
-236.381
-236.597
-236.751
-236.834
-236.837
-236.753
-236.573
-236.289
-235.896
-235.385
-234.752
-233.99
-233.096
-232.066
-230.897
-229.588
-228.137
-226.544
-224.81
-222.937
-220.927
-218.785
-216.515
-214.122
-211.615
-209
-206.287
-203.485
-200.605
-197.659
-194.658
-191.617
-188.548
-185.465
-182.384
-179.321
-176.293
-173.319
-170.416
-167.604
-164.901
-162.325
-159.894
-157.625
-155.531
-153.625
-151.919
-150.425
-149.154
-148.118
-147.326
-146.785
-146.501
-146.478
-146.719
-147.223
-147.982
-148.988
-150.231
-151.706
-153.413
-155.351
-157.514
-159.893
-162.474
-165.236
-168.154
-171.194
-174.306
-177.439
-180.54
-183.561
-186.464
-189.21
-191.751
-194.037
-196.003
-197.589
-198.75
-199.447
-199.648
-199.354
-198.585
-197.394
-195.874
-194.104
-192.17
-190.175
-188.228
-186.452
-184.965
-183.852
-183.237
-183.309
-184.194
-185.926
-188.36
-191.135
-193.897
-196.37
-198.148
-198.733
-197.713
-194.905
-190.711
-185.996
-181.454
-177.678
-175.353
-175.15
-177.644
-181.872
-184.614
-182.626
-174.11
-160.747
-146.669
-132.54
-113.37
-78.743
-18.324
70.487
180.223
295.341
400.586
486.172
548.852
591.189
615.105
620.285
605.794
569.987
513.262
438.818
350.662
253.152
150.872
47.819
-52.507
-146.673
-232.013
-306.636
-368.987
-418.154
-454.103
-477.248
-488.389
-488.658
-478.894
-460.325
-434.834
-404.298
-370.517
-335.151
-299.515
-265.109
-233.908
-207.136
-185.111
-167.8
-154.713
-145.243
-138.938
-134.784
-131.144
-127.009
-122.003
-116.044
-109.496
-102.702
-95.829
-89.452
-84.537
-81.616
-80.818
-82.017
-84.746
-88.616
-93.369
-98.556
-103.561
-107.916
-111.325
-113.654
-114.969
-115.319
-114.701
-113.161
-110.789
-107.691
-103.993
-99.807
-95.204
-90.259
-85.067
-79.741
-74.427
-69.267
-64.352
-59.737
-55.45
-51.504
-47.909
-44.667
-41.752
-39.117
-36.716
-34.505
-32.448
-30.513
-28.657
-26.827
-24.964
-23.006
-20.909
-18.645
-16.192
-13.532
-10.651
-7.54
-4.202
-0.649
3.112
7.075
11.238
15.597
20.142
24.861
29.739
34.763
39.916
45.184
50.551
55.997
61.505
67.058
72.636
78.22
83.789
89.318
94.783
100.16
105.422
110.544
115.5
120.263
124.811
129.122
133.172
136.937
140.395
143.524
146.313
148.753
150.832
152.541
153.874
154.824
155.396
155.592
155.405
154.83
153.864
152.5
150.751
148.632
146.154
143.336
140.182
136.693
132.889
128.789
124.401
119.74
114.81
109.614
104.194
98.594
92.85
87.006
81.083
75.098
69.081
63.058
57.061
51.125
45.269
39.508
33.881
28.418
23.16
18.152
13.382
8.837
4.518
0.412
-3.471
-7.118
-10.539
-13.739
-16.719
-19.485
-22.032
-24.354
-26.474
-28.407
-30.177
-31.813
-33.301
-34.63
-35.8
-36.806
-37.656
-38.359
-38.912
-39.311
-39.569
-39.695
-39.702
-39.606
-39.405
-39.098
-38.686
-38.168
-37.559
-36.876
-36.126
-35.319
-34.466
-33.57
-32.646
-31.703
-30.744
-29.768
-28.777
-27.772
-26.757
-25.738
-24.716
-23.695
-22.675
-21.654
-20.634
-19.615
-18.597
-17.579
-16.56
-15.537
-14.513
-13.487
-12.462
-11.437
-10.412
-9.387
-8.362
-7.338
-6.313
-5.289
-4.263
-3.237
-2.209
-1.181
-0.152
0.876
1.905
2.933
3.96
4.985
6.008
7.026
8.041
9.049
10.051
11.045
12.028
13.001
13.961
14.908
15.839
16.755
17.653
18.533
19.393
20.233
21.051
21.847
22.619
23.367
24.09
24.786
25.455
26.097
26.71
27.295
27.85
28.376
28.871
29.337
29.772
30.178
30.553
30.899
31.215
31.503
31.763
31.996
32.201
32.381
32.536
32.666
32.772
32.856
32.918
32.958
32.979
32.981
32.966
32.935
32.889
32.829
32.758
32.676
32.584
32.485
32.38
32.27
32.158
32.044
31.931
31.82
31.712
31.61
31.514
31.428
31.352
31.288
31.24
31.208
31.197
31.208
31.244
31.308
31.404
31.534
31.701
31.909
32.16
32.458
32.805
33.204
33.658
34.17
34.743
35.379
36.081
36.85
37.689
38.598
39.579
40.634
41.764
42.969
44.25
45.608
47.042
48.552
50.137
51.796
53.525
55.321
57.181
59.1
61.073
63.095
65.159
67.26
69.389
71.539
73.7
75.865
78.023
80.162
82.271
84.337
86.346
88.288
90.149
91.914
93.569
95.096
96.483
97.718
98.789
99.684
100.393
100.902
101.202
101.291
101.164
100.817
100.245
99.439
98.4
97.139
95.668
94.001
92.146
90.101
87.868
85.46
82.886
80.161
77.299
74.304
71.199
68.022
64.819
61.652
58.563
55.574
52.699
49.937
47.32
44.916
42.795
41.029
39.661
38.683
38.122
38.042
38.413
39.147
40.018
40.619
40.731
40.347
39.472
38.204
36.627
34.69
32.734
31.537
31.593
33.178
36.287
40.427
45.34
51.14
57.374
63.052
67.201
68.669
66.933
62.325
54.943
44.725
32.124
18.157
4.643
-5.633
-10.231
-7.183
5.581
29.897
67.578
119.813
186.12
264.413
351.67
444.038
537.375
627.329
708.392
775.215
823.658
850.592
854.775
836.485
796.208
735.519
657.917
567.454
468.751
366.961
265.855
168.644
79.135
0.1
-66.647
-119.595
-158.821
-185.499
-200.322
-204.541
-200.227
-188.963
-172.869
-154.507
-135.302
-116.244
-98.324
-81.82
-66.921
-54.163
-43.163
-32.976
-23.024
-12.607
-1.397
10.34
22.645
35.796
49.526
63.268
76.342
87.81
97.209
104.56
109.784
112.782
113.617
112.446
109.657
105.889
101.601
97.032
92.386
87.826
83.558
79.832
76.821
74.567
73.074
72.347
72.388
73.217
74.816
77.104
79.975
83.312
87.01
90.99
95.187
99.513
103.863
108.128
112.201
116.015
119.539
122.752
125.642
128.207
130.456
132.423
134.16
135.712
137.119
138.414
139.623
140.784
141.939
143.136
144.421
145.831
147.386
149.108
151.012
153.108
155.401
157.887
160.554
163.395
166.403
169.572
172.898
176.37
179.975
183.698
187.524
191.434
195.414
199.443
203.503
207.575
211.638
215.675
219.667
223.593
227.433
231.163
234.762
238.205
241.472
244.541
247.39
249.998
252.348
254.421
256.202
257.676
258.829
259.651
260.131
260.261
260.033
259.444
258.491
257.174
255.493
253.453
251.058
248.315
245.234
241.824
238.097
234.067
229.747
225.154
220.305
215.217
209.909
204.401
198.713
192.866
186.881
180.778
174.58
168.307
161.98
155.62
149.246
142.877
136.533
130.232
123.991
117.826
111.753
105.785
99.937
94.219
88.642
83.216
77.948
72.846
67.915
63.161
58.587
54.196
49.99
45.971
42.138
38.491
35.028
31.747
28.645
25.718
22.964
20.377
17.953
15.687
13.573
11.607
9.782
8.092
6.532
5.096
3.777
2.571
1.471
0.473
-0.429
-1.237
-1.957
-2.591
-3.145
-3.619
-4.019
-4.346
-4.603
-4.793
-4.92
-4.984
-4.989
-4.937
-4.831
-4.673
-4.466
-4.213
-3.915
-3.577
-3.2
-2.788
-2.344
-1.871
-1.371
-0.848
-0.305
0.256
0.831
1.416
2.009
2.604
3.198
3.787
4.365
4.929
5.473
5.993
6.484
6.942
7.362
7.74
8.072
8.354
8.583
8.757
8.872
8.926
8.917
8.845
8.707
8.504
8.235
7.9
7.499
7.033
6.503
5.91
5.254
4.538
3.763
2.931
2.044
1.105
0.118
-0.915
-1.99
-3.103
-4.25
-5.427
-6.631
-7.857
-9.101
-10.36
-11.629
-12.906
-14.187
-15.469
-16.749
-18.026
-19.297
-20.562
-21.819
-23.067
-24.306
-25.536
-26.757
-27.97
-29.176
-30.375
-31.568
-32.756
-33.941
-35.124
-36.307
-37.491
-38.679
-39.873
-41.075
-42.287
-43.513
-44.753
-46.011
-47.287
-48.585
-49.905
-51.249
-52.618
-54.013
-55.433
-56.879
-58.351
-59.848
-61.367
-62.907
-64.464
-66.037
-67.62
-69.211
-70.803
-72.394
-73.977
-75.548
-77.101
-78.63
-80.131
-81.596
-83.019
-84.394
-85.715
-86.975
-88.167
-89.285
-90.323
-91.275
-92.136
-92.902
-93.566
-94.126
-94.576
-94.914
-95.136
-95.241
-95.225
-95.089
-94.832
-94.454
-93.959
-93.348
-92.625
-91.794
-90.86
-89.829
-88.707
-87.502
-86.221
-84.873
-83.467
-82.012
-80.52
-79.002
-77.472
-75.943
-74.431
-72.951
-71.518
-70.149
-68.858
-67.663
-66.576
-65.609
-64.775
-64.084
-63.547
-63.179
-62.989
-62.988
-63.183
-63.581
-64.188
-65.007
-66.039
-67.276
-68.712
-70.343
-72.168
-74.197
-76.435
-78.88
-81.529
-84.374
-87.401
-90.591
-93.918
-97.335
-100.798
-104.26
-107.68
-111.03
-114.274
-117.369
-120.261
-122.879
-125.16
-127.055
-128.527
-129.555
-130.137
-130.286
-130.048
-129.493
-128.712
-127.82
-126.926
-126.128
-125.535
-125.244
-125.415
-126.299
-128.065
-130.759
-134.292
-138.399
-142.81
-147.297
-151.453
-154.685
-156.561
-156.926
-156.055
-154.666
-153.474
-153.222
-154.766
-158.937
-165.511
-172.83
-178.827
-181.848
-182.988
-184.882
-187.434
-185.98
-170.243
-129.492
-59.585
34.805
141.437
247.356
344.211
429.139
502.91
565.038
613.022
643.266
651.817
637.289
600.158
541.612
464.587
372.68
269.602
160.001
48.503
-61.047
-164.747
-258.901
-340.755
-408.168
-459.848
-495.957
-517.334
-524.788
-519.558
-503.433
-478.577
-447.634
-413.162
-376.927
-340.38
-305.244
-273.398
-246.339
-224.737
-208.342
-196.476
-188.667
-184.397
-182.724
-182.138
-181.036
-178.532
-174.484
-169.164
-162.864
-155.84
-148.495
-141.646
-136.32
-133.071
-131.964
-132.752
-135.025
-138.46
-142.778
-147.52
-152.082
-156.014
-159.066
-161.163
-162.39
-162.803
-162.417
-161.283
-159.495
-157.166
-154.414
-151.342
-148.013
-144.489
-140.85
-137.194
-133.647
-130.336
-127.343
-124.715
-122.473
-120.623
-119.173
-118.123
-117.446
-117.095
-117.025
-117.189
-117.552
-118.085
-118.75
-119.498
-120.274
-121.02
-121.693
-122.269
-122.727
-123.05
-123.224
-123.238
-123.09
-122.794
-122.361
-121.787
-121.069
-120.203
-119.189
-118.048
-116.809
-115.475
-114.05
-112.578
-111.102
-109.659
-108.297
-107.013
-105.779
-104.641
-103.667
-102.758
-101.793
-100.883
-100.045
-99.274
-98.905
-98.122
-96.131
-94.116
-92.449
-93.287
-99.208
-107.388
-115.946
-122.073
-121.908
-118.878
-115.884
-114.914
-119.25
-126.538
-134.391
-142.272
-148.717
-154.556
-160.855
-167.391
-174.281
-181.433
-188.604
-195.913
-203.45
-211.15
-218.976
-226.914
-234.931
-242.99
-251.056
-259.078
-267.003
-274.811
-282.484
-289.992
-297.308
-304.406
-311.262
-317.853
-324.164
-330.171
-335.855
-341.199
-346.188
-350.809
-355.051
-358.906
-362.364
-365.422
-368.075
-370.322
-372.164
-373.601
-374.639
-375.283
-375.54
-375.419
-374.931
-374.088
-372.903
-371.391
-369.566
-367.446
-365.047
-362.386
-359.482
-356.353
-353.017
-349.493
-345.801
-341.96
-337.988
-333.904
-329.728
-325.476
-321.168
-316.819
-312.448
-308.069
-303.699
-299.351
-295.041
-290.781
-286.585
-282.463
-278.426
-274.484
-270.648
-266.923
-263.319
-259.841
-256.494
-253.284
-250.215
-247.29
-244.512
-241.881
-239.4
-237.069
-234.888
-232.855
-230.971
-229.232
-227.637
-226.182
-224.865
-223.682
-222.63
-221.703
-220.898
-220.21
-219.635
-219.166
-218.798
-218.527
-218.346
-218.25
-218.232
-218.287
-218.409
-218.591
-218.827
-219.11
-219.435
-219.794
-220.183
-220.595
-221.024
-221.466
-221.916
-222.37
-222.823
-223.272
-223.712
-224.141
-224.556
-224.954
-225.332
-225.69
-226.024
-226.336
-226.623
-226.886
-227.126
-227.342
-227.535
-227.707
-227.86
-227.996
-228.117
-228.227
-228.331
-228.434
-228.542
-228.66
-228.797
-228.96
-229.158
-229.397
-229.683
-230.024
-230.424
-230.889
-231.424
-232.033
-232.72
-233.492
-234.355
-235.316
-236.384
-237.563
-238.859
-240.275
-241.813
-243.474
-245.26
-247.165
-249.187
-251.325
-253.577
-255.949
-258.443
-261.046
-263.746
-266.523
-269.345
-272.189
-275.024
-277.814
-280.529
-283.147
-285.656
-288.057
-290.355
-292.541
-294.598
-296.497
-298.205
-299.713
-301.012
-302.096
-302.978
-303.662
-304.162
-304.514
-304.734
-304.807
-304.703
-304.351
-303.664
-302.587
-301.075
-299.096
-296.631
-293.641
-290.087
-285.944
-281.169
-275.72
-269.546
-262.567
-254.726
-246.017
-236.46
-226.126
-215.116
-203.503
-191.35
-178.721
-165.663
-152.238
-138.506
-124.508
-110.296
-95.937
-81.507
-67.115
-52.857
-38.789
-24.948
-11.338
2.062
15.252
28.226
40.981
53.502
65.769
77.762
89.442
100.769
111.718
122.274
132.44
142.219
151.6
160.563
169.077
177.104
184.612
191.576
197.966
203.764
208.961
213.552
217.547
220.969
223.834
226.158
227.954
229.226
229.987
230.253
230.046
229.395
228.333
226.904
225.162
223.172
220.999
218.708
216.357
213.993
211.669
209.437
207.355
205.495
203.926
202.712
201.91
201.569
201.713
202.338
203.408
204.846
206.578
208.541
210.66
212.855
215.031
217.068
218.843
220.254
221.153
221.339
220.703
219.242
217.143
214.844
212.812
211.458
211.265
212.76
216.263
221.831
229.001
236.719
243.943
249.87
253.848
255.427
254.532
251.648
248.316
247.106
250.879
262.377
283.905
317.433
364.551
425.899
500.657
586.499
679.788
776.186
871.37
960.537
1038.522
1100.691
1143.035
1162.686
1158.632
1130.96
1080.373
1009.041
920.305
818.15
707.758
594.559
483.071
377.576
281.988
199.163
131.34
79.892
44.311
23.095
14.653
17.038
28.385
46.967
70.623
97.212
125.591
155.212
185.613
216.216
245.943
273.603
298.489
320.447
339.272
354.575
366.065
373.878
378.82
382.095
384.857
387.65
390.664
394.111
398.123
402.65
407.332
411.469
414.252
415.312
414.671
412.475
408.984
404.449
399.157
393.564
388.216
383.495
379.603
376.608
374.462
373.128
372.585
372.766
373.563
374.873
376.595
378.646
380.972
383.513
386.186
388.9
391.556
394.052
396.3
398.243
399.851
401.105
402.008
402.57
402.807
402.754
402.454
401.946
401.265
400.444
399.511
398.505
397.472
396.457
395.507
394.655
393.924
393.332
392.891
392.607
392.483
392.513
392.687
392.998
393.438
394.001
394.685
395.48
396.373
397.353
398.404
399.51
400.657
401.83
403.009
404.18
405.323
406.422
407.46
408.42
409.28
410.021
410.621
411.059
411.315
411.369
411.201
410.791
410.123
409.181
407.951
406.421
404.578
402.414
399.921
397.092
393.922
390.41
386.553
382.353
377.811
372.933
367.724
362.193
356.349
350.203
343.771
337.066
330.106
322.91
315.496
307.886
300.103
292.168
284.107
275.943
267.703
259.411
251.093
242.776
234.484
226.243
218.077
210.011
202.066
194.265
186.629
179.179
171.932
164.907
158.121
151.587
145.32
139.333
133.634
128.233
123.138
118.352
113.879
109.72
105.876
102.344
99.121
96.201
93.576
91.24
89.181
87.39
85.853
84.557
83.489
82.632
81.972
81.491
81.174
81.003
80.961
81.033
81.2
81.447
81.757
82.114
82.502
82.907
83.314
83.709
84.08
84.415
84.702
84.933
85.099
85.192
85.207
85.139
84.983
84.737
84.399
83.968
83.446
82.833
82.133
81.348
80.483
79.542
78.531
77.457
76.324
75.141
73.913
72.648
71.353
70.034
68.7
67.357
66.011
64.671
63.343
62.033
60.747
59.491
58.269
57.085
55.943
54.846
53.796
52.794
51.841
50.937
50.082
49.273
48.51
47.788
47.105
46.457
45.84
45.247
44.675
44.117
43.569
43.023
42.476
41.92
41.351
40.762
40.149
39.505
38.825
38.104
37.335
36.515
35.638
34.701
33.698
32.627
31.484
30.268
28.976
27.607
26.16
24.635
23.033
21.354
19.6
17.774
15.879
13.919
11.898
9.819
7.689
5.512
3.293
1.038
-1.248
-3.56
-5.893
-8.241
-10.6
-12.965
-15.33
-17.691
-20.041
-22.377
-24.693
-26.985
-29.249
-31.479
-33.673
-35.826
-37.936
-39.999
-42.014
-43.978
-45.889
-47.748
-49.553
-51.304
-53.003
-54.65
-56.248
-57.799
-59.305
-60.768
-62.192
-63.58
-64.933
-66.254
-67.545
-68.809
-70.047
-71.261
-72.453
-73.624
-74.776
-75.911
-77.029
-78.132
-79.221
-80.296
-81.359
-82.41
-83.448
-84.474
-85.487
-86.485
-87.469
-88.436
-89.386
-90.315
-91.221
-92.102
-92.953
-93.772
-94.554
-95.297
-95.995
-96.647
-97.248
-97.797
-98.292
-98.732
-99.115
-99.442
-99.713
-99.928
-100.09
-100.2
-100.261
-100.275
-100.248
-100.184
-100.089
-99.967
-99.827
-99.676
-99.525
-99.383
-99.261
-99.172
-99.128
-99.141
-99.225
-99.392
-99.655
-100.022
-100.507
-101.119
-101.87
-102.774
-103.839
-105.077
-106.495
-108.101
-109.899
-111.892
-114.075
-116.443
-118.989
-121.713
-124.62
-127.713
-130.99
-134.445
-138.072
-141.854
-145.769
-149.788
-153.859
-157.937
-161.975
-165.931
-169.779
-173.484
-177.006
-180.302
-183.31
-185.973
-188.248
-190.091
-191.468
-192.378
-192.841
-192.913
-192.692
-192.251
-191.671
-191.044
-190.448
-189.975
-189.721
-189.767
-190.246
-191.365
-193.262
-195.963
-199.367
-203.172
-207.009
-210.49
-213.067
-214.094
-213.096
-209.994
-205.154
-199.279
-193.391
-188.656
-186.2
-187.265
-191.651
-197.152
-201.512
-203.101
-202.925
-203.948
-205.575
-201.516
-180.01
-129.33
-45.913
63.554
183.779
299.113
400
482.356
546.863
593.919
621.181
626.187
607.095
563.867
498.904
416.455
321.285
218.162
112.222
7.67
-92.079
-183.483
-263.975
-332.341
-387.712
-429.971
-460.21
-479.437
-488.689
-489.668
-483.751
-471.858
-455.315
-435.412
-412.745
-387.944
-362.096
-336.067
-310.757
-287.556
-266.174
-245.877
-227.958
-212.74
-201.864
-197.119
-194.922
-192.581
-186.883
-174.066
-157.706
-140.936
-126.263
-117.641
-113.24
-111.109
-110.865
-110.857
-111.667
-114.047
-117.341
-121.206
-125.176
-128.695
-131.673
-134.112
-135.865
-136.869
-137.154
-136.751
-135.707
-134.074
-131.887
-129.187
-126.076
-122.662
-119.031
-115.263
-111.427
-107.6
-103.866
-100.305
-97
-93.992
-91.308
-88.961
-86.944
-85.238
-83.819
-82.645
-81.663
-80.827
-80.087
-79.399
-78.729
-78.035
-77.269
-76.385
-75.33
-74.063
-72.555
-70.785
-68.735
-66.392
-63.744
-60.782
-57.508
-53.931
-50.059
-45.904
-41.476
-36.793
-31.887
-26.803
-21.585
-16.268
-10.874
-5.414
0.097
5.642
11.202
16.756
22.301
27.839
33.365
38.867
44.334
49.77
55.2
60.677
66.242
71.907
77.651
83.431
89.201
94.916
100.527
105.973
111.161
116.002
120.432
124.412
127.905
130.852
133.153
134.669
135.288
134.946
133.625
131.339
128.109
123.961
118.939
113.119
106.62
99.546
91.964
83.906
75.393
66.489
57.318
48.05
38.83
29.754
20.888
12.273
3.956
-4.02
-11.634
-18.9
-25.869
-32.563
-38.967
-45.025
-50.668
-55.876
-60.688
-65.182
-69.418
-73.426
-77.219
-80.806
-84.213
-87.462
-90.556
-93.468
-96.16
-98.616
-100.853
-102.92
-104.872
-106.735
-108.493
-110.112
-111.567
-112.853
-113.967
-114.907
-115.656
-116.204
-116.559
-116.749
-116.803
-116.737
-116.554
-116.24
-115.783
-115.186
-114.466
-113.648
-112.751
-111.79
-110.778
-109.733
-108.675
-107.622
-106.579
-105.543
-104.509
-103.48
-102.461
-101.46
-100.483
-99.531
-98.605
-97.704
-96.828
-95.978
-95.153
-94.35
-93.565
-92.799
-92.05
-91.324
-90.622
-89.946
-89.296
-88.672
-88.075
-87.506
-86.965
-86.449
-85.957
-85.49
-85.045
-84.623
-84.224
-83.848
-83.493
-83.161
-82.85
-82.561
-82.293
-82.047
-81.821
-81.615
-81.429
-81.262
-81.112
-80.977
-80.855
-80.745
-80.643
-80.546
-80.451
-80.354
-80.251
-80.139
-80.014
-79.872
-79.711
-79.526
-79.315
-79.075
-78.804
-78.5
-78.161
-77.784
-77.369
-76.913
-76.414
-75.873
-75.288
-74.658
-73.982
-73.262
-72.498
-71.689
-70.837
-69.945
-69.013
-68.044
-67.042
-66.011
-64.954
-63.876
-62.783
-61.678
-60.569
-59.46
-58.356
-57.262
-56.183
-55.125
-54.09
-53.084
-52.111
-51.173
-50.275
-49.418
-48.606
-47.84
-47.121
-46.451
-45.829
-45.258
-44.735
-44.26
-43.832
-43.45
-43.111
-42.813
-42.552
-42.325
-42.127
-41.953
-41.797
-41.654
-41.517
-41.379
-41.236
-41.079
-40.902
-40.7
-40.466
-40.194
-39.878
-39.512
-39.091
-38.609
-38.061
-37.443
-36.753
-35.985
-35.139
-34.211
-33.201
-32.107
-30.928
-29.664
-28.316
-26.884
-25.37
-23.776
-22.106
-20.362
-18.551
-16.676
-14.743
-12.761
-10.734
-8.671
-6.578
-4.465
-2.34
-0.21
1.913
4.022
6.105
8.149
10.142
12.072
13.926
15.69
17.351
18.897
20.316
21.598
22.734
23.717
24.538
25.188
25.657
25.937
26.023
25.907
25.587
25.06
24.327
23.394
22.268
20.955
19.458
17.773
15.895
13.823
11.561
9.115
6.499
3.733
0.842
-2.131
-5.143
-8.153
-11.119
-14.012
-16.803
-19.456
-21.924
-24.148
-26.066
-27.628
-28.792
-29.528
-29.837
-29.734
-29.264
-28.509
-27.539
-26.434
-25.29
-24.196
-23.254
-22.578
-22.271
-22.484
-23.442
-25.29
-28.035
-31.513
-35.36
-39.158
-42.53
-45.01
-46.04
-45.238
-42.604
-38.709
-34.536
-31.119
-29.504
-30.437
-34.427
-41.87
-51.268
-60.048
-66.612
-68.079
-63.559
-53.115
-31.595
4.525
58.538
133.325
222.6
319.245
416.473
506.183
585.776
652.757
703.573
736.482
748.665
738.779
707.814
657.08
589.296
508.075
416.819
319.508
220.378
122.946
30.487
-54.163
-129.114
-192.935
-244.478
-283.469
-310.592
-326.832
-333.528
-331.953
-322.938
-307.542
-287.308
-263.738
-237.766
-210.079
-181.336
-152.47
-125.056
-100.555
-79.57
-62.187
-48.582
-38.877
-32.978
-30.427
-29.944
-30.031
-29.909
-29.299
-28.027
-26.065
-23.422
-20.251
-17.255
-15.31
-14.81
-15.797
-18.108
-21.423
-25.499
-30.084
-34.688
-38.773
-42.006
-44.23
-45.453
-45.784
-45.274
-43.963
-41.948
-39.359
-36.328
-32.974
-29.373
-25.587
-21.696
-17.813
-14.073
-10.581
-7.4
-4.564
-2.081
0.048
1.818
3.247
4.372
5.235
5.879
6.342
6.652
6.848
6.976
7.087
7.24
7.482
7.843
8.349
9.014
9.853
10.878
12.09
13.482
15.049
16.788
18.697
20.78
23.028
25.43
27.974
30.644
33.431
36.327
39.313
42.37
45.489
48.658
51.871
55.126
58.387
61.607
64.775
67.87
70.848
73.675
76.299
78.65
80.767
82.701
84.426
85.903
87.222
88.475
89.582
90.59
91.388
91.481
91.857
93.382
94.767
95.959
93.769
84.579
72.678
60.48
53.285
57.967
67.865
77.877
82.91
75.369
61.404
46.653
33.799
27.883
25.547
23.139
20.347
15.515
9.633
4.099
-1.437
-6.931
-12.398
-18.038
-23.697
-29.229
-34.649
-39.944
-45.061
-49.962
-54.653
-59.137
-63.422
-67.524
-71.426
-75.108
-78.571
-81.816
-84.838
-87.636
-90.209
-92.554
-94.676
-96.58
-98.271
-99.757
-101.042
-102.136
-103.046
-103.782
-104.353
-104.77
-105.043
-105.184
-105.202
-105.11
-104.917
-104.636
-104.276
-103.848
-103.363
-102.83
-102.258
-101.656
-101.032
-100.395
-99.751
-99.108
-98.47
-97.843
-97.233
-96.643
-96.078
-95.539
-95.03
-94.553
-94.107
-93.696
-93.318
-92.973
-92.662
-92.382
-92.133
-91.914
-91.722
-91.556
-91.413
-91.29
-91.186
-91.098
-91.022
-90.956
-90.896
-90.841
-90.787
-90.732
-90.672
-90.605
-90.529
-90.442
-90.341
-90.224
-90.089
-89.934
-89.758
-89.559
-89.335
-89.086
-88.81
-88.505
-88.171
-87.806
-87.41
-86.982
-86.519
-86.022
-85.488
-84.918
-84.308
-83.659
-82.969
-82.237
-81.462
-80.643
-79.779
-78.869
-77.912
-76.907
-75.853
-74.749
-73.593
-72.386
-71.126
-69.812
-68.442
-67.018
-65.536
-63.997
-62.4
-60.744
-59.029
-57.253
-55.416
-53.518
-51.559
-49.539
-47.458
-45.316
-43.116
-40.856
-38.539
-36.166
-33.739
-31.258
-28.726
-26.145
-23.516
-20.842
-18.124
-15.365
-12.567
-9.733
-6.865
-3.965
-1.036
1.92
4.899
7.9
10.92
13.956
17.005
20.066
23.134
26.208
29.284
32.361
35.435
38.505
41.568
44.622
47.665
50.695
53.712
56.714
59.701
62.671
65.625
68.561
71.48
74.381
77.265
80.131
82.979
85.81
88.622
91.418
94.195
96.956
99.7
102.428
105.14
107.835
110.515
113.179
115.827
118.459
121.076
123.677
126.263
128.834
131.388
133.927
136.449
138.954
141.439
143.902
146.341
148.753
151.134
153.481
155.792
158.06
160.284
162.458
164.576
166.634
168.627
170.547
172.388
174.14
175.796
177.347
178.786
180.101
181.283
182.32
183.199
183.911
184.449
184.804
184.969
184.937
184.702
184.263
183.62
182.774
181.723
180.465
178.997
177.33
175.48
173.462
171.297
168.992
166.548
163.972
161.275
158.466
155.553
152.537
149.422
146.229
143
139.791
136.652
133.616
130.694
127.884
125.195
122.675
120.391
118.412
116.805
115.587
114.795
114.511
114.733
115.379
116.264
117.01
117.273
116.953
115.992
114.408
112.45
110.252
108.088
106.683
106.692
108.469
112.183
117.506
123.697
130.388
137.113
142.861
146.585
147.088
143.514
136.043
125.274
111.415
94.807
76.235
58.089
44.76
39.744
44.528
56.973
73.091
91.961
116.71
156.249
219.712
311.624
430.822
564.994
698.444
815.212
899.243
946.303
958.306
940.853
905.765
858.232
798.913
728.117
642.881
544.012
436.479
325.273
215.915
113.375
21.321
-57.462
-120.856
-167.549
-198.665
-215.779
-218.891
-210.074
-190.412
-160.796
-127.528
-95.119
-67.619
-49.748
-39.168
-33.107
-28.938
-22.25
-13.349
-2.949
8.996
21.37
35.301
51.749
70.129
89.841
109.479
127.554
143.56
157.248
168.33
176.752
182.542
185.846
187.154
187.073
186.007
184.242
181.964
179.261
176.266
173.157
170.069
167.089
164.303
161.792
159.664
158.065
157.082
156.733
156.982
157.747
158.951
160.53
162.44
164.63
167.044
169.615
172.269
174.955
177.619
180.205
182.638
184.826
186.704
188.244
189.45
190.342
190.943
191.268
191.34
191.191
190.854
190.36
189.733
188.99
188.153
187.255
186.333
185.434
184.593
183.829
183.154
182.574
182.092
181.71
181.422
181.213
181.07
180.984
180.949
180.96
181.008
181.08
181.162
181.237
181.29
181.306
181.27
181.165
180.976
180.688
180.289
179.765
179.104
178.291
177.312
176.15
174.791
173.22
171.424
169.387
167.096
164.54
161.707
158.59
155.18
151.47
147.454
143.13
138.495
133.547
128.287
122.716
116.837
110.655
104.176
97.407
90.357
83.035
75.453
67.623
59.559
51.274
42.782
34.099
25.242
16.226
7.068
-2.213
-11.6
-21.075
-30.619
-40.214
-49.841
-59.482
-69.119
-78.735
-88.312
-97.836
-107.289
-116.658
-125.929
-135.087
-144.122
-153.02
-161.773
-170.37
-178.804
-187.066
-195.151
-203.054
-210.769
-218.294
-225.627
-232.765
-239.709
-246.457
-253.011
-259.372
-265.543
-271.526
-277.324
-282.942
-288.383
-293.653
-298.756
-303.698
-308.485
-313.122
-317.614
-321.968
-326.19
-330.284
-334.257
-338.113
-341.858
-345.497
-349.035
-352.477
-355.827
-359.089
-362.267
-365.366
-368.389
-371.339
-374.22
-377.035
-379.787
-382.479
-385.113
-387.692
-390.22
-392.697
-395.128
-397.514
-399.857
-402.161
-404.426
-406.655
-408.851
-411.016
-413.15
-415.258
-417.342
-419.403
-421.444
-423.466
-425.473
-427.466
-429.447
-431.418
-433.376
-435.324
-437.267
-439.207
-441.146
-443.085
-445.018
-446.946
-448.879
-450.81
-452.721
-454.594
-456.411
-458.167
-459.888
-461.575
-463.195
-464.763
-466.34
-467.969
-469.702
-471.543
-473.402
-475.247
-477.16
-479.05
-480.595
-481.708
-482.484
-482.875
-483.201
-482.873
-479.901
-474.622
-468.885
-465.607
-470.407
-483.17
-498.191
-509.866
-510.227
-498.449
-482.133
-467.174
-459.843
-461.49
-466.456
-471.186
-473.352
-472.141
-469.857
-467.613
-465.323
-463.083
-460.561
-457.664
-454.713
-451.819
-448.94
-446.092
-443.303
-440.573
-437.899
-435.266
-432.633
-429.992
-427.382
-424.821
-422.317
-419.881
-417.523
-415.251
-413.083
-411.028
-409.091
-407.278
-405.594
-404.043
-402.631
-401.362
-400.237
-399.26
-398.431
-397.748
-397.211
-396.82
-396.573
-396.468
-396.502
-396.668
-396.958
-397.368
-397.895
-398.521
-399.231
-400.007
-400.831
-401.697
-402.609
-403.542
-404.468
-405.403
-406.358
-407.334
-408.345
-409.354
-410.3
-411.193
-412.067
-412.787
-413.195
-413.365
-413.276
-412.891
-412.508
-411.282
-408.388
-404.982
-401.406
-399.788
-402.678
-407.243
-411.594
-412.92
-407.365
-398.34
-388.74
-380.549
-377.043
-375.888
-374.716
-373.01
-369.338
-364.546
-359.722
-354.684
-349.593
-344.4
-338.915
-333.294
-327.655
-321.996
-316.344
-310.699
-305.058
-299.413
-293.755
-288.107
-282.518
-276.99
-271.506
-266.214
-261.283
-256.642
-252.312
-248.334
-244.394
-241.371
-240.121
-239.434
-238.943
-236.415
-229.172
-220.167
-211.368
-205.707
-207.206
-212.27
-217.842
-221.805
-220.694
-216.935
-212.981
-209.36
-207.547
-206.606
-205.361
-203.979
-202.286
-200.361
-198.402
-196.202
-193.613
-190.645
-187.32
-183.721
-179.882
-175.753
-171.398
-166.939
-162.596
-158.761
-155.623
-153.12
-151.263
-150.076
-149.425
-149.137
-148.697
-147.052
-143.347
-137.292
-128.816
-117.844
-105.438
-92.651
-79.604
-68.083
-57.593
-46.77
-39.027
-36.082
-40.545
-54.888
-72.197
-85.503
-89.525
-80.703
-63.336
-40.328
-9.624
35.429
104.488
203.199
329.67
471.538
611.579
732.294
819.699
870.736
890.063
886.469
869.099
841.382
801.601
746.3
674.367
588.239
492.832
394.235
296.481
202.027
113.67
33.743
-35.641
-92.417
-135.698
-165.657
-182.483
-186.556
-178.885
-160.913
-134.595
-102.399
-66.6
-28.85
9.364
46.312
80.178
109.47
133.249
151.492
164.759
173.412
177.806
178.815
177.81
176.34
175.843
176.979
179.708
184.002
189.814
196.836
204.535
212.106
218.637
223.717
227.434
229.978
231.618
232.639
233.267
233.864
234.898
236.615
239.07
242.224
245.934
250.094
254.664
259.552
264.631
269.803
274.96
280.014
284.916
289.588
293.96
297.978
301.582
304.743
307.457
309.728
311.574
313.023
314.094
314.814
315.22
315.347
315.236
314.935
314.489
313.951
313.368
312.781
312.228
311.742
311.346
311.059
310.896
310.861
310.967
311.23
311.647
312.22
312.949
313.827
314.86
316.059
317.404
318.878
320.503
322.289
324.246
326.389
328.685
331.078
333.58
336.22
338.865
341.359
343.767
346.061
348.198
350.454
352.012
352.077
351.741
351.326
352.856
358.756
366.311
373.708
378.256
376.26
370.972
365.147
360.673
360.675
362.916
365.131
366.818
366.6
365.284
363.909
362.285
360.555
358.66
356.402
353.931
351.37
348.696
345.916
343.058
340.132
337.147
334.113
331.026
327.875
324.685
321.479
318.268
315.064
311.881
308.727
305.617
302.564
299.575
296.659
293.822
291.072
288.412
285.85
283.389
281.03
278.778
276.632
274.593
272.662
270.836
269.116
267.498
265.98
264.56
263.235
262
260.853
259.79
258.807
257.899
257.061
256.29
255.58
254.927
254.324
253.766
253.249
252.767
252.314
251.886
251.478
251.085
250.702
250.325
249.95
249.573
249.19
248.798
248.393
247.973
247.534
247.074
246.59
246.079
245.539
244.966
244.358
243.711
243.024
242.293
241.516
240.69
239.813
238.883
237.898
236.856
235.757
234.599
233.382
232.106
230.771
229.377
227.926
226.418
224.854
223.236
221.566
219.847
218.08
216.269
214.416
212.525
210.599
208.643
206.66
204.655
202.634
200.602
198.565
196.529
194.501
192.488
190.496
188.533
186.606
184.722
182.888
181.111
179.397
177.753
176.186
174.7
173.3
171.993
170.781
169.67
168.661
167.759
166.965
166.281
165.707
165.246
164.895
164.656
164.527
164.505
164.59
164.776
165.062
165.441
165.91
166.462
167.091
167.791
168.553
169.371
170.236
171.14
172.073
173.029
173.997
174.969
175.936
176.889
177.821
178.722
179.585
180.402
181.166
181.871
182.51
183.078
183.568
183.978
184.301
184.535
184.676
184.722
184.67
184.518
184.267
183.915
183.463
182.912
182.262
181.516
180.677
179.746
178.727
177.624
176.441
175.18
173.848
172.449
170.987
169.467
167.895
166.275
164.612
162.912
161.178
159.416
157.63
155.823
154.002
152.168
150.327
148.481
146.634
144.789
142.95
141.118
139.296
137.488
135.694
133.918
132.161
130.427
128.715
127.03
125.371
123.74
122.14
120.572
119.035
117.533
116.064
114.631
113.234
111.874
110.55
109.263
108.013
106.799
105.622
104.479
103.371
102.295
101.249
100.232
99.241
98.274
97.327
96.397
95.48
94.571
93.664
92.751
91.823
90.873
89.888
88.86
87.777
86.628
85.403
84.095
82.695
81.195
79.586
77.859
76.003
74.01
71.875
69.59
67.15
64.552
61.794
58.884
55.827
52.625
49.277
45.773
42.106
38.275
34.28
30.13
25.832
21.4
16.858
12.244
7.598
2.963
-1.626
-6.147
-10.565
-14.842
-18.92
-22.728
-26.206
-29.305
-31.989
-34.235
-36.03
-37.378
-38.314
-38.899
-39.211
-39.348
-39.399
-39.462
-39.656
-40.086
-40.928
-42.424
-44.722
-47.874
-51.772
-56.098
-60.525
-64.776
-68.438
-71.002
-72.111
-71.626
-69.98
-68.166
-67.146
-67.746
-70.601
-76.136
-84.594
-95.655
-107.852
-118.82
-125.698
-125.337
-115.399
-93.847
-59.403
-12.666
46.077
116.189
196.973
288.844
387.331
483.84
568.694
630.512
665.748
678.103
671.213
650.701
617.373
567.075
499.275
414.894
316.844
211.467
103.605
-3.556
-105.83
-199.228
-280.705
-347.239
-397.677
-433.707
-455.507
-462.092
-452.859
-425.863
-384.341
-336.501
-290.329
-254.833
-232.309
-218.073
-207.727
-195.453
-179.74
-164.585
-151.929
-143.281
-138.454
-134.025
-128.432
-121.723
-113.964
-106.017
-98.508
-91.378
-85.016
-80.279
-77.616
-77.133
-78.658
-81.842
-86.543
-92.482
-99.098
-105.887
-112.041
-117.584
-124.108
-131.356
-137.645
-140.528
-134.415
-118.057
-97.072
-78.179
-71.184
-81.255
-101.344
-121.704
-132.22
-125.563
-106.584
-84.63
-66.602
-58.27
-58.457
-61.66
-65.15
-66.926
-66.675
-66.281
-66.259
-66.415
-66.813
-67.111
-67.161
-67.153
-67.12
-67.005
-66.83
-66.597
-66.254
-65.765
-65.102
-64.218
-63.101
-61.764
-60.203
-58.406
-56.374
-54.11
-51.619
-48.917
-46.01
-42.905
-39.61
-36.136
-32.496
-28.705
-24.777
-20.726
-16.571
-12.332
-8.033
-3.697
0.65
4.982
9.274
13.498
17.627
21.635
25.498
29.19
32.688
35.968
39.006
41.782
44.275
46.466
48.337
49.873
51.058
51.881
52.332
52.403
52.088
51.382
50.285
48.797
46.921
44.661
42.024
39.019
35.657
31.952
27.916
23.567
18.922
14
8.819
3.402
-2.231
-8.058
-14.057
-20.207
-26.483
-32.864
-39.326
-45.848
-52.405
-58.976
-65.539
-72.072
-78.554
-84.966
-91.288
-97.501
-103.59
-109.537
-115.328
-120.948
-126.386
-131.629
-136.668
-141.494
-146.099
-150.478
-154.626
-158.539
-162.216
-165.656
-168.858
-171.824
-174.554
-177.052
-179.321
-181.365
-183.188
-184.796
-186.195
-187.393
-188.396
-189.214
-189.853
-190.322
-190.632
-190.791
-190.807
-190.691
-190.452
-190.1
-189.643
-189.092
-188.455
-187.742
-186.962
-186.123
-185.234
-184.301
-183.333
-182.337
-181.318
-180.284
-179.24
-178.191
-177.145
-176.105
-175.076
-174.063
-173.07
-172.1
-171.156
-170.242
-169.358
-168.507
-167.69
-166.908
-166.161
-165.452
-164.78
-164.144
-163.546
-162.984
-162.457
-161.966
-161.508
-161.083
-160.689
-160.325
-159.988
-159.679
-159.395
-159.135
-158.897
-158.679
-158.48
-158.296
-158.125
-157.966
-157.816
-157.672
-157.533
-157.396
-157.261
-157.124
-156.986
-156.844
-156.697
-156.544
-156.383
-156.214
-156.035
-155.845
-155.642
-155.427
-155.198
-154.953
-154.693
-154.415
-154.12
-153.806
-153.471
-153.116
-152.74
-152.341
-151.92
-151.476
-151.01
-150.523
-150.015
-149.487
-148.94
-148.376
-147.796
-147.2
-146.59
-145.967
-145.333
-144.687
-144.033
-143.371
-142.703
-142.03
-141.354
-140.676
-139.999
-139.324
-138.653
-137.988
-137.33
-136.682
-136.047
-135.426
-134.823
-134.239
-133.676
-133.137
-132.621
-132.13
-131.665
-131.224
-130.808
-130.414
-130.041
-129.688
-129.352
-129.031
-128.722
-128.421
-128.125
-127.831
-127.534
-127.229
-126.911
-126.576
-126.218
-125.832
-125.413
-124.955
-124.453
-123.901
-123.293
-122.623
-121.885
-121.073
-120.181
-119.203
-118.133
-116.967
-115.701
-114.332
-112.857
-111.276
-109.586
-107.79
-105.888
-103.884
-101.779
-99.578
-97.287
-94.912
-92.461
-89.943
-87.368
-84.746
-82.091
-79.417
-76.738
-74.069
-71.426
-68.825
-66.283
-63.816
-61.441
-59.172
-57.024
-55.015
-53.159
-51.474
-49.975
-48.676
-47.592
-46.734
-46.114
-45.738
-45.611
-45.733
-46.103
-46.723
-47.598
-48.732
-50.123
-51.766
-53.654
-55.773
-58.104
-60.618
-63.272
-66.022
-68.823
-71.631
-74.413
-77.128
-79.737
-82.192
-84.437
-86.419
-88.095
-89.426
-90.377
-90.925
-91.076
-90.864
-90.37
-89.674
-88.839
-87.936
-87.036
-86.233
-85.639
-85.352
-85.434
-85.967
-87.082
-88.859
-91.324
-94.353
-97.615
-100.769
-103.519
-105.497
-106.261
-105.447
-102.832
-98.639
-93.53
-88.058
-82.718
-78.119
-74.921
-73.823
-74.251
-73.537
-68.645
-57.095
-40.453
-24.159
-10.972
-0.175
18.018
60.006
135.036
244.727
376.263
503.907
607.723
675.391
705.874
712.767
707.457
692.848
667.71
621.198
542.479
434.191
303.915
167.005
44.483
-53.655
-123.405
-167.045
-194.876
-214.691
-232.846
-253.218
-276.16
-299.489
-317.794
-327.215
-324.608
-310.191
-289.093
-264.424
-238.139
-211.406
-183.172
-154.018
-126.269
-101.404
-80.34
-63.789
-51.771
-43.975
-40.058
-38.821
-38.275
-37.162
-34.969
-31.34
-26.341
-20.208
-13.109
-5.748
0.729
5.674
8.851
10.228
10.109
8.783
6.441
3.498
0.51
-2.149
-4.224
-5.575
-6.243
-6.25
-5.585
-4.308
-2.487
-0.183
2.529
5.594
8.984
12.652
16.551
20.63
24.812
29.022
33.188
37.228
41.095
44.761
48.205
51.427
54.435
57.244
59.881
62.384
64.781
67.104
69.377
71.623
73.873
76.163
78.527
81.005
83.627
86.409
89.367
92.51
95.838
99.352
103.042
106.894
110.895
115.035
119.303
123.69
128.182
132.765
137.422
142.133
146.879
151.642
156.403
161.139
165.832
170.462
175.009
179.455
183.782
187.968
191.993
195.837
199.478
202.898
206.078
208.999
211.644
213.997
216.045
217.777
219.18
220.246
220.968
221.338
221.353
221.009
220.306
219.242
217.82
216.043
213.917
211.447
208.642
205.513
202.069
198.325
194.294
189.991
185.434
180.639
175.625
170.411
165.018
159.465
153.774
147.966
142.061
136.083
130.052
123.989
117.915
111.85
105.813
99.823
93.9
88.06
82.32
76.697
71.206
65.86
60.674
55.659
50.825
46.183
41.741
37.505
33.481
29.673
26.085
22.717
19.57
16.644
13.936
11.444
9.163
7.088
5.214
3.533
2.039
0.723
-0.422
-1.405
-2.236
-2.924
-3.478
-3.908
-4.225
-4.436
-4.554
-4.587
-4.545
-4.438
-4.274
-4.064
-3.815
-3.535
-3.231
-2.91
-2.579
-2.242
-1.904
-1.569
-1.241
-0.922
-0.613
-0.317
-0.035
0.234
0.489
0.73
0.958
1.174
1.379
1.575
1.762
1.942
2.116
2.287
2.456
2.624
2.794
2.966
3.143
3.327
3.519
3.72
3.931
4.155
4.391
4.64
4.902
5.176
5.463
5.76
6.067
6.381
6.701
7.024
7.347
7.669
7.986
8.295
8.594
8.88
9.15
9.403
9.636
9.846
10.032
10.193
10.327
10.432
10.509
10.554
10.57
10.553
10.504
10.423
10.309
10.163
9.984
9.772
9.53
9.258
8.956
8.628
8.275
7.899
7.503
7.089
6.66
6.218
5.767
5.309
4.847
4.381
3.916
3.452
2.991
2.533
2.081
1.634
1.193
0.756
0.325
-0.102
-0.526
-0.948
-1.368
-1.789
-2.211
-2.636
-3.065
-3.5
-3.944
-4.397
-4.863
-5.343
-5.84
-6.356
-6.894
-7.457
-8.047
-8.666
-9.316
-9.998
-10.715
-11.466
-12.254
-13.077
-13.936
-14.83
-15.758
-16.718
-17.708
-18.726
-19.769
-20.832
-21.914
-23.009
-24.113
-25.222
-26.331
-27.436
-28.532
-29.615
-30.681
-31.724
-32.74
-33.724
-34.672
-35.58
-36.443
-37.258
-38.02
-38.728
-39.378
-39.968
-40.499
-40.968
-41.377
-41.727
-42.017
-42.253
-42.438
-42.579
-42.684
-42.757
-42.799
-42.82
-42.833
-42.839
-42.849
-42.869
-42.895
-42.952
-43.086
-43.31
-43.641
-44.121
-44.761
-45.585
-46.656
-47.947
-49.371
-50.924
-52.616
-54.33
-55.999
-57.738
-59.47
-61.24
-63.61
-65.815
-66.969
-68.25
-69.743
-74.046
-85.315
-100.466
-116.106
-127.03
-124.773
-112.787
-98.583
-88.704
-92.923
-109.525
-129.865
-148.516
-158.818
-160.46
-159.12
-157.46
-157.501
-159.794
-162.193
-163.928
-165.196
-165.93
-166.476
-167.013
-167.381
-167.59
-167.778
-168.016
-168.365
-169
-170.166
-172.051
-174.759
-178.179
-182.01
-185.953
-189.727
-192.918
-194.988
-195.51
-194.342
-191.931
-189.128
-186.707
-185.537
-186.5
-190.171
-196.926
-205.788
-213.803
-218.854
-219.286
-214.305
-205.611
-191.43
-167.446
-129.406
-70.483
12.046
115.137
232.72
351.732
456.423
535.084
581.039
597.177
593.902
580.067
560.384
532.953
491.126
431.487
354.405
264.28
168.472
71.104
-24.908
-117.623
-206.825
-288.697
-358.525
-411.138
-440.993
-447.301
-434.088
-410.326
-386.088
-368.67
-359.378
-352.223
-341.152
-322.079
-295.352
-266.843
-240.927
-219.678
-203.286
-189.927
-178.83
-170.038
-163.123
-157.248
-151.346
-144.754
-137.402
-129.352
-120.697
-111.521
-102.158
-93.494
-86.342
-81.07
-77.721
-76.08
-75.898
-76.99
-79.047
-81.678
-84.541
-87.148
-89.277
-90.864
-91.336
-91.334
-91.692
-91.299
-90.099
-85.416
-73.153
-55.702
-36.044
-20.959
-20.036
-32.095
-51.499
-68.356
-70.218
-55.696
-30.441
-3.894
13.837
20.136
18.044
13.064
9.858
9.778
11.987
14.753
17.243
19.572
21.944
24.606
27.537
30.522
33.515
36.548
39.605
42.704
45.882
49.164
52.595
56.207
59.995
63.938
68.031
72.266
76.629
81.107
85.679
90.326
95.031
99.779
104.551
109.328
114.09
118.815
123.483
128.073
132.559
136.919
141.127
145.157
148.985
152.586
155.935
159.011
161.791
164.255
166.385
168.165
169.578
170.611
171.252
171.492
171.323
170.739
169.736
168.314
166.474
164.217
161.551
158.481
155.018
151.174
146.962
142.398
137.5
132.288
126.781
121.003
114.977
108.728
102.283
95.667
88.908
82.033
75.07
68.047
60.991
53.928
46.886
39.889
32.963
26.131
19.416
12.839
6.42
0.178
-5.869
-11.705
-17.317
-22.691
-27.816
-32.683
-37.285
-41.614
-45.667
-49.441
-52.934
-56.148
-59.083
-61.744
-64.135
-66.263
-68.134
-69.757
-71.142
-72.298
-73.237
-73.969
-74.506
-74.861
-75.045
-75.072
-74.953
-74.701
-74.328
-73.846
-73.267
-72.601
-71.859
-71.052
-70.189
-69.278
-68.33
-67.35
-66.347
-65.328
-64.297
-63.262
-62.226
-61.193
-60.167
-59.151
-58.147
-57.156
-56.182
-55.223
-54.281
-53.357
-52.451
-51.562
-50.691
-49.837
-49.001
-48.181
-47.379
-46.593
-45.823
-45.07
-44.334
-43.615
-42.913
-42.229
-41.564
-40.917
-40.291
-39.686
-39.103
-38.542
-38.005
-37.493
-37.007
-36.548
-36.117
-35.714
-35.341
-34.998
-34.686
-34.405
-34.155
-33.935
-33.745
-33.585
-33.451
-33.344
-33.26
-33.198
-33.154
-33.127
-33.112
-33.106
-33.107
-33.109
-33.11
-33.105
-33.09
-33.061
-33.015
-32.948
-32.855
-32.734
-32.58
-32.39
-32.161
-31.891
-31.575
-31.213
-30.801
-30.337
-29.821
-29.25
-28.625
-27.944
-27.21
-26.421
-25.581
-24.691
-23.754
-22.772
-21.75
-20.691
-19.6
-18.48
-17.336
-16.174
-14.997
-13.811
-12.621
-11.431
-10.245
-9.068
-7.905
-6.758
-5.631
-4.527
-3.449
-2.4
-1.381
-0.394
0.559
1.477
2.359
3.206
4.018
4.796
5.541
6.257
6.945
7.611
8.259
8.894
9.522
10.15
10.784
11.432
12.102
12.801
13.537
14.32
15.155
16.053
17.021
18.065
19.195
20.417
21.737
23.162
24.697
26.347
28.118
30.012
32.034
34.187
36.473
38.895
41.454
44.15
46.983
49.951
53.053
56.284
59.639
63.111
66.694
70.378
74.154
78.012
81.942
85.93
89.964
94.03
98.112
102.196
106.264
110.298
114.277
118.181
121.992
125.689
129.254
132.666
135.904
138.947
141.777
144.376
146.725
148.806
150.6
