Name,John Breau
Date of Birth,"Dec 20, 1971"
Recorded Date,2023-05-13 21:03:51 -0500
Classification,Sinus Rhythm
Symptoms,
Software Version,1.90
Device,"Watch6,3"
Sample Rate,512 hertz


Lead,Lead I
Unit,µV

-41.284
-32.374
-27.597
-25.685
-26.329
-27.96
-30.201
-33.134
-36.198
-38.868
-40.293
-39.818
-37.359
-33.301
-28.445
-23.343
-18.246
-13.436
-9.16
-5.596
-2.869
-0.844
0.844
2.419
3.973
5.559
7.146
8.743
10.404
12.123
13.852
15.571
17.274
18.985
20.757
22.619
24.576
26.627
28.757
30.958
33.226
35.552
37.927
40.338
42.768
45.2
47.616
49.995
52.315
54.552
56.675
58.66
60.48
62.11
63.529
64.713
65.637
66.278
66.611
66.612
66.26
65.535
64.421
62.907
60.98
58.628
55.842
52.617
48.956
44.862
40.341
35.401
30.048
24.298
18.178
11.715
4.939
-2.129
-9.481
-17.094
-24.936
-32.969
-41.154
-49.449
-57.815
-66.199
-74.523
-82.71
-90.679
-98.362
-105.715
-112.688
-119.235
-125.3
-130.801
-135.661
-139.832
-143.271
-145.957
-147.918
-149.156
-149.667
-149.564
-149.036
-148.366
-147.868
-147.696
-147.823
-148.24
-149.124
-150.569
-152.429
-154.173
-154.984
-154.343
-152.242
-148.824
-143.927
-137.391
-129.359
-120.668
-112.968
-107.599
-105.081
-105.509
-108.888
-115.095
-123.752
-133.418
-141.19
-144.123
-139.609
-125.342
-99.669
-61.065
-8.194
58.84
138.217
227.276
322.203
418.575
512.262
598.489
671.971
728.213
763.603
775.343
763.243
729.098
673.67
598.457
504.974
393.092
268.143
139.378
15.327
-93.711
-184.027
-259.396
-322.816
-378.267
-426.642
-464.151
-489.049
-501.167
-501.461
-492.557
-476.31
-453.796
-426.091
-394.173
-359.081
-321.683
-282.962
-244.418
-207.433
-173.307
-143.191
-117.524
-96.496
-80.355
-68.91
-61.406
-57.004
-54.622
-53.08
-51.81
-50.485
-48.798
-46.802
-44.798
-43.101
-42.213
-42.688
-44.652
-48.027
-52.656
-58.148
-64.04
-69.881
-75.178
-79.476
-82.559
-84.352
-84.844
-84.124
-82.283
-79.42
-75.68
-71.223
-66.165
-60.592
-54.593
-48.272
-41.777
-35.285
-28.918
-22.754
-16.836
-11.181
-5.803
-0.701
4.158
8.831
13.366
17.812
22.199
26.551
30.906
35.314
39.831
44.52
49.425
54.57
59.971
65.633
71.557
77.733
84.14
90.742
97.511
104.422
111.453
118.583
125.786
133.03
140.285
147.515
154.689
161.776
168.743
175.557
182.188
188.606
194.783
200.696
206.316
211.615
216.567
221.143
225.317
229.065
232.364
235.192
237.529
239.359
240.669
241.449
241.689
241.384
240.532
239.13
237.182
234.691
231.664
228.111
224.043
219.476
214.425
208.908
202.948
196.568
189.792
182.646
175.157
167.353
159.264
150.92
142.353
133.592
124.669
115.617
106.466
97.249
87.998
78.741
69.506
60.318
51.202
42.183
33.287
24.534
15.946
7.539
-0.671
-8.668
-16.439
-23.975
-31.272
-38.326
-45.138
-51.705
-58.026
-64.1
-69.923
-75.511
-80.877
-86.038
-91.018
-95.815
-100.429
-104.878
-109.169
-113.319
-117.358
-121.259
-124.987
-128.623
-132.22
-135.844
-139.589
-143.362
-147.031
-150.648
-154.241
-157.652
-160.801
-163.488
-165.455
-166.944
-168.235
-169.32
-170.26
-171.227
-172.271
-173.697
-175.855
-178.414
-181.033
-183.634
-186.03
-188.105
-189.847
-190.953
-191.103
-190.518
-189.4
-187.817
-185.929
-183.722
-181.139
-178.323
-175.407
-172.296
-168.921
-165.237
-161.161
-156.738
-152.026
-147.005
-141.673
-136.061
-130.19
-124.097
-117.826
-111.387
-104.793
-98.069
-91.234
-84.323
-77.371
-70.407
-63.463
-56.569
-49.756
-43.053
-36.492
-30.101
-23.908
-17.942
-12.226
-6.784
-1.64
3.187
7.678
11.819
15.601
19.016
22.057
24.721
27.006
28.914
30.447
31.614
32.421
32.879
33
32.799
32.292
31.497
30.433
29.121
27.581
25.835
23.904
21.812
19.58
17.233
14.791
12.279
9.717
7.127
4.532
1.949
-0.602
-3.104
-5.543
-7.905
-10.18
-12.363
-14.448
-16.432
-18.316
-20.099
-21.785
-23.376
-24.875
-26.283
-27.603
-28.841
-30.004
-31.103
-32.147
-33.145
-34.106
-35.04
-35.957
-36.866
-37.77
-38.669
-39.566
-40.47
-41.397
-42.375
-43.426
-44.562
-45.792
-47.12
-48.543
-50.056
-51.631
-53.223
-54.784
-56.271
-57.648
-58.897
-59.989
-60.877
-61.502
-61.794
-61.695
-61.185
-60.254
-58.897
-57.134
-55.004
-52.577
-50.007
-47.456
-45.064
-42.991
-41.371
-40.329
-40.083
-40.885
-42.89
-46.181
-50.666
-56.019
-61.916
-68.047
-73.942
-79.074
-83.062
-85.648
-86.983
-87.962
-89.635
-92.732
-97.995
-105.305
-113.338
-121.84
-130.373
-138.268
-146.239
-151.099
-146.834
-127.914
-87.644
-25.333
52.879
140.706
230.55
317.553
401.665
480.735
550.696
608.094
649.195
672.652
680.776
673.184
646.515
597.994
524.26
427.728
317.041
200.484
86.655
-19.673
-118.142
-207.25
-285.511
-351.09
-401.142
-435.101
-454.088
-459.18
-452.156
-435.09
-409.857
-378.837
-344.518
-308.462
-271.665
-235.419
-201.044
-169.622
-142.144
-118.789
-99.088
-82.919
-70.224
-60.474
-52.846
-46.328
-39.792
-32.775
-25.401
-17.675
-9.656
-1.603
6.099
12.795
17.725
20.612
21.596
20.9
18.84
15.735
11.907
7.877
4.246
1.386
-0.534
-1.482
-1.522
-0.679
1.054
3.613
6.873
10.708
15.004
19.69
24.72
30.023
35.486
40.957
46.304
51.447
56.347
60.993
65.383
69.508
73.379
77.038
80.54
83.94
87.284
90.602
93.929
97.313
100.812
104.496
108.42
112.615
117.105
121.901
127.011
132.438
138.176
144.2
150.485
157.01
163.752
170.698
177.823
185.096
192.484
199.951
207.46
214.98
222.472
229.899
237.223
244.406
251.413
258.21
264.761
271.03
276.978
282.568
287.765
292.533
296.839
300.651
303.939
306.678
308.844
310.418
311.384
311.728
311.439
310.511
308.942
306.73
303.881
300.401
296.301
291.595
286.303
280.444
274.042
267.124
259.72
251.863
243.586
234.926
225.921
216.61
207.035
197.238
187.261
177.147
166.941
156.684
146.419
136.189
126.035
115.996
106.109
96.411
86.934
77.711
68.771
60.141
51.845
43.903
36.336
29.159
22.386
16.026
10.087
4.574
-0.512
-5.171
-9.408
-13.227
-16.638
-19.651
-22.278
-24.534
-26.435
-28
-29.246
-30.195
-30.868
-31.288
-31.477
-31.459
-31.257
-30.894
-30.395
-29.781
-29.075
-28.299
-27.473
-26.618
-25.752
-24.894
-24.06
-23.266
-22.525
-21.851
-21.255
-20.746
-20.334
-20.025
-19.825
-19.738
-19.769
-19.917
-20.185
-20.573
-21.077
-21.697
-22.429
-23.268
-24.209
-25.246
-26.372
-27.581
-28.865
-30.215
-31.624
-33.083
-34.583
-36.115
-37.671
-39.241
-40.816
-42.388
-43.947
-45.485
-46.992
-48.462
-49.886
-51.256
-52.565
-53.805
-54.971
-56.055
-57.052
-57.954
-58.757
-59.455
-60.043
-60.517
-60.872
-61.105
-61.213
-61.194
-61.045
-60.766
-60.357
-59.816
-59.145
-58.344
-57.415
-56.36
-55.182
-53.884
-52.47
-50.946
-49.317
-47.588
-45.768
-43.862
-41.879
-39.827
-37.714
-35.551
-33.347
-31.111
-28.854
-26.59
-24.328
-22.082
-19.864
-17.686
-15.562
-13.505
-11.528
-9.643
-7.861
-6.195
-4.657
-3.258
-2.008
-0.92
-0.005
0.724
1.255
1.576
1.677
1.547
1.177
0.56
-0.308
-1.429
-2.802
-4.427
-6.305
-8.435
-10.817
-13.445
-16.314
-19.417
-22.746
-26.289
-30.031
-33.95
-38.026
-42.243
-46.593
-51.076
-55.692
-60.429
-65.274
-70.208
-75.208
-80.247
-85.284
-90.255
-95.097
-99.751
-104.166
-108.308
-112.135
-115.588
-118.602
-121.094
-122.993
-124.265
-124.89
-124.853
-124.169
-122.867
-121.003
-118.72
-116.167
-113.483
-110.811
-108.265
-105.952
-104.077
-102.903
-102.621
-103.35
-105.056
-107.509
-110.486
-113.759
-116.873
-119.225
-120.353
-119.939
-118.001
-115.19
-112.287
-110.014
-109.524
-111.332
-114.341
-117.382
-119.133
-119.204
-120.533
-125.066
-130.414
-130.408
-113.753
-69.372
5.776
109.129
232.979
364.41
493.417
609.957
702.529
766.361
799.719
805.369
792.43
766.231
728.484
678.221
611.229
526.898
428.797
322.927
216.334
112.761
11.831
-87.843
-186.387
-279.343
-355.736
-405.836
-424.262
-412.321
-382.392
-346.541
-313.311
-287.212
-262.771
-235.294
-202.988
-165.018
-126.494
-91.08
-59.604
-33.255
-10.78
8.781
24.86
37.689
47.814
55.552
61.709
67.096
71.837
76.077
80.072
83.765
86.898
89.183
90.16
89.335
86.682
82.369
76.599
69.744
62.227
54.514
47.145
40.642
35.294
31.205
28.418
26.893
26.589
27.459
29.385
32.209
35.799
40.049
44.858
50.131
55.73
61.46
67.18
72.796
78.249
83.524
88.612
93.496
98.194
102.756
107.23
111.668
116.112
120.59
125.143
129.823
134.69
139.815
145.246
151.009
157.119
163.577
170.376
177.507
184.942
192.644
200.575
208.705
217.003
225.446
234.004
242.639
251.312
259.98
268.598
277.121
285.503
293.698
301.656
309.332
316.683
323.67
330.253
336.399
342.064
347.208
351.785
355.745
359.05
361.668
363.572
364.745
365.183
364.891
363.897
362.235
359.925
356.98
353.403
349.177
344.3
338.765
332.563
325.709
318.215
310.085
301.346
292.016
282.09
271.555
260.365
248.456
235.819
222.47
208.45
193.852
178.774
163.334
147.691
131.975
116.301
100.789
85.518
70.573
56.072
42.141
28.94
16.656
5.411
-4.709
-13.638
-21.385
-27.978
-33.484
-38.039
-41.759
-44.73
-47.035
-48.719
-49.827
-50.439
-50.64
-50.531
-50.25
-49.899
-49.557
-49.303
-49.168
-49.156
-49.247
-49.363
-49.441
-49.454
-49.383
-49.238
-49.042
-48.798
-48.514
-48.208
-47.868
-47.497
-47.098
-46.668
-46.223
-45.796
-45.428
-45.184
-45.127
-45.296
-45.722
-46.424
-47.41
-48.688
-50.258
-52.109
-54.233
-56.627
-59.285
-62.206
-65.383
-68.802
-72.445
-76.289
-80.309
-84.482
-88.787
-93.2
-97.703
-102.275
-106.901
-111.566
-116.256
-120.955
-125.643
-130.303
-134.915
-139.461
-143.923
-148.283
-152.523
-156.628
-160.584
-164.378
-167.998
-171.432
-174.671
-177.704
-180.522
-183.119
-185.486
-187.619
-189.512
-191.162
-192.568
-193.729
-194.647
-195.321
-195.755
-195.953
-195.919
-195.658
-195.175
-194.478
-193.571
-192.465
-191.169
-189.692
-188.045
-186.239
-184.288
-182.203
-179.998
-177.687
-175.284
-172.803
-170.258
-167.667
-165.045
-162.41
-159.777
-157.162
-154.584
-152.058
-149.602
-147.232
-144.964
-142.811
-140.79
-138.916
-137.204
-135.667
-134.319
-133.174
-132.246
-131.551
-131.103
-130.918
-131.01
-131.392
-132.075
-133.067
-134.374
-135.998
-137.94
-140.2
-142.775
-145.664
-148.86
-152.362
-156.162
-160.248
-164.608
-169.216
-174.041
-179.06
-184.252
-189.602
-195.108
-200.762
-206.549
-212.459
-218.485
-224.606
-230.795
-236.996
-243.137
-249.163
-255.031
-260.726
-266.245
-271.541
-276.543
-281.167
-285.301
-288.899
-291.924
-294.276
-295.934
-296.951
-297.431
-297.676
-298.021
-298.562
-299.376
-300.514
-301.726
-302.867
-303.83
-304.109
-303.349
-301.495
-298.37
-294.148
-289.532
-284.856
-280.344
-276.672
-274.217
-273.382
-274.992
-279.147
-285.448
-293.982
-304.712
-317.224
-330.319
-341.374
-347.532
-347.207
-341.4
-332.103
-318.885
-298.472
-263.731
-207.033
-126.051
-22.621
96.095
219.035
336.221
437.426
514.751
565.442
590.233
593.515
580.267
552.628
509.968
450.247
373.253
281.49
179.573
73.372
-32.671
-135.303
-231.306
-317.95
-392.805
-453.775
-499.915
-531.487
-548.902
-552.807
-544.519
-525.821
-498.962
-466.562
-431.053
-394.203
-357.852
-324.038
-294.392
-270.11
-251.639
-238.577
-230.25
-226.103
-225.223
-226.265
-227.812
-228.509
-227.671
-225.363
-221.871
-217.455
-212.471
-207.441
-203.043
-200.024
-198.68
-198.791
-199.924
-201.645
-203.609
-205.531
-207.059
-207.724
-207.174
-205.274
-202.02
-197.502
-191.809
-184.978
-177.06
-168.201
-158.578
-148.392
-137.856
-127.094
-116.172
-105.161
-94.116
-83.098
-72.18
-61.385
-50.698
-40.116
-29.639
-19.271
-9.025
1.124
11.231
21.361
31.585
41.952
52.484
63.202
74.121
85.252
96.597
108.146
119.869
131.748
143.768
155.918
168.19
180.562
193.006
205.49
217.982
230.45
242.863
255.187
267.386
279.425
291.273
302.899
314.271
325.358
336.123
346.526
356.531
366.098
375.188
383.765
391.789
399.225
406.039
412.198
417.676
422.444
426.479
429.758
432.263
433.977
434.888
434.985
434.261
432.712
430.339
427.143
423.133
418.318
412.712
406.333
399.201
391.341
382.778
373.543
363.668
353.188
342.142
330.57
318.513
306.017
293.128
279.893
266.362
252.583
238.606
224.481
210.256
195.981
181.703
167.47
153.327
139.32
125.491
111.883
98.535
85.484
72.766
60.414
48.459
36.929
25.847
15.238
5.119
-4.491
-13.58
-22.136
-30.151
-37.619
-44.539
-50.911
-56.737
-62.024
-66.78
-71.016
-74.745
-77.981
-80.743
-83.048
-84.917
-86.372
-87.435
-88.131
-88.485
-88.523
-88.272
-87.759
-87.011
-86.055
-84.921
-83.634
-82.222
-80.711
-79.127
-77.495
-75.84
-74.185
-72.552
-70.964
-69.441
-68.002
-66.665
-65.447
-64.363
-63.426
-62.649
-62.042
-61.614
-61.373
-61.325
-61.474
-61.824
-62.376
-63.13
-64.085
-65.238
-66.586
-68.121
-69.837
-71.727
-73.78
-75.987
-78.336
-80.815
-83.413
-86.113
-88.904
-91.769
-94.693
-97.66
-100.652
-103.652
-106.643
-109.607
-112.526
-115.382
-118.158
-120.836
-123.4
-125.833
-128.12
-130.244
-132.191
-133.947
-135.5
-136.836
-137.944
-138.814
-139.437
-139.807
-139.916
-139.76
-139.336
-138.641
-137.674
-136.437
-134.932
-133.162
-131.131
-128.847
-126.317
-123.552
-120.564
-117.366
-113.973
-110.4
-106.665
-102.788
-98.789
-94.687
-90.505
-86.265
-81.989
-77.701
-73.425
-69.187
-65.011
-60.924
-56.954
-53.129
-49.475
-46.019
-42.787
-39.802
-37.089
-34.667
-32.553
-30.76
-29.304
-28.199
-27.46
-27.096
-27.115
-27.52
-28.314
-29.496
-31.064
-33.007
-35.306
-37.947
-40.916
-44.207
-47.824
-51.759
-55.998
-60.519
-65.299
-70.309
-75.517
-80.872
-86.303
-91.744
-97.132
-102.414
-107.555
-112.498
-117.176
-121.511
-125.413
-128.814
-131.678
-133.971
-135.666
-136.771
-137.305
-137.316
-136.925
-136.251
-135.401
-134.504
-133.657
-132.959
-132.594
-132.806
-133.772
-135.553
-138.045
-140.959
-144.021
-146.992
-149.482
-150.952
-150.979
-149.443
-146.696
-143.553
-140.95
-139.667
-140.453
-144.21
-150.657
-158.138
-164.77
-167.793
-166.599
-163.668
-158.796
-149.896
-131.094
-90.738
-22.876
72.111
188.503
310.25
422.864
517.025
584.864
627.586
649.908
653.533
641.796
614.961
569.857
506.812
427.758
335.742
236.22
133.912
31.736
-67.515
-161.007
-246.586
-322.208
-386.011
-437.202
-475.637
-501.179
-514.403
-516.381
-507.86
-490.136
-464.96
-433.98
-399.055
-361.854
-323.503
-285.305
-248.972
-215.888
-187.153
-163.315
-144.147
-129.504
-119.38
-113.231
-110.106
-108.868
-108.221
-107.469
-106.537
-105.306
-103.712
-101.92
-100.193
-99.016
-99.033
-100.428
-103.042
-106.65
-110.872
-115.359
-119.796
-123.771
-126.856
-128.821
-129.588
-129.17
-127.682
-125.216
-121.869
-117.785
-113.119
-108.032
-102.656
-97.106
-91.51
-85.974
-80.593
-75.44
-70.546
-65.919
-61.565
-57.471
-53.6
-49.919
-46.374
-42.913
-39.501
-36.083
-32.606
-29.007
-25.215
-21.173
-16.843
-12.195
-7.21
-1.879
3.804
9.836
16.196
22.866
29.831
37.071
44.574
52.319
60.279
68.423
76.717
85.126
93.619
102.162
110.717
119.248
127.719
136.095
144.344
152.428
160.311
167.953
175.316
182.361
189.051
195.352
201.226
206.641
211.569
215.98
219.852
223.163
225.892
228.025
229.547
230.448
230.721
230.362
229.37
227.747
225.498
222.632
219.162
215.103
210.472
205.289
199.579
193.366
186.68
179.549
172.005
164.083
155.817
147.243
138.399
129.322
120.052
110.625
101.081
91.458
81.793
72.122
62.481
52.904
43.424
34.074
24.883
15.881
7.095
-1.45
-9.73
-17.723
-25.408
-32.768
-39.786
-46.449
-52.743
-58.659
-64.188
-69.324
-74.062
-78.399
-82.335
-85.869
-89.005
-91.746
-94.097
-96.065
-97.658
-98.884
-99.753
-100.276
-100.463
-100.329
-99.884
-99.142
-98.117
-96.824
-95.277
-93.491
-91.482
-89.264
-86.854
-84.268
-81.521
-78.629
-75.609
-72.475
-69.243
-65.93
-62.549
-59.116
-55.645
-52.15
-48.646
-45.144
-41.657
-38.198
-34.777
-31.406
-28.094
-24.851
-21.685
-18.606
-15.62
-12.734
-9.954
-7.285
-4.731
-2.296
0.019
2.212
4.282
6.23
8.059
9.77
11.367
12.854
14.237
15.521
16.713
17.823
18.857
19.826
20.739
21.607
22.439
23.248
24.044
24.838
25.641
26.464
27.32
28.217
29.169
30.185
31.276
32.453
33.725
35.102
36.593
38.205
39.944
41.817
43.828
45.982
48.281
50.728
53.324
56.068
58.96
61.998
65.179
68.497
71.946
75.518
79.208
83.005
86.901
90.886
94.949
99.078
103.264
107.495
111.759
116.039
120.319
124.583
128.812
132.991
137.102
141.12
145.029
148.822
152.49
156.023
159.409
162.615
165.624
168.44
171.039
173.362
175.365
177.005
178.269
179.205
179.827
180.066
179.976
179.788
179.57
179.258
178.878
178.199
177.594
178.434
180.537
182.624
182.741
177.052
165.556
152.248
141.018
137.376
142.088
149.944
156.879
158.639
154.236
147.644
141.443
137.266
135.705
135.201
135.041
135.373
136.113
137.299
138.631
139.517
139.771
139.418
138.292
136.227
133.217
129.291
125.043
120.856
115.854
110.052
104.493
101.318
104.597
115.033
128.78
139.834
140.85
129.367
108.869
85.512
66.387
55.207
53.236
59.548
70.771
84.491
96.277
103.236
109.178
120.234
146.76
198.477
274.992
369.522
471.495
570.023
661.067
746.165
824.566
891.682
940.888
962.69
954.296
921.598
869.107
802.195
723.162
627.839
518.641
403.24
289.75
189.693
107.531
39.693
-16.914
-66.57
-110.248
-144.538
-168.271
-181.385
-184.985
-181.969
-173.79
-161.28
-145.656
-127.245
-106.233
-83.282
-58.927
-34.145
-10.711
10.287
28.561
43.581
54.994
62.86
67.225
68.849
69.308
69.473
69.614
70.051
70.78
71.715
72.87
73.719
73.347
71.333
67.613
62.297
55.759
48.284
40.098
31.669
23.566
16.203
9.829
4.512
0.191
-3.157
-5.531
-6.97
-7.559
-7.416
-6.651
-5.34
-3.543
-1.317
1.236
3.978
6.792
9.59
12.315
14.958
17.507
19.945
22.281
24.537
26.744
28.951
31.197
33.506
35.914
38.459
41.189
44.172
47.456
51.073
55.045
59.38
64.083
69.16
74.603
80.39
86.501
92.914
99.611
106.576
113.788
121.22
128.841
136.616
144.513
152.504
160.555
168.635
176.711
184.753
192.73
200.616
208.381
215.996
223.428
230.646
237.619
244.32
250.719
256.789
262.503
267.84
272.778
277.3
281.388
285.029
288.211
290.924
293.163
294.923
296.203
297.004
297.332
297.192
296.595
295.552
294.079
292.19
289.904
287.241
284.222
280.871
277.213
273.271
269.075
264.65
260.027
255.234
250.301
245.258
240.136
234.964
229.773
224.593
219.453
214.382
209.408
204.558
199.86
195.338
191.016
186.918
183.066
179.478
176.174
173.169
170.48
168.12
166.099
164.428
163.117
162.171
161.595
161.395
161.571
162.126
163.057
164.363
166.04
168.083
170.486
173.241
176.338
179.767
183.516
187.573
191.922
196.548
201.435
206.564
211.916
217.471
223.209
229.107
235.144
241.296
247.542
253.858
260.22
266.606
272.992
279.354
285.67
291.916
298.07
304.109
310.012
315.758
321.325
326.696
331.85
336.77
341.44
345.843
349.966
353.796
357.321
360.532
363.419
365.978
368.204
370.093
371.646
372.865
373.753
374.316
374.56
374.495
374.132
373.483
372.563
371.386
369.97
368.334
366.496
364.479
362.304
359.994
357.572
355.062
352.488
349.876
347.249
344.631
342.046
339.519
337.072
334.727
332.506
330.429
328.515
326.781
325.244
323.917
322.813
321.94
321.306
320.916
320.773
320.877
321.227
321.818
322.643
323.694
324.959
326.424
328.073
329.885
331.841
333.917
336.088
338.328
340.607
342.897
345.165
347.38
349.51
351.519
353.373
355.037
356.473
357.647
358.52
359.052
359.207
358.945
358.231
357.03
355.308
353.033
350.179
346.72
342.636
337.907
332.513
326.436
319.661
312.179
303.984
295.074
285.446
275.102
264.054
252.32
239.916
226.857
213.15
198.796
183.802
168.191
151.989
135.226
117.939
100.167
81.971
63.429
44.617
25.609
6.466
-12.768
-32.029
-51.24
-70.313
-89.141
-107.648
-125.785
-143.512
-160.795
-177.632
-194.03
-210.036
-225.762
-241.315
-256.807
-272.353
-288.039
-303.964
-320.285
-337.222
-354.962
-373.556
-392.851
-412.536
-432.289
-451.803
-470.699
-488.449
-504.578
-518.947
-531.955
-544.485
-557.394
-571.496
-587.634
-606.351
-627.956
-651.544
-674.364
-694.171
-709.261
-718.859
-724.133
-722.484
-708.378
-676.907
-622.868
-548.208
-461.532
-371.152
-286.247
-212.077
-149.285
-99.984
-66.15
-50.097
-55.171
-82.343
-131.031
-200.043
-286.746
-387.905
-499.982
-618.491
-738.761
-856.69
-968.209
-1069.546
-1157.707
-1230.42
-1286.46
-1326.051
-1350.386
-1360.895
-1359.4
-1348.173
-1329.585
-1306.001
-1279.564
-1251.684
-1223.163
-1194.889
-1167.948
-1143.109
-1120.99
-1102.003
-1086.076
-1073.212
-1063.572
-1056.949
-1052.612
-1049.694
-1047.301
-1044.719
-1041.638
-1037.781
-1032.989
-1026.986
-1020.199
-1014.326
-1009.691
-1005.469
-999.965
-988.581
-969.893
-948.208
-928.619
-918.9
-923.461
-936
-948.11
-951.179
-938.43
-914.053
-886.119
-860.541
-842.705
-831.667
-822.736
-813.713
-802.843
-789.995
-776.93
-764.127
-751.488
-739.098
-726.702
-714.23
-701.902
-689.789
-677.856
-666.12
-654.555
-643.06
-631.547
-619.944
-608.17
-596.192
-584.012
-571.613
-558.985
-546.135
-533.064
-519.778
-506.285
-492.581
-478.666
-464.551
-450.25
-435.784
-421.181
-406.465
-391.663
-376.804
-361.917
-347.033
-332.183
-317.393
-302.693
-288.117
-273.699
-259.475
-245.484
-231.761
-218.342
-205.266
-192.567
-180.279
-168.432
-157.056
-146.178
-135.821
-126.008
-116.76
-108.092
-100.019
-92.552
-85.7
-79.469
-73.862
-68.877
-64.512
-60.76
-57.611
-55.052
-53.068
-51.64
-50.748
-50.369
-50.479
-51.051
-52.058
-53.469
-55.255
-57.384
-59.824
-62.542
-65.505
-68.68
-72.037
-75.542
-79.168
-82.883
-86.662
-90.476
-94.301
-98.113
-101.89
-105.612
-109.258
-112.813
-116.26
-119.585
-122.776
-125.823
-128.718
-131.452
-134.021
-136.42
-138.648
-140.703
-142.585
-144.295
-145.836
-147.211
-148.424
-149.479
-150.383
-151.14
-151.756
-152.237
-152.588
-152.815
-152.923
-152.917
-152.802
-152.582
-152.261
-151.841
-151.327
-150.72
-150.023
-149.238
-148.366
-147.407
-146.363
-145.234
-144.02
-142.72
-141.335
-139.864
-138.305
-136.658
-134.921
-133.094
-131.174
-129.161
-127.053
-124.849
-122.548
-120.15
-117.654
-115.061
-112.37
-109.583
-106.701
-103.724
-100.655
-97.495
-94.247
-90.914
-87.497
-84.001
-80.428
-76.782
-73.065
-69.282
-65.435
-61.528
-57.563
-53.544
-49.473
-45.354
-41.189
-36.981
-32.733
-28.448
-24.128
-19.776
-15.395
-10.985
-6.55
-2.091
2.39
6.891
11.412
15.95
20.504
25.071
29.65
34.237
38.832
43.432
48.034
52.636
57.234
61.826
66.408
70.976
75.526
80.053
84.552
89.018
93.444
97.826
102.157
106.432
110.643
114.786
118.854
122.839
126.736
130.535
134.231
137.815
141.282
144.624
147.834
150.906
153.831
156.606
159.223
161.676
163.959
166.066
167.992
169.733
171.283
172.635
173.782
174.714
175.425
175.908
176.154
176.159
175.92
175.437
174.714
173.755
172.563
171.143
169.497
167.628
165.542
163.247
160.753
158.077
155.242
152.277
149.208
146.054
142.826
139.521
136.139
132.683
129.159
125.57
121.933
118.278
114.647
111.096
107.663
104.359
101.192
98.162
95.301
92.669
90.338
88.383
86.882
85.921
85.532
85.679
86.22
86.907
87.492
87.781
87.658
87.037
86.054
85.092
84.597
85.095
86.978
90.329
95.111
101.323
108.524
115.837
122.459
127.566
130.574
131.422
130.008
125.846
118.96
109.927
99.156
87.191
74.542
61.396
49.126
40.733
38.79
44.986
58.839
78.16
102.431
133.921
179.703
247.246
339.57
454.67
580.393
701.087
804.741
881.376
930.376
956.853
963.161
952.498
924.678
875.901
806.334
718.145
615.015
503.508
389.257
276.239
168.35
68.741
-20.193
-96.32
-158.308
-205.824
-239.112
-258.757
-265.541
-261.122
-247.265
-224.634
-194.751
-157.635
-113.097
-65.37
-17.896
24.662
56.985
80.68
97.515
109.286
119.408
126.338
128.973
128.382
124.851
120.678
117.775
116.137
115.834
116.708
118.231
119.98
121.367
121.552
120.2
117.522
113.82
109.459
104.791
100.115
95.859
92.554
90.501
89.764
90.307
91.985
94.679
98.329
102.796
107.886
113.411
119.179
125.034
130.893
136.688
142.339
147.775
152.937
157.793
162.352
166.638
170.671
174.467
178.048
181.448
184.721
187.931
191.144
194.428
197.834
201.399
205.157
209.131
213.341
217.795
222.489
227.409
232.547
237.895
243.449
249.198
255.13
261.223
267.457
273.808
280.251
286.763
293.318
299.889
306.453
312.983
319.455
325.847
332.132
338.283
344.27
350.062
355.629
360.942
365.97
370.684
375.057
379.061
382.672
385.869
388.632
390.94
392.778
394.131
394.985
395.332
395.162
394.471
393.256
391.516
389.255
386.478
383.193
379.41
375.143
370.407
365.219
359.597
353.564
347.14
340.35
333.22
325.776
318.046
310.057
301.838
293.42
284.831
276.102
267.26
258.336
249.356
240.349
231.342
222.359
213.428
204.57
195.809
187.168
178.665
170.321
162.152
154.174
146.403
138.851
131.529
124.448
117.616
111.04
104.727
98.681
92.906
87.404
82.176
77.224
72.546
68.141
64.008
60.143
56.543
53.205
50.123
47.294
44.711
42.369
40.263
38.385
36.729
35.289
34.058
33.028
32.192
31.543
31.074
30.776
30.641
30.663
30.833
31.142
31.583
32.146
32.824
33.606
34.484
35.448
36.489
37.597
38.761
39.97
41.216
42.485
43.769
45.055
46.334
47.594
48.825
50.016
51.158
52.241
53.255
54.191
55.041
55.798
56.452
56.998
57.43
57.741
57.929
57.99
57.921
57.72
57.389
56.926
56.335
55.618
54.779
53.824
52.76
51.595
50.337
48.997
47.586
46.116
44.601
43.052
41.485
39.913
38.35
36.811
35.309
33.86
32.476
31.171
29.959
28.852
27.863
27.003
26.284
25.714
25.301
25.054
24.978
25.077
25.356
25.814
26.453
27.272
28.266
29.431
30.761
32.245
33.874
35.635
37.514
39.496
41.564
43.699
45.882
48.095
50.318
52.529
54.707
56.831
58.879
60.828
62.658
64.344
65.862
67.185
68.29
69.152
69.747
70.053
70.049
69.721
69.057
68.048
66.688
64.97
62.893
60.455
57.656
54.499
50.991
47.145
42.981
38.524
33.808
28.858
23.699
18.345
12.802
7.078
1.182
-4.875
-11.086
-17.426
-23.86
-30.336
-36.793
-43.184
-49.48
-55.655
-61.682
-67.507
-73.067
-78.283
-83.083
-87.396
-91.127
-94.241
-96.764
-98.797
-100.537
-102.193
-103.941
-105.917
-108.229
-110.763
-113.274
-115.485
-116.969
-117.421
-116.645
-114.417
-110.754
-106.114
-101.001
-95.991
-91.904
-89.032
-88.554
-92.06
-99.524
-111.292
-125.173
-137.305
-148.185
-158.179
-170.97
-193.585
-224.196
-257.238
-281.784
-280.239
-245.082
-177.014
-83.697
18.807
120.047
215.676
304.523
388.312
465.141
530.662
579.554
607.979
615.562
601.172
565.059
506.602
422.872
316.179
191.685
58.086
-70.472
-183.953
-277.436
-350.572
-409.497
-459.132
-500.88
-534.444
-556.867
-566.474
-564.159
-551.71
-531.946
-507.34
-479.399
-448.943
-416.317
-381.943
-346.699
-311.826
-278.515
-247.583
-219.327
-194.012
-171.952
-153.35
-137.981
-125.061
-113.632
-102.799
-92.194
-81.756
-71.366
-60.952
-50.629
-40.786
-32.013
-24.985
-19.968
-16.848
-15.49
-15.684
-17.206
-19.789
-22.974
-26.187
-29.017
-31.273
-32.874
-33.846
-34.206
-33.932
-33.075
-31.745
-30.047
-28.079
-25.891
-23.489
-20.889
-18.154
-15.378
-12.676
-10.165
-7.904
-5.922
-4.236
-2.841
-1.722
-0.846
-0.151
0.436
0.982
1.54
2.154
2.859
3.708
4.763
6.09
7.762
9.83
12.328
15.284
18.714
22.627
27.024
31.89
37.198
42.923
49.038
55.519
62.35
69.496
76.908
84.535
92.322
100.224
108.214
116.251
124.266
132.223
140.12
147.948
155.702
163.345
170.772
177.915
184.791
191.299
197.176
202.318
206.76
210.436
213.539
215.658
215.371
212.844
209.39
207.007
209.64
217.36
226.118
231.994
229.408
217.583
201.912
186.597
176.047
171.398
168.688
165.388
159.912
151.658
142.28
132.636
122.694
112.568
102.067
91.155
80.102
69.03
57.947
46.904
35.96
25.151
14.512
4.065
-6.186
-16.218
-25.978
-35.424
-44.531
-53.268
-61.613
-69.543
-77.033
-84.065
-90.629
-96.715
-102.317
-107.429
-112.05
-116.18
-119.824
-122.988
-125.68
-127.912
-129.697
-131.049
-131.987
-132.527
-132.692
-132.503
-131.983
-131.155
-130.044
-128.676
-127.077
-125.272
-123.288
-121.149
-118.882
-116.511
-114.06
-111.553
-109.012
-106.458
-103.911
-101.389
-98.911
-96.493
-94.148
-91.89
-89.73
-87.68
-85.748
-83.94
-82.264
-80.723
-79.321
-78.058
-76.937
-75.955
-75.11
-74.4
-73.821
-73.366
-73.029
-72.805
-72.686
-72.662
-72.727
-72.87
-73.084
-73.358
-73.683
-74.049
-74.448
-74.871
-75.307
-75.749
-76.189
-76.618
-77.029
-77.415
-77.77
-78.087
-78.36
-78.585
-78.756
-78.87
-78.923
-78.912
-78.834
-78.688
-78.472
-78.185
-77.828
-77.401
-76.902
-76.335
-75.699
-74.996
-74.228
-73.395
-72.502
-71.548
-70.539
-69.475
-68.362
-67.2
-65.995
-64.748
-63.464
-62.147
-60.8
-59.426
-58.029
-56.613
-55.183
-53.742
-52.296
-50.848
-49.404
-47.968
-46.546
-45.143
-43.763
-42.409
-41.087
-39.803
-38.561
-37.367
-36.228
-35.152
-34.149
-33.228
-32.399
-31.672
-31.055
-30.555
-30.182
-29.945
-29.849
-29.902
-30.11
-30.479
-31.02
-31.74
-32.644
-33.734
-35.007
-36.461
-38.094
-39.902
-41.875
-44.006
-46.285
-48.706
-51.272
-53.976
-56.808
-59.754
-62.793
-65.899
-69.052
-72.218
-75.356
-78.425
-81.388
-84.209
-86.858
-89.306
-91.516
-93.451
-95.095
-96.436
-97.466
-98.179
-98.546
-98.542
-98.225
-97.66
-96.856
-95.887
-94.868
-93.963
-93.554
-94.022
-95.455
-97.903
-101.536
-106.257
-111.698
-117.332
-122.063
-124.56
-124.962
-123.572
-119.39
-112.686
-102.208
-86.939
-71.484
-59.672
-55.681
-63.249
-78.077
-95.906
-113.456
-128.291
-144.688
-164.032
-183.297
-195.125
-185.085
-144.229
-71.359
26.778
134.559
239.88
336.183
421.411
498.162
565.931
621.005
659.521
677.261
672.678
646.814
600.689
536.127
455.874
362.962
261.106
154.583
47.285
-57.339
-155.619
-244.292
-320.881
-383.487
-431.161
-464.152
-483.355
-489.812
-485.057
-470.967
-449.406
-422.493
-392.3
-360.138
-326.899
-293.728
-261.758
-231.991
-205.433
-182.408
-162.705
-146.434
-133.705
-124.162
-117.169
-111.767
-106.798
-101.722
-96.526
-91.111
-85.452
-79.716
-74.199
-69.502
-66.377
-65.127
-65.648
-67.72
-71.028
-75.235
-80.003
-84.856
-89.217
-92.724
-95.229
-96.689
-97.166
-96.709
-95.328
-93.099
-90.167
-86.662
-82.697
-78.386
-73.799
-69.041
-64.269
-59.603
-55.148
-50.977
-47.113
-43.56
-40.328
-37.402
-34.75
-32.336
-30.103
-27.999
-25.985
-24.008
-22.014
-19.941
-17.709
-15.257
-12.538
-9.517
-6.17
-2.484
1.556
5.948
10.682
15.747
21.131
26.822
32.812
39.087
45.628
52.409
59.402
66.58
73.914
81.376
88.934
96.556
104.209
111.862
119.483
127.038
134.49
141.8
148.93
155.838
162.487
168.838
174.852
180.491
185.723
190.513
194.834
198.656
201.955
204.708
206.894
208.498
209.505
209.905
209.691
208.858
207.406
205.34
202.664
199.391
195.532
191.104
186.127
180.625
174.621
168.146
161.23
153.907
146.212
138.183
129.859
121.281
112.491
103.53
94.442
85.271
76.057
66.845
57.673
48.584
39.616
30.806
22.19
13.802
5.673
-2.167
-9.692
-16.876
-23.698
-30.139
-36.184
-41.818
-47.031
-51.816
-56.168
-60.085
-63.569
-66.623
-69.253
-71.47
-73.283
-74.707
-75.758
-76.454
-76.813
-76.857
-76.608
-76.089
-75.324
-74.338
-73.157
-71.805
-70.308
-68.691
-66.98
-65.198
-63.369
-61.516
-59.66
-57.823
-56.025
-54.282
-52.612
-51.031
-49.552
-48.189
-46.951
-45.849
-44.889
-44.08
-43.424
-42.926
-42.586
-42.407
-42.386
-42.522
-42.812
-43.252
-43.836
-44.559
-45.413
-46.391
-47.485
-48.686
-49.985
-51.372
-52.837
-54.372
-55.965
-57.607
-59.286
-60.994
-62.719
-64.452
-66.182
-67.899
-69.594
-71.256
-72.876
-74.445
-75.954
-77.394
-78.757
-80.033
-81.215
-82.295
-83.264
-84.116
-84.842
-85.434
-85.887
-86.195
-86.35
-86.349
-86.185
-85.855
-85.352
-84.675
-83.82
-82.783
-81.561
-80.151
-78.553
-76.767
-74.8
-72.654
-70.334
-67.84
-65.178
-62.359
-59.391
-56.271
-52.99
-49.539
-45.923
-42.167
-38.3
-34.324
-30.257
-26.154
-22.097
-18.165
-14.403
-10.795
-7.311
-3.996
-0.842
2.328
5.68
9.237
12.929
16.521
20.359
25.657
33.041
41.728
48.609
49.119
40.985
26.36
11.907
5.24
10.078
23.985
39.394
49.104
49.862
43.087
33.709
25.519
19.813
16.161
12.89
9.165
5.089
0.788
-3.557
-7.971
-12.649
-17.618
-22.818
-28.215
-33.759
-39.359
-44.916
-50.319
-55.48
-60.357
-64.91
-69.079
-72.787
-75.952
-78.517
-80.462
-81.764
-82.404
-82.395
-81.768
-80.593
-79.006
-77.139
-75.119
-73.093
-71.187
-69.512
-68.231
-67.552
-67.6
-68.407
-69.857
-71.628
-73.432
-75.06
-76.182
-76.336
-75.167
-72.485
-68.519
-64.12
-59.996
-56.477
-54.003
-53.041
-53.838
-56.462
-59.43
-59.356
-53.43
-40.144
-20.444
3.178
30.204
63.59
110.603
177.557
266.589
373.423
484.671
586.755
668.935
725.602
760.145
776.979
778.676
764.239
729.015
669.34
584.713
480.874
365.669
246.798
131.765
23.436
-76.073
-163.91
-238.63
-297.963
-340.617
-367.564
-380.392
-381.184
-372.106
-355.242
-332.717
-306.538
-278.469
-249.666
-220.674
-192.028
-164.516
-138.704
-115.088
-94.155
-76.02
-60.787
-48.736
-39.836
-33.582
-29.472
-26.859
-24.92
-23.283
-21.733
-19.959
-17.933
-15.908
-14.106
-12.912
-12.822
-13.916
-16.113
-19.354
-23.368
-27.825
-32.433
-36.766
-40.396
-43.141
-44.912
-45.685
-45.534
-44.496
-42.622
-40.05
-36.928
-33.374
-29.493
-25.349
-21.017
-16.622
-12.275
-8.066
-4.057
-0.259
3.32
6.666
9.792
12.723
15.499
18.176
20.801
23.409
26.042
28.745
31.572
34.591
37.856
41.402
45.259
49.441
53.959
58.823
64.029
69.559
75.398
81.527
87.929
94.595
101.502
108.627
115.94
123.409
131.002
138.691
146.443
154.223
161.998
169.734
177.396
184.956
192.377
199.623
206.659
213.445
219.947
226.127
231.951
237.385
242.395
246.953
251.032
254.607
257.656
260.159
262.101
263.466
264.243
264.426
264.009
262.989
261.367
259.149
256.341
252.953
248.999
244.495
239.457
233.909
227.873
221.375
214.442
207.105
199.396
191.347
182.993
174.369
165.512
156.46
147.248
137.915
128.498
119.034
109.559
100.108
90.715
81.414
72.236
63.21
54.366
45.729
37.326
29.179
21.309
13.736
6.478
-0.452
-7.04
-13.275
-19.149
-24.656
-29.791
-34.553
-38.94
-42.956
-46.603
-49.888
-52.817
-55.399
-57.644
-59.563
-61.169
-62.476
-63.499
-64.252
-64.752
-65.016
-65.06
-64.901
-64.557
-64.045
-63.381
-62.583
-61.668
-60.652
-59.552
-58.382
-57.16
-55.898
-54.612
-53.315
-52.019
-50.736
-49.477
-48.253
-47.073
-45.946
-44.88
-43.884
-42.964
-42.126
-41.377
-40.72
-40.161
-39.703
-39.348
-39.099
-38.958
-38.927
-39.005
-39.193
-39.492
-39.9
-40.418
-41.043
-41.774
-42.608
-43.543
-44.576
-45.702
-46.918
-48.22
-49.603
-51.062
-52.592
-54.187
-55.841
-57.547
-59.297
-61.084
-62.898
-64.732
-66.575
-68.417
-70.25
-72.062
-73.843
-75.584
-77.272
-78.898
-80.451
-81.92
-83.293
-84.559
-85.709
-86.73
-87.614
-88.351
-88.932
-89.348
-89.593
-89.658
-89.538
-89.226
-88.717
-88.008
-87.094
-85.973
-84.646
-83.112
-81.376
-79.439
-77.308
-74.988
-72.489
-69.818
-66.986
-64.003
-60.883
-57.639
-54.286
-50.841
-47.321
-43.745
-40.136
-36.516
-32.909
-29.338
-25.826
-22.397
-19.075
-15.888
-12.858
-10.007
-7.356
-4.926
-2.738
-0.816
0.822
2.159
3.185
3.89
4.265
4.297
3.979
3.314
2.31
0.973
-0.691
-2.69
-5.029
-7.695
-10.672
-13.94
-17.472
-21.244
-25.227
-29.361
-33.589
-37.849
-42.073
-46.23
-50.284
-54.197
-57.938
-61.441
-64.627
-67.446
-69.848
-71.8
-73.331
-74.449
-75.147
-75.529
-75.739
-76.015
-76.723
-78.055
-80.009
-82.566
-85.707
-89.446
-93.762
-98.238
-102.023
-104.488
-105.365
-104.684
-102.633
-99.112
-94.011
-87.885
-81.994
-77.643
-75.813
-76.841
-80.616
-87.45
-96.735
-106.259
-113.477
-115.336
-111.373
-104.525
-95.257
-81.357
-56
-7.948
67.567
168.216
285.16
403.261
511.871
605.499
681.64
741.538
784.603
808.303
810.775
790.594
748.111
685.611
606.245
513.677
411.802
304.821
196.845
91.508
-7.69
-97.699
-176.17
-241.238
-291.77
-327.8
-350.128
-359.817
-358.32
-347.445
-329.059
-305.17
-277.844
-248.579
-218.379
-188.345
-159.661
-133.249
-109.961
-90.395
-74.573
-62.536
-54.41
-49.904
-48.278
-48.71
-50.211
-51.834
-53.236
-54.214
-54.496
-54.05
-53.07
-51.819
-50.765
-50.427
-50.845
-51.855
-53.339
-55.084
-56.911
-58.654
-59.969
-60.421
-59.802
-58.07
-55.261
-51.514
-46.909
-41.51
-35.478
-29.041
-22.435
-15.846
-9.369
-3.027
3.158
9.144
14.884
20.329
25.473
30.336
34.93
39.262
43.332
47.155
50.78
54.284
57.753
61.253
64.823
68.49
72.277
76.205
80.294
84.552
88.974
93.551
98.285
103.179
108.239
113.466
118.847
124.364
129.998
135.729
141.539
147.409
153.314
159.231
165.136
171.009
176.829
182.573
188.212
193.716
199.054
204.193
209.101
213.745
218.09
222.104
225.755
229.014
231.854
234.247
236.17
237.599
238.515
238.898
238.734
238.009
236.711
234.833
232.372
229.324
225.693
221.484
216.704
211.366
205.485
199.079
192.168
184.776
176.928
168.651
159.978
150.939
141.571
131.908
121.989
111.852
101.539
91.088
80.542
69.939
59.319
48.722
38.187
27.751
17.449
7.317
-2.611
-12.304
-21.732
-30.867
-39.683
-48.159
-56.272
-64.005
-71.344
-78.274
-84.788
-90.876
-96.536
-101.766
-106.564
-110.937
-114.887
-118.425
-121.56
-124.305
-126.674
-128.683
-130.351
-131.697
-132.741
-133.505
-134.012
-134.286
-134.349
-134.226
-133.943
-133.524
-132.993
-132.376
-131.697
-130.979
-130.245
-129.518
-128.819
-128.167
-127.582
-127.08
-126.678
-126.39
-126.229
-126.206
-126.332
-126.614
-127.058
-127.671
-128.454
-129.409
-130.537
-131.837
-133.304
-134.935
-136.725
-138.667
-140.752
-142.972
-145.316
-147.773
-150.33
-152.975
-155.692
-158.468
-161.287
-164.132
-166.989
-169.839
-172.667
-175.455
-178.187
-180.846
-183.417
-185.881
-188.225
-190.433
-192.491
-194.386
-196.103
-197.631
-198.958
-200.074
-200.968
-201.632
-202.057
-202.236
-202.162
-201.831
-201.238
-200.381
-199.257
-197.866
-196.208
-194.286
-192.101
-189.659
-186.963
-184.02
-180.838
-177.424
-173.788
-169.942
-165.896
-161.664
-157.258
-152.692
-147.982
-143.143
-138.19
-133.139
-128.007
-122.812
-117.571
-112.303
-107.027
-101.76
-96.523
-91.335
-86.215
-81.182
-76.254
-71.449
-66.787
-62.284
-57.959
-53.829
-49.912
-46.226
-42.79
-39.62
-36.733
-34.143
-31.866
-29.914
-28.302
-27.04
-26.134
-25.588
-25.409
-25.599
-26.164
-27.1
-28.401
-30.058
-32.062
-34.404
-37.077
-40.064
-43.34
-46.88
-50.657
-54.651
-58.854
-63.247
-67.803
-72.494
-77.291
-82.166
-87.096
-92.04
-96.942
-101.736
-106.352
-110.737
-114.861
-118.689
-122.194
-125.336
-128.038
-130.244
-131.913
-132.998
-133.497
-133.406
-132.674
-131.352
-129.601
-127.629
-125.801
-124.44
-123.615
-123.37
-123.776
-124.742
-126.146
-127.662
-128.416
-127.556
-124.752
-119.885
-113.053
-104.638
-94.888
-84.345
-74.557
-67.29
-63.579
-64.1
-69.035
-77.889
-90.35
-105.087
-118.559
-127.026
-128.139
-122.092
-110.945
-95.504
-72.416
-33.059
29.866
118.627
229.119
347.515
460.727
559.833
638.529
698.865
742.806
769.604
778.851
766.613
730.13
670.386
590.386
495.221
389.308
274.586
152.106
24.532
-101.704
-215.792
-307.41
-371.175
-408.091
-426.343
-434.718
-438.066
-437.689
-431.011
-416.095
-393.902
-366.611
-336.762
-305.779
-273.971
-241.725
-209.908
-179.709
-152.128
-127.672
-106.776
-89.865
-77.171
-68.432
-62.706
-58.769
-55.47
-52.147
-48.473
-44.178
-39.137
-33.518
-27.834
-22.787
-19.09
-17.027
-16.51
-17.387
-19.395
-22.197
-25.38
-28.409
-30.754
-32.124
-32.445
-31.722
-30.034
-27.436
-23.969
-19.759
-14.966
-9.725
-4.145
1.695
7.729
13.848
19.893
25.733
31.276
36.472
41.314
45.796
49.909
53.667
57.106
60.275
63.232
66.021
68.678
71.244
73.769
76.316
78.962
81.765
84.768
88.001
91.485
95.234
99.264
103.576
108.156
112.994
118.077
123.399
128.954
134.732
140.713
146.877
153.199
159.655
166.223
172.877
179.59
186.334
193.082
199.806
206.482
213.08
219.569
225.918
232.092
238.059
243.786
249.24
254.39
259.204
263.654
267.713
271.356
274.562
277.308
279.576
281.349
282.614
283.359
283.574
283.253
282.392
280.99
279.049
276.572
273.566
270.04
266.005
261.474
256.464
250.991
245.076
238.74
232.006
224.9
217.447
209.676
201.614
193.293
184.74
175.988
167.068
158.009
148.843
139.6
130.31
121.001
111.703
102.444
93.251
84.149
75.164
66.319
57.638
49.141
40.848
32.778
24.948
17.374
10.07
3.05
-3.675
-10.094
-16.199
-21.983
-27.44
-32.566
-37.359
-41.816
-45.938
-49.727
-53.185
-56.316
-59.124
-61.616
-63.798
-65.679
-67.267
-68.571
-69.603
-70.373
-70.894
-71.177
-71.237
-71.086
-70.737
-70.206
-69.507
-68.653
-67.661
-66.545
-65.321
-64.004
-62.61
-61.153
-59.649
-58.112
-56.556
-54.995
-53.443
-51.911
-50.411
-48.955
-47.553
-46.215
-44.95
-43.766
-42.671
-41.67
-40.768
-39.97
-39.277
-38.693
-38.216
-37.848
-37.586
-37.428
-37.37
-37.409
-37.538
-37.75
-38.04
-38.397
-38.813
-39.277
-39.778
-40.306
-40.848
-41.394
-41.93
-42.445
-42.927
-43.364
-43.745
-44.059
-44.293
-44.439
-44.486
-44.424
-44.246
-43.943
-43.509
-42.938
-42.226
-41.369
-40.365
-39.214
-37.915
-36.47
-34.882
-33.154
-31.293
-29.305
-27.197
-24.979
-22.662
-20.257
-17.777
-15.235
-12.645
-10.023
-7.383
-4.742
-2.117
0.478
3.025
5.508
7.912
10.218
12.412
14.476
16.395
18.149
19.722
21.097
22.257
23.188
23.875
24.307
24.474
24.371
23.994
23.34
22.406
21.189
19.689
17.909
15.854
13.532
10.949
8.115
5.046
1.764
-1.713
-5.368
-9.196
-13.197
-17.368
-21.696
-26.163
-30.753
-35.442
-40.206
-45.003
-49.772
-54.455
-58.996
-63.352
-67.494
-71.375
-74.933
-78.099
-80.79
-82.947
-84.543
-85.555
-85.97
-85.8
-85.079
-83.861
-82.278
-80.464
-78.545
-76.663
-74.933
-73.473
-72.487
-72.252
-72.968
-74.695
-77.313
-80.518
-84.031
-87.599
-90.809
-93.093
-93.993
-93.416
-91.798
-89.997
-88.944
-89.491
-92.428
-98.535
-107.517
-117.652
-126.636
-132.299
-134.706
-135.323
-133.604
-125.197
-101.143
-52.608
23.433
122.341
232.077
340.283
438.275
521.459
590.337
644.381
682.374
703.096
701.792
676.485
626.306
550.946
456.94
350.666
238.344
127.567
20.846
-79.748
-171.275
-252.624
-321.651
-376.524
-417.361
-445.047
-460.929
-466.743
-463.868
-453.185
-435.685
-412.747
-385.789
-355.682
-323.158
-289.006
-254.215
-220.446
-189.354
-161.731
-137.829
-117.955
-102.217
-90.457
-82.176
-76.051
-70.612
-65.119
-59.312
-53.067
-46.395
-39.38
-32.29
-25.923
-21.22
-18.609
-18.105
-19.498
-22.469
-26.731
-31.98
-37.662
-43.06
-47.696
-51.325
-53.872
-55.406
-55.95
-55.479
-54.039
-51.755
-48.752
-45.154
-41.051
-36.463
-31.454
-26.131
-20.633
-15.142
-9.786
-4.625
0.301
4.977
9.391
13.536
17.437
21.153
24.743
28.254
31.727
35.193
38.686
42.246
45.924
49.778
53.858
58.208
62.853
67.783
73.014
78.596
84.551
90.886
97.585
104.565
111.784
119.284
126.989
134.636
142.123
149.492
156.679
163.874
170.666
175.573
178.718
181.448
185.774
195.734
211.457
228.713
243.43
249.821
246.921
240.248
234.104
232.96
238.024
245.153
251.652
255.847
257.024
256.831
256.123
254.812
252.969
250.354
246.88
242.783
238.156
232.971
227.251
221.028
214.316
207.133
199.488
191.374
182.812
173.856
164.551
154.934
145.049
134.935
124.638
114.206
103.685
93.116
82.54
72
61.538
51.192
41.002
31.003
21.23
11.716
2.489
-6.421
-14.99
-23.195
-31.014
-38.43
-45.428
-51.995
-58.122
-63.801
-69.029
-73.804
-78.127
-82.004
-85.44
-88.445
-91.031
-93.209
-94.996
-96.414
-97.482
-98.223
-98.659
-98.809
-98.698
-98.357
-97.807
-97.058
-96.125
-95.019
-93.763
-92.401
-90.957
-89.432
-87.861
-86.312
-84.838
-83.499
-82.312
-81.231
-80.255
-79.459
-78.783
-78.003
-77.084
-76.097
-75.015
-74.098
-72.854
-69.84
-65.418
-60.886
-58.473
-62.29
-71.935
-83.303
-92.252
-92.914
-85.104
-74.317
-64.783
-61.134
-64.012
-69.284
-74.459
-77.775
-78.761
-79.098
-79.507
-79.934
-80.424
-80.713
-80.742
-80.731
-80.74
-80.727
-80.695
-80.649
-80.579
-80.473
-80.309
-80.048
-79.677
-79.216
-78.672
-78.045
-77.337
-76.551
-75.689
-74.761
-73.771
-72.72
-71.611
-70.445
-69.226
-67.957
-66.641
-65.282
-63.883
-62.448
-60.978
-59.478
-57.95
-56.399
-54.828
-53.239
-51.636
-50.023
-48.403
-46.779
-45.157
-43.539
-41.928
-40.329
-38.745
-37.18
-35.638
-34.121
-32.632
-31.175
-29.753
-28.371
-27.033
-25.744
-24.512
-23.345
-22.255
-21.249
-20.339
-19.534
-18.845
-18.279
-17.846
-17.55
-17.395
-17.388
-17.533
-17.839
-18.315
-18.963
-19.787
-20.792
-21.978
-23.349
-24.901
-26.622
-28.505
-30.546
-32.749
-35.13
-37.698
-40.45
-43.379
-46.476
-49.727
-53.11
-56.591
-60.107
-63.598
-67.01
-70.298
-73.438
-76.393
-79.108
-81.515
-83.537
-85.108
-86.206
-86.822
-86.935
-86.555
-85.714
-84.479
-82.992
-81.412
-79.868
-78.482
-77.371
-76.641
-76.47
-77.113
-78.745
-81.444
-85.136
-89.569
-94.502
-99.696
-104.732
-109.018
-112.028
-113.442
-113.343
-112.295
-110.934
-110
-110.383
-112.898
-117.475
-123
-128.011
-131.05
-132.681
-134.345
-135.044
-130.544
-112.144
-70.658
-2.269
89.832
195.86
304.749
408.714
504.278
590.851
666.412
727.149
768.377
785.967
779.332
749.357
696.52
620.817
521.877
402.129
269.142
135.022
11.825
-92.72
-177.039
-245.831
-304.291
-354.435
-395.544
-424.219
-438.067
-437.754
-425.849
-406.146
-381.958
-355.306
-327.31
-298.754
-270.809
-244.924
-222.137
-202.779
-186.54
-172.849
-161.495
-152.38
-144.895
-137.917
-130.419
-121.823
-112.164
-102.115
-91.347
-79.443
-67.648
-56.837
-49.541
-48.284
-50.807
-55.345
-59.254
-59.061
-57.197
-55.578
-55.222
-58.347
-62.844
-66.65
-69.354
-69.82
-68.677
-66.813
-64.124
-60.772
-56.8
-52.144
-46.992
-41.554
-35.911
-30.161
-24.464
-18.93
-13.625
-8.622
-3.937
0.445
4.498
8.218
11.641
14.788
17.704
20.445
23.05
25.569
28.062
30.59
33.227
36.034
39.051
42.314
45.848
49.666
53.785
58.209
62.929
67.94
73.235
78.803
84.637
90.724
97.044
103.573
110.284
117.149
124.14
131.23
138.386
145.578
152.773
159.938
167.043
174.052
180.93
187.638
194.136
200.385
206.347
211.983
217.257
222.131
226.573
230.551
234.037
237.005
239.43
241.292
242.573
243.257
243.335
242.798
241.641
239.864
237.469
234.465
230.861
226.672
221.914
216.609
210.779
204.451
197.655
190.422
182.786
174.784
166.453
157.834
148.966
139.893
130.655
121.296
111.859
102.386
92.919
83.497
74.161
64.949
55.896
47.038
38.407
30.032
21.943
14.163
6.716
-0.379
-7.105
-13.449
-19.399
-24.948
-30.09
-34.823
-39.148
-43.068
-46.589
-49.72
-52.47
-54.853
-56.883
-58.576
-59.951
-61.027
-61.825
-62.364
-62.668
-62.758
-62.658
-62.39
-61.976
-61.44
-60.803
-60.087
-59.311
-58.496
-57.66
-56.821
-55.994
-55.194
-54.434
-53.727
-53.083
-52.512
-52.019
-51.613
-51.296
-51.073
-50.945
-50.912
-50.975
-51.13
-51.375
-51.708
-52.122
-52.613
-53.176
-53.803
-54.488
-55.225
-56.005
-56.822
-57.668
-58.536
-59.418
-60.308
-61.198
-62.083
-62.956
-63.811
-64.643
-65.446
-66.216
-66.949
-67.639
-68.285
-68.881
-69.425
-69.915
-70.349
-70.724
-71.039
-71.291
-71.479
-71.601
-71.657
-71.645
-71.563
-71.411
-71.188
-70.893
-70.525
-70.084
-69.568
-68.977
-68.31
-67.566
-66.743
-65.841
-64.858
-63.794
-62.648
-61.419
-60.109
-58.717
-57.243
-55.689
-54.055
-52.345
-50.558
-48.699
-46.769
-44.773
-42.716
-40.603
-38.44
-36.234
-33.993
-31.724
-29.437
-27.14
-24.842
-22.552
-20.282
-18.042
-15.842
-13.696
-11.615
-9.614
-7.71
-5.917
-4.252
-2.731
-1.37
-0.183
0.814
1.61
2.194
2.557
2.69
2.581
2.221
1.602
0.719
-0.434
-1.857
-3.553
-5.521
-7.754
-10.24
-12.969
-15.933
-19.129
-22.565
-26.24
-30.146
-34.269
-38.593
-43.098
-47.758
-52.532
-57.358
-62.176
-66.926
-71.558
-76.034
-80.306
-84.313
-87.983
-91.235
-94.001
-96.241
-97.927
-99.033
-99.556
-99.516
-98.963
-98.015
-96.804
-95.462
-94.136
-92.952
-92.031
-91.538
-91.699
-92.691
-94.623
-97.458
-100.943
-104.841
-108.987
-113.094
-116.727
-119.461
-120.926
-121.11
-120.645
-120.129
-119.786
-120.071
-121.508
-124.287
-128.756
-133.999
-137.012
-135.984
-130.185
-119.298
-104.809
-84.647
-52.989
-5.556
61.022
144.934
239.313
339.525
441.623
542.145
637.294
717.874
774.183
800.489
795.608
765.363
716.808
653.599
577.411
487.632
384.608
272.206
155.777
40.912
-67.395
-165.423
-250.561
-320.825
-374.898
-412.8
-435.492
-444.084
-440.177
-425.837
-403.212
-374.821
-343.151
-309.778
-275.713
-242.276
-210.858
-182.608
-158.52
-138.736
-122.75
-110.46
-101.874
-96.436
-93.19
-90.884
-88.099
-84.238
-79.449
-73.766
-67.257
-60.161
-52.805
-45.876
-40.255
-36.287
-33.836
-32.624
-32.241
-32.387
-32.886
-33.401
-33.506
-32.916
-31.46
-29.119
-26
-22.174
-17.682
-12.588
-6.984
-1.004
5.186
11.421
17.56
23.511
29.224
34.656
39.77
44.533
48.911
52.913
56.566
59.89
62.904
65.625
68.07
70.292
72.367
74.372
76.399
78.521
80.784
83.24
85.921
88.844
92.046
95.547
99.32
103.349
107.63
112.147
116.928
122.009
127.355
132.912
138.765
145.017
151.573
158.416
165.542
172.66
180.456
189.592
199.056
208.516
216.125
219.675
221.529
223.248
227.173
236.54
248.407
260.279
270.433
276.05
279.083
281.509
283.744
286.983
290.486
293.309
295.602
297.229
298.232
298.785
298.754
298.037
296.661
294.636
291.955
288.629
284.676
280.117
274.985
269.325
263.152
256.485
249.358
241.803
233.856
225.555
216.936
208.039
198.906
189.581
180.106
170.526
160.884
151.22
141.579
132.001
122.527
113.195
104.042
95.105
86.416
78.007
69.905
62.138
54.727
47.694
41.055
34.826
29.017
23.637
18.691
14.183
10.113
6.477
3.269
0.481
-1.897
-3.879
-5.48
-6.718
-7.611
-8.181
-8.447
-8.434
-8.17
-7.68
-6.992
-6.134
-5.129
-4.005
-2.797
-1.527
-0.208
1.143
2.514
3.883
5.207
6.463
7.652
8.743
9.673
10.394
10.854
11.039
10.998
10.74
10.199
9.435
8.669
7.949
7.209
6.484
5.535
4.818
5.729
7.97
10.278
10.558
4.867
-6.521
-19.628
-30.487
-33.464
-28.217
-20.038
-13.011
-11.557
-16.413
-23.598
-30.668
-35.942
-38.914
-41.188
-43.483
-45.735
-47.989
-49.991
-51.672
-53.243
-54.761
-56.184
-57.512
-58.751
-59.887
-60.91
-61.797
-62.51
-63.038
-63.4
-63.602
-63.645
-63.534
-63.271
-62.863
-62.318
-61.646
-60.85
-59.937
-58.915
-57.793
-56.58
-55.286
-53.921
-52.496
-51.022
-49.509
-47.969
-46.413
-44.853
-43.301
-41.769
-40.27
-38.816
-37.419
-36.092
-34.848
-33.698
-32.654
-31.727
-30.928
-30.266
-29.751
-29.393
-29.2
-29.183
-29.35
-29.714
-30.284
-31.07
-32.082
-33.327
-34.814
-36.548
-38.532
-40.766
-43.249
-45.98
-48.958
-52.184
-55.653
-59.361
-63.3
-67.463
-71.84
-76.42
-81.185
-86.112
-91.181
-96.375
-101.686
-107.114
-112.658
-118.302
-124.031
-129.828
-135.667
-141.521
-147.347
-153.081
-158.659
-164.024
-169.125
-173.929
-178.389
-182.448
-186.038
-189.079
-191.501
-193.271
-194.362
-194.757
-194.47
-193.528
-191.987
-189.974
-187.639
-185.129
-182.611
-180.221
-178.077
-176.362
-175.332
-175.187
-176.02
-177.737
-180.024
-182.58
-185.177
-187.449
-188.865
-188.983
-187.586
-184.964
-181.999
-179.496
-178.104
-178.636
-181.828
-188.066
-196.516
-204.689
-209.599
-208.898
-202.767
-192.752
-177.797
-154.41
-115.262
-51.985
36.658
146.538
267.856
386.003
491.561
578.384
642.771
686.924
710.966
713.932
696.41
656.137
592.735
508.829
407.339
293.417
172.954
50.884
-68.105
-179.557
-279.611
-365.154
-434.009
-485.275
-519.472
-537.873
-541.958
-533.71
-515.526
-489.966
-459.701
-426.948
-393.089
-359.197
-326.512
-296.35
-269.682
-246.798
-227.335
-210.814
-197.058
-185.838
-176.546
-168.037
-159.069
-149.109
-138.279
-126.939
-115.392
-103.852
-92.611
-82.371
-74.04
-68.058
-64.424
-62.844
-62.866
-64.179
-66.545
-69.554
-72.661
-75.398
-77.431
-78.618
-78.981
-78.53
-77.249
-75.142
-72.243
-68.638
-64.447
-59.787
-54.745
-49.381
-43.752
-37.944
-32.076
-26.296
-20.724
-15.426
-10.429
-5.748
-1.394
2.621
6.307
9.712
12.901
15.932
18.853
21.697
24.498
27.309
30.194
33.223
36.449
39.906
43.615
47.593
51.857
56.417
61.271
66.399
71.781
77.4
83.243
89.298
95.546
101.96
108.511
115.167
121.899
128.677
135.469
142.241
148.958
155.586
162.093
168.449
174.62
180.571
186.267
191.672
196.753
201.476
205.81
209.723
213.186
216.174
218.663
220.633
222.064
222.941
223.251
222.983
222.132
220.692
218.664
216.049
212.853
209.085
204.759
199.888
194.49
188.586
182.199
175.356
168.085
160.416
152.381
144.014
135.352
126.43
117.287
107.96
98.487
88.909
79.262
69.586
59.92
50.299
40.76
31.339
22.068
12.982
4.111
-4.517
-12.874
-20.935
-28.676
-36.078
-43.121
-49.789
-56.069
-61.948
-67.419
-72.474
-77.11
-81.325
-85.121
-88.5
-91.467
-94.031
-96.2
-97.986
-99.401
-100.458
-101.174
-101.565
-101.647
-101.441
-100.964
-100.236
-99.279
-98.113
-96.758
-95.236
-93.568
-91.775
-89.878
-87.895
-85.848
-83.755
-81.634
-79.503
-77.379
-75.278
-73.215
-71.202
-69.254
-67.38
-65.591
-63.897
-62.304
-60.819
-59.449
-58.197
-57.068
-56.063
-55.185
-54.433
-53.809
-53.31
-52.935
-52.68
-52.543
-52.519
-52.604
-52.792
-53.077
-53.453
-53.913
-54.45
-55.055
-55.721
-56.44
-57.203
-58.001
-58.826
-59.668
-60.519
-61.37
-62.212
-63.036
-63.833
-64.596
-65.314
-65.981
-66.589
-67.128
-67.594
-67.977
-68.274
-68.476
-68.58
-68.579
-68.471
-68.249
-67.912
-67.456
-66.879
-66.178
-65.354
-64.407
-63.337
-62.146
-60.836
-59.41
-57.871
-56.225
-54.476
-52.629
-50.691
-48.668
-46.57
-44.405
-42.184
-39.915
-37.611
-35.283
-32.943
-30.603
-28.275
-25.972
-23.708
-21.495
-19.346
-17.276
-15.3
-13.434
-11.693
-10.094
-8.65
-7.378
-6.293
-5.411
-4.746
-4.309
-4.108
-4.149
-4.442
-4.995
-5.813
-6.9
-8.254
-9.875
-11.761
-13.913
-16.33
-19.004
-21.912
-25.032
-28.349
-31.855
-35.55
-39.428
-43.472
-47.659
-51.972
-56.396
-60.911
-65.482
-70.046
-74.533
-78.874
-83.021
-86.949
-90.646
-94.079
-97.19
-99.894
-102.106
-103.789
-104.934
-105.535
-105.571
-104.993
-103.831
-102.277
-100.653
-99.282
-98.345
-97.822
-97.628
-97.889
-98.788
-100.264
-101.928
-103.122
-103.305
-102.491
-101.038
-98.96
-96.024
-92.199
-87.859
-84.064
-82.107
-82.511
-85.173
-90.153
-97.528
-107.166
-118.503
-129.781
-138.408
-142.146
-138.793
-126.131
-102.461
-65.93
-15.863
46.821
121.317
205.678
298.139
396.525
494.893
586.3
662.572
717.227
749.383
760.863
755.785
734.963
694.996
630.862
537.653
419.269
286.199
152.777
33.778
-65.43
-146.475
-215.01
-277.432
-334.648
-383.992
-421.575
-444.446
-452.695
-447.889
-433.063
-411.956
-386.262
-356.539
-322.102
-280.525
-233.763
-187.758
-148.172
-121.44
-108.082
-102.452
-100.087
-96.122
-88.798
-80.492
-72.001
-64.046
-56.956
-49.374
-40.881
-31.815
-22.547
-14.164
-7.758
-3.659
-1.863
-2.147
-4.075
-7.299
-11.513
-16.223
-20.796
-24.777
-27.896
-30.045
-31.283
-31.645
-31.12
-29.736
-27.571
-24.727
-21.32
-17.441
-13.142
-8.48
-3.54
1.56
6.664
11.642
16.419
20.954
25.237
29.263
33.022
36.527
39.82
42.956
45.995
48.982
51.95
54.939
57.999
61.194
64.598
68.267
72.233
76.521
81.143
86.107
91.42
97.074
103.044
109.307
115.838
122.619
129.632
136.854
144.251
151.79
159.431
167.138
174.877
182.609
190.294
197.895
205.371
212.687
219.807
226.696
233.314
239.624
245.587
251.168
256.331
261.043
265.272
268.99
272.172
274.794
276.84
278.293
279.139
279.371
278.982
277.97
276.335
274.083
271.22
267.758
263.712
259.1
253.943
248.263
242.088
235.446
228.369
220.89
213.045
204.869
196.4
187.679
178.744
169.636
160.394
151.059
141.671
132.268
122.889
113.57
104.347
95.252
86.319
77.576
69.052
60.773
52.761
45.039
37.624
30.534
23.783
17.382
11.341
5.666
0.362
-4.569
-9.128
-13.319
-17.145
-20.615
-23.738
-26.524
-28.986
-31.139
-32.998
-34.58
-35.901
-36.981
-37.837
-38.49
-38.958
-39.26
-39.415
-39.442
-39.36
-39.185
-38.935
-38.627
-38.276
-37.897
-37.504
-37.111
-36.729
-36.369
-36.043
-35.758
-35.522
-35.343
-35.225
-35.172
-35.187
-35.272
-35.426
-35.65
-35.94
-36.294
-36.707
-37.175
-37.693
-38.254
-38.852
-39.479
-40.128
-40.792
-41.463
-42.134
-42.797
-43.446
-44.074
-44.674
-45.24
-45.766
-46.247
-46.677
-47.05
-47.363
-47.611
-47.79
-47.896
-47.927
-47.88
-47.754
-47.547
-47.259
-46.891
-46.443
-45.916
-45.314
-44.638
-43.892
-43.08
-42.206
-41.276
-40.295
-39.269
-38.203
-37.104
-35.977
-34.828
-33.663
-32.486
-31.302
-30.115
-28.931
-27.752
-26.585
-25.432
-24.298
-23.188
-22.104
-21.05
-20.031
-19.049
-18.108
-17.211
-16.36
-15.558
-14.808
-14.112
-13.473
-12.892
-12.372
-11.912
-11.516
-11.182
-10.911
-10.704
-10.56
-10.48
-10.464
-10.514
-10.632
-10.821
-11.086
-11.434
-11.87
-12.402
-13.035
-13.776
-14.631
-15.604
-16.698
-17.912
-19.25
-20.714
-22.307
-24.034
-25.892
-27.884
-30.007
-32.259
-34.639
-37.139
-39.746
-42.451
-45.247
-48.136
-51.129
-54.236
-57.455
-60.783
-64.214
-67.732
-71.322
-74.952
-78.568
-82.119
-85.554
-88.831
-91.922
-94.79
-97.386
-99.648
-101.502
-102.882
-103.753
-104.095
-103.892
-103.158
-101.922
-100.239
-98.235
-96.055
-93.834
-91.717
-89.825
-88.258
-87.185
-86.852
-87.446
-89.062
-91.65
-94.964
-98.736
-102.736
-106.574
-109.677
-111.571
-112.026
-111.167
-109.6
-108.142
-107.518
-108.585
-112.45
-119.014
-126.783
-134.159
-138.735
-140.087
-140.554
-139.774
-135.064
-120.031
-84.33
-21.911
67.591
178.497
299.506
418.668
525.129
611.432
672.904
708.523
721.142
712.913
686.533
643.232
581.564
502.443
408.248
302.891
192.666
82.945
-22.2
-119.391
-206.339
-281.215
-342.409
-389.203
-422.18
-442.58
-451.869
-451.435
-442.417
-426.178
-404.59
-379.459
-351.847
-322.57
-292.449
-262.586
-234.638
-209.745
-188.081
-169.539
-154.181
-141.919
-132.563
-125.415
-118.936
-112.117
-104.759
-96.871
-88.649
-80.324
-71.985
-64.107
-57.671
-53.211
-50.819
-50.374
-51.404
-53.519
-56.475
-59.816
-62.983
-65.584
-67.317
-68.057
-67.868
-66.771
-64.771
-61.931
-58.313
-54.018
-49.175
-43.884
-38.254
-32.394
-26.41
-20.443
-14.611
-8.989
-3.654
1.361
6.055
10.418
14.458
18.208
21.69
24.943
28.023
30.972
33.843
36.697
39.592
42.602
45.786
49.187
52.838
56.763
60.97
65.472
70.272
75.358
80.724
86.36
92.255
98.399
104.78
111.375
118.16
125.107
132.186
139.368
146.624
153.921
161.228
168.51
175.735
182.87
189.881
196.729
203.377
209.784
215.911
221.72
227.174
232.235
236.869
241.043
244.728
247.896
250.523
252.587
254.067
254.947
255.214
254.857
253.87
252.248
249.991
247.102
243.588
239.459
234.728
229.413
223.532
217.11
210.171
202.746
194.866
186.565
177.879
168.847
159.508
149.904
140.077
130.07
119.927
109.691
99.406
89.114
78.857
68.677
58.612
48.7
38.978
29.481
20.24
11.286
2.647
-5.652
-13.586
-21.135
-28.281
-35.009
-41.305
-47.161
-52.567
-57.522
-62.021
-66.068
-69.666
-72.82
-75.54
-77.838
-79.725
-81.218
-82.333
-83.089
-83.506
-83.606
-83.412
-82.945
-82.231
-81.293
-80.155
-78.843
-77.38
-75.79
-74.097
-72.323
-70.49
-68.621
-66.736
-64.855
-62.995
-61.176
-59.413
-57.721
-56.116
-54.608
-53.211
-51.933
-50.783
-49.769
-48.896
-48.169
-47.592
-47.165
-46.891
-46.768
-46.794
-46.966
-47.28
-47.731
-48.313
-49.02
-49.843
-50.777
-51.811
-52.938
-54.149
-55.434
-56.784
-58.188
-59.638
-61.124
-62.634
-64.159
-65.69
-67.215
-68.725
-70.21
-71.661
-73.066
-74.417
-75.703
-76.916
-78.046
-79.085
-80.025
-80.856
-81.574
-82.17
-82.641
-82.98
-83.183
-83.246
-83.167
-82.944
-82.574
-82.056
-81.39
-80.576
-79.614
-78.507
-77.258
-75.868
-74.343
-72.686
-70.902
-68.998
-66.98
-64.855
-62.631
-60.318
-57.925
-55.463
-52.944
-50.379
-47.782
-45.166
-42.544
-39.932
-37.344
-34.793
-32.293
-29.861
-27.509
-25.252
-23.104
-21.079
-19.193
-17.461
-15.9
-14.525
-13.349
-12.386
-11.65
-11.152
-10.901
-10.903
-11.161
-11.679
-12.462
-13.514
-14.837
-16.429
-18.289
-20.409
-22.785
-25.409
-28.267
-31.335
-34.596
-38.032
-41.633
-45.402
-49.332
-53.406
-57.607
-61.914
-66.299
-70.734
-75.173
-79.552
-83.812
-87.894
-91.756
-95.372
-98.698
-101.68
-104.254
-106.335
-107.867
-108.822
-109.172
-108.903
-108.028
-106.568
-104.587
-102.215
-99.56
-96.724
-93.809
-90.89
-88.078
-85.555
-83.543
-82.234
-81.737
-82.029
-82.944
-84.262
-85.667
-86.683
-86.724
-85.318
-82.185
-77.33
-71.383
-65.274
-60.027
-57.106
-56.874
-58.141
-60.192
-61.954
-64.435
-71.649
-83.574
-96.401
-100.712
-81.419
-30.353
52.492
158.797
272.195
380.965
479.16
564.806
640.074
703.697
751.517
779.642
784.105
764.453
723.344
662.517
584.019
489.659
379.655
259.038
136.337
19.41
-82.325
-165.196
-232.12
-285.391
-328.571
-363.178
-386.577
-397.868
-397.426
-386.453
-368.24
-345.653
-320.406
-293.492
-265.492
-237.086
-209.228
-183.26
-159.932
-139.135
-120.75
-104.878
-91.446
-80.339
-70.979
-62.026
-52.752
-43.231
-33.619
-24.178
-15.146
-6.543
1.228
7.245
11.025
12.507
11.838
9.493
5.831
1.004
-4.632
-10.556
-16.321
-21.502
-25.851
-29.355
-31.982
-33.7
-34.51
-34.407
-33.444
-31.734
-29.374
-26.458
-23.051
-19.183
-14.919
-10.354
-5.607
-0.838
3.851
8.416
12.818
17.042
21.076
24.905
28.554
32.087
35.561
39.023
42.51
46.036
49.633
53.348
57.232
61.345
65.724
70.387
75.345
80.61
86.179
92.05
98.203
104.6
111.21
118.005
124.958
132.046
139.237
146.494
153.78
161.057
168.287
175.434
182.459
189.323
195.989
202.421
208.585
214.451
219.986
225.157
229.933
234.282
238.175
241.586
244.491
246.867
248.693
249.955
250.64
250.739
250.246
249.158
247.474
245.199
242.339
238.904
234.905
230.359
225.283
219.7
213.631
207.103
200.143
192.782
185.051
176.983
168.614
159.978
151.113
142.057
132.848
123.523
114.123
104.683
95.241
85.835
76.499
67.268
58.175
49.25
40.523
32.02
23.767
15.788
8.102
0.728
-6.316
-13.018
-19.364
-25.345
-30.952
-36.182
-41.029
-45.494
-49.577
-53.28
-56.609
-59.571
-62.174
-64.427
-66.344
-67.937
-69.221
-70.212
-70.927
-71.383
-71.6
-71.596
-71.392
-71.006
-70.46
-69.772
-68.963
-68.052
-67.058
-66
-64.898
-63.767
-62.627
-61.493
-60.382
-59.309
-58.287
-57.331
-56.453
-55.666
-54.978
-54.402
-53.945
-53.615
-53.418
-53.361
-53.448
-53.682
-54.066
-54.599
-55.282
-56.113
-57.09
-58.21
-59.469
-60.862
-62.383
-64.025
-65.781
-67.645
-69.606
-71.655
-73.784
-75.98
-78.234
-80.533
-82.867
-85.224
-87.59
-89.953
-92.302
-94.622
-96.9
-99.124
-101.279
-103.353
-105.333
-107.206
-108.96
-110.583
-112.064
-113.393
-114.561
-115.559
-116.378
-117.013
-117.455
-117.7
-117.743
-117.58
-117.208
-116.625
-115.831
-114.825
-113.61
-112.188
-110.563
-108.74
-106.724
-104.523
-102.143
-99.593
-96.883
-94.024
-91.026
-87.903
-84.669
-81.338
-77.926
-74.448
-70.921
-67.362
-63.788
-60.215
-56.661
-53.144
-49.68
-46.286
-42.981
-39.783
-36.71
-33.782
-31.019
-28.44
-26.063
-23.906
-21.985
-20.315
-18.908
-17.772
-16.917
-16.349
-16.076
-16.106
-16.445
-17.094
-18.056
-19.33
-20.913
-22.802
-24.986
-27.447
-30.171
-33.145
-36.363
-39.831
-43.547
-47.499
-51.672
-56.05
-60.608
-65.319
-70.138
-75
-79.84
-84.597
-89.219
-93.671
-97.909
-101.869
-105.477
-108.653
-111.326
-113.461
-115.04
-116.034
-116.443
-116.296
-115.649
-114.628
-113.386
-112.041
-110.715
-109.531
-108.589
-108.066
-108.228
-109.245
-111.206
-114.069
-117.599
-121.584
-125.847
-130.007
-133.483
-135.784
-136.6
-136.015
-134.594
-132.962
-131.764
-131.749
-133.893
-138.216
-143.268
-147.481
-148.644
-146.529
-144.405
-143.262
-141.543
-134.108
-108.708
-55.603
29.25
146.108
283.441
425.059
555.765
658.394
725.464
758.678
763.459
750.491
726.034
689.978
639.96
571.964
485.766
385.161
275.45
162.808
51.68
-54.708
-153.155
-241.016
-315.981
-376.256
-421.103
-450.65
-465.29
-465.793
-453.613
-430.912
-400.269
-364.313
-325.53
-285.96
-247.622
-212.746
-182.974
-158.928
-140.462
-126.921
-117.415
-111.144
-107.089
-103.663
-99.384
-93.547
-86.103
-77.442
-68.135
-58.62
-49.34
-41.128
-34.917
-31.154
-29.854
-30.707
-33.189
-36.901
-41.541
-46.625
-51.559
-55.909
-59.36
-61.784
-63.23
-63.7
-63.174
-61.677
-59.259
-56.011
-52.068
-47.541
-42.513
-37.075
-31.312
-25.341
-19.321
-13.375
-7.597
-2.05
3.247
8.275
13.011
17.454
21.627
25.564
29.324
32.954
36.485
39.961
43.426
46.939
50.571
54.376
58.386
62.628
67.113
71.85
76.852
82.114
87.62
93.356
99.302
105.445
111.775
118.274
124.918
131.68
138.53
145.437
152.377
159.319
166.234
173.091
179.859
186.51
193.016
199.348
205.475
211.362
216.979
222.291
227.269
231.881
236.097
239.889
243.232
246.102
248.48
250.347
251.686
252.484
252.729
252.414
251.532
250.082
248.063
245.478
242.336
238.646
234.42
229.675
224.428
218.701
212.517
205.901
198.881
191.487
183.749
175.7
167.374
158.805
150.03
141.085
132.006
122.83
113.594
104.336
95.089
85.889
76.77
67.765
58.904
50.219
41.736
33.482
25.483
17.76
10.334
3.224
-3.555
-9.99
-16.069
-21.784
-27.128
-32.099
-36.694
-40.914
-44.761
-48.241
-51.36
-54.125
-56.548
-58.638
-60.41
-61.878
-63.057
-63.962
-64.613
-65.026
-65.22
-65.215
-65.029
-64.683
-64.194
-63.583
-62.869
-62.07
-61.205
-60.291
-59.345
-58.383
-57.42
-56.47
-55.546
-54.659
-53.82
-53.039
-52.324
-51.681
-51.116
-50.634
-50.239
-49.934
-49.72
-49.598
-49.568
-49.627
-49.774
-50.005
-50.317
-50.704
-51.16
-51.68
-52.258
-52.885
-53.555
-54.26
-54.992
-55.742
-56.503
-57.266
-58.021
-58.762
-59.479
-60.165
-60.812
-61.413
-61.961
-62.45
-62.875
-63.228
-63.505
-63.701
-63.811
-63.831
-63.758
-63.587
-63.317
-62.946
-62.471
-61.895
-61.215
-60.434
-59.552
-58.572
-57.495
-56.325
-55.064
-53.716
-52.284
-50.774
-49.189
-47.536
-45.821
-44.049
-42.226
-40.359
-38.454
-36.518
-34.558
-32.579
-30.588
-28.593
-26.602
-24.622
-22.663
-20.731
-18.836
-16.986
-15.189
-13.453
-11.785
-10.193
-8.683
-7.263
-5.94
-4.722
-3.616
-2.631
-1.775
-1.057
-0.487
-0.074
0.172
0.243
0.128
-0.181
-0.691
-1.406
-2.328
-3.461
-4.808
-6.368
-8.141
-10.12
-12.304
-14.689
-17.271
-20.043
-22.988
-26.083
-29.306
-32.642
-36.079
-39.62
-43.258
-46.979
-50.773
-54.635
-58.554
-62.517
-66.485
-70.391
-74.178
-77.8
-81.23
-84.477
-87.523
-90.324
-92.831
-94.964
-96.665
-97.924
-98.69
-98.878
-98.496
-97.604
-96.381
-95.185
-94.317
-93.962
-94.27
-95.301
-96.952
-99.061
-101.281
-103.007
-103.612
-102.534
-99.477
-94.46
-87.808
-80.042
-71.822
-64.08
-58.101
-55.315
-56.617
-62.61
-73.443
-88.487
-107.135
-127.64
-146.385
-160.576
-168.342
-168.667
-162.965
-149.323
-122.06
-76.213
-6.676
84.883
189.743
299.258
404.181
499.079
582.583
651.832
704.275
737.06
746.537
731.69
693.071
631.953
551.708
456.406
350.119
237.905
124.709
14.636
-88.202
-180.35
-259.611
-324.331
-373.648
-408.274
-429.537
-438.824
-438.025
-428.798
-412.585
-391.363
-366.987
-340.377
-312.199
-283.238
-254.276
-226.644
-201.676
-179.703
-160.61
-144.59
-131.741
-121.922
-114.682
-108.744
-102.688
-95.986
-88.652
-80.745
-72.405
-63.723
-54.897
-46.698
-40.052
-35.386
-32.719
-31.802
-32.287
-33.966
-36.66
-39.976
-43.38
-46.407
-48.743
-50.277
-51.027
-50.996
-50.162
-48.512
-46.093
-42.996
-39.331
-35.206
-30.668
-25.739
-20.462
-14.906
-9.181
-3.43
2.234
7.756
13.097
18.231
23.141
27.803
32.227
36.459
40.551
44.553
48.497
52.4
56.287
60.197
64.184
68.306
72.606
77.106
81.821
86.763
91.94
97.353
102.992
108.828
114.832
120.982
127.257
133.636
140.096
146.603
153.126
159.63
166.081
172.449
178.7
184.8
190.716
196.415
201.867
207.046
211.922
216.467
220.65
224.442
227.818
230.751
233.218
235.198
236.67
237.62
238.032
237.899
237.212
235.967
234.162
231.799
228.883
225.421
221.424
216.906
211.884
206.376
200.405
193.995
187.171
179.963
172.4
164.513
156.337
147.906
139.255
130.42
121.437
112.345
103.18
93.979
84.777
75.611
66.515
57.524
48.669
39.982
31.493
23.227
15.212
7.471
0.024
-7.109
-13.911
-20.369
-26.471
-32.206
-37.568
-42.551
-47.154
-51.377
-55.221
-58.69
-61.792
-64.534
-66.926
-68.981
-70.711
-72.132
-73.259
-74.108
-74.699
-75.049
-75.177
-75.104
-74.849
-74.432
-73.874
-73.195
-72.413
-71.55
-70.622
-69.648
-68.645
-67.63
-66.617
-65.621
-64.655
-63.73
-62.857
-62.046
-61.304
-60.637
-60.051
-59.551
-59.137
-58.813
-58.578
-58.432
-58.374
-58.4
-58.508
-58.693
-58.952
-59.279
-59.668
-60.112
-60.607
-61.145
-61.719
-62.323
-62.95
-63.592
-64.243
-64.897
-65.547
-66.187
-66.811
-67.414
-67.992
-68.54
-69.055
-69.533
-69.973
-70.372
-70.729
-71.044
-71.316
-71.546
-71.733
-71.878
-71.983
-72.049
-72.077
-72.069
-72.026
-71.95
-71.841
-71.702
-71.533
-71.334
-71.107
-70.851
-70.568
-70.257
-69.918
-69.551
-69.157
-68.735
-68.283
-67.802
-67.289
-66.743
-66.161
-65.541
-64.88
-64.176
-63.427
-62.63
-61.782
-60.88
-59.923
-58.908
-57.833
-56.697
-55.497
-54.233
-52.906
-51.515
-50.064
-48.554
-46.989
-45.373
-43.71
-42.007
-40.269
-38.502
-36.713
-34.91
-33.101
-31.294
-29.5
-27.73
-25.997
-24.316
-22.701
-21.164
-19.723
-18.394
-17.193
-16.136
-15.238
-14.508
-13.958
-13.601
-13.448
-13.512
-13.801
-14.317
-15.066
-16.052
-17.282
-18.76
-20.483
-22.435
-24.602
-26.974
-29.551
-32.34
-35.342
-38.546
-41.938
-45.507
-49.244
-53.135
-57.15
-61.231
-65.314
-69.333
-73.243
-77.02
-80.65
-84.1
-87.31
-90.193
-92.663
-94.677
-96.225
-97.299
-97.882
-97.926
-97.457
-96.659
-95.851
-95.35
-95.339
-95.8
-96.638
-97.975
-100.001
-102.667
-105.599
-108.133
-109.704
-110.323
-110.372
-109.875
-108.601
-106.501
-103.935
-102.032
-102.15
-104.719
-109.536
-116.652
-126.182
-138.132
-151.379
-162.96
-169.599
-169.227
-162.41
-150.997
-134.596
-110.42
-72.095
-12.472
69.388
170.325
282.117
391.825
491.327
574.647
637.773
682.964
710.376
719.029
709.667
679.741
628.161
557.006
468.522
367.084
258.182
146.513
36.409
-68.002
-163.089
-245.965
-314.258
-366.537
-403.089
-425.119
-434.083
-431.924
-420.581
-401.938
-378.305
-351.866
-323.869
-295.066
-266.06
-237.442
-210.141
-185.015
-162.422
-142.344
-124.893
-110.278
-98.665
-89.876
-83.178
-77.717
-72.765
-68.023
-63.439
-58.879
-54.21
-49.503
-45.109
-41.562
-39.455
-38.976
-39.949
-42.209
-45.54
-49.692
-54.383
-59.132
-63.36
-66.724
-69.091
-70.422
-70.775
-70.166
-68.57
-66.064
-62.786
-58.867
-54.433
-49.544
-44.23
-38.561
-32.651
-26.649
-20.693
-14.861
-9.187
-3.692
1.61
6.705
11.593
16.313
20.923
25.471
29.998
34.53
39.093
43.731
48.499
53.46
58.663
64.136
69.894
75.948
82.304
88.964
95.918
103.139
110.599
118.274
126.144
134.189
142.384
150.697
159.091
167.532
175.983
184.411
192.778
201.048
209.183
217.147
224.904
232.423
239.668
246.603
253.19
259.394
265.179
270.513
275.362
279.696
283.488
286.714
289.351
291.383
292.794
293.573
293.709
293.199
292.04
290.234
287.786
284.705
281.001
276.692
271.795
266.332
260.326
253.805
246.798
239.335
231.452
223.182
214.563
205.633
196.432
187.001
177.381
167.612
157.737
147.797
137.832
127.882
117.986
108.18
98.5
88.979
79.65
70.54
61.679
53.09
44.795
36.815
29.167
21.865
14.921
8.345
2.143
-3.68
-9.122
-14.185
-18.869
-23.181
-27.128
-30.717
-33.959
-36.868
-39.455
-41.738
-43.731
-45.452
-46.92
-48.152
-49.168
-49.986
-50.626
-51.108
-51.448
-51.667
-51.781
-51.808
-51.764
-51.664
-51.523
-51.354
-51.169
-50.979
-50.793
-50.621
-50.47
-50.345
-50.252
-50.194
-50.175
-50.195
-50.257
-50.36
-50.503
-50.684
-50.901
-51.15
-51.427
-51.73
-52.052
-52.39
-52.738
-53.092
-53.445
-53.794
-54.133
-54.458
-54.763
-55.045
-55.299
-55.521
-55.708
-55.858
-55.967
-56.033
-56.055
-56.032
-55.964
-55.85
-55.69
-55.487
-55.241
-54.953
-54.626
-54.26
-53.86
-53.427
-52.963
-52.472
-51.955
-51.416
-50.857
-50.28
-49.688
-49.08
-48.46
-47.828
-47.185
-46.533
-45.871
-45.201
-44.522
-43.836
-43.142
-42.442
-41.734
-41.018
-40.294
-39.561
-38.819
-38.065
-37.299
-36.517
-35.72
-34.905
-34.07
-33.215
-32.337
-31.435
-30.508
-29.556
-28.577
-27.572
-26.541
-25.485
-24.406
-23.307
-22.19
-21.06
-19.921
-18.776
-17.633
-16.496
-15.372
-14.266
-13.183
-12.131
-11.116
-10.145
-9.226
-8.366
-7.577
-6.868
-6.252
-5.741
-5.347
-5.082
-4.957
-4.983
-5.169
-5.521
-6.045
-6.747
-7.635
-8.714
-9.989
-11.462
-13.134
-15.002
-17.064
-19.316
-21.749
-24.347
-27.097
-29.994
-33.035
-36.23
-39.58
-43.076
-46.708
-50.465
-54.328
-58.278
-62.28
-66.273
-70.207
-74.032
-77.707
-81.205
-84.483
-87.473
-90.103
-92.294
-93.987
-95.158
-95.784
-95.841
-95.332
-94.275
-92.734
-90.838
-88.708
-86.457
-84.185
-81.97
-79.977
-78.44
-77.557
-77.512
-78.317
-79.763
-81.739
-84.137
-86.488
-88.327
-89.344
-88.941
-87.714
-86.917
-86.465
-87.028
-88.063
-87.714
-87.322
-87.936
-91.431
-101.443
-116.701
-133.546
-145.505
-142.449
-118.138
-69.586
1.07
86.524
180.754
276.593
369.587
457.156
533.602
597.944
649.452
687.319
715.144
729.358
723.128
691.726
628.712
536.785
426.48
306.881
188.495
77.239
-27.115
-123.141
-209.364
-283.883
-343.015
-385.332
-411.844
-424.304
-425.273
-417.162
-401.668
-380.548
-355.692
-328.545
-299.824
-269.863
-238.809
-206.948
-175.235
-144.696
-116.178
-90.652
-68.993
-51.846
-39.743
-32.765
-30.207
-31.135
-34.471
-38.894
-43.466
-47.584
-50.712
-52.689
-53.753
-54.185
-54.439
-55.123
-56.468
-58.445
-60.996
-63.856
-66.681
-69.219
-71.127
-72.025
-71.769
-70.336
-67.767
-64.223
-59.852
-54.767
-49.152
-43.2
-37.066
-30.909
-24.831
-18.887
-13.154
-7.686
-2.51
2.349
6.898
11.164
15.167
18.94
22.525
25.958
29.286
32.564
35.843
39.188
42.646
46.25
50.027
53.996
58.168
62.55
67.142
71.93
76.902
82.051
87.363
92.831
98.442
104.178
110.019
115.942
121.924
127.944
133.98
140.011
146.012
151.96
157.833
163.609
169.266
174.778
180.116
185.253
190.161
194.813
199.182
203.241
206.964
210.329
213.313
215.898
218.066
219.8
221.086
221.913
222.269
222.146
221.54
220.446
218.863
216.791
214.236
211.203
207.7
203.74
199.334
194.498
189.249
183.607
177.593
171.23
164.542
157.555
150.298
142.799
135.089
127.197
119.155
110.994
102.746
94.442
86.112
77.787
69.495
61.266
53.127
45.104
37.223
29.509
21.985
14.671
7.588
0.755
-5.812
-12.098
-18.09
-23.776
-29.148
-34.197
-38.917
-43.306
-47.359
-51.078
-54.463
-57.518
-60.248
-62.659
-64.759
-66.558
-68.066
-69.295
-70.257
-70.967
-71.437
-71.683
-71.721
-71.565
-71.231
-70.737
-70.098
-69.33
-68.45
-67.475
-66.419
-65.298
-64.129
-62.924
-61.698
-60.465
-59.238
-58.029
-56.85
-55.711
-54.622
-53.593
-52.631
-51.744
-50.938
-50.219
-49.591
-49.058
-48.622
-48.287
-48.054
-47.923
-47.895
-47.969
-48.145
-48.42
-48.793
-49.26
-49.82
-50.467
-51.199
-52.009
-52.895
-53.849
-54.868
-55.943
-57.071
-58.243
-59.453
-60.694
-61.957
-63.237
-64.525
-65.814
-67.096
-68.363
-69.608
-70.824
-72.003
-73.138
-74.221
-75.245
-76.204
-77.089
-77.895
-78.615
-79.242
-79.77
-80.194
-80.506
-80.703
-80.779
-80.73
-80.55
-80.238
-79.79
-79.204
-78.479
-77.614
-76.609
-75.465
-74.183
-72.766
-71.218
-69.54
-67.736
-65.813
-63.773
-61.625
-59.373
-57.026
-54.59
-52.073
-49.485
-46.833
-44.127
-41.376
-38.591
-35.783
-32.961
-30.138
-27.327
-24.538
-21.783
-19.074
-16.424
-13.844
-11.345
-8.938
-6.633
-4.442
-2.374
-0.439
1.353
2.993
4.473
5.781
6.908
7.842
8.572
9.089
9.38
9.438
9.255
8.828
8.155
7.236
6.072
4.663
3.015
1.131
-0.987
-3.334
-5.9
-8.673
-11.636
-14.759
-18.02
-21.398
-24.882
-28.471
-32.161
-35.944
-39.817
-43.778
-47.818
-51.918
-56.037
-60.115
-64.1
-67.958
-71.676
-75.25
-78.659
-81.85
-84.76
-87.299
-89.404
-91.023
-92.068
-92.511
-92.399
-91.856
-91.138
-90.547
-90.295
-90.524
-91.347
-92.607
-94.021
-95.328
-96.049
-95.784
-94.271
-91.251
-86.692
-81.105
-75.189
-69.522
-64.88
-61.86
-61.096
-63.506
-69.516
-78.996
-91.642
-107.025
-124.548
-142.674
-158.495
-169.089
-172.58
-169.845
-163.546
-153.496
-136.071
-103.761
-47.615
35.279
141.415
262.255
384.631
497.316
593.291
667.103
718.366
749.766
761.783
755.913
732.19
687.657
623.014
541.677
446.636
342.627
233.265
118.928
4.003
-104.192
-199.185
-273.271
-324.74
-358.551
-379.673
-393.778
-403.105
-405.373
-399.424
-384.925
-363.139
-337.245
-308.818
-278.359
-246.563
-214.336
-183.394
-155.606
-132.005
-112.051
-95.414
-83.237
-75.601
-73.56
-77.531
-83.325
-88.481
-90.387
-85.715
-77.279
-67.502
-58.253
-53.104
-51.184
-51.021
-52.229
-53.361
-54.675
-56.788
-59.298
-61.89
-64.005
-65.094
-65.088
-64.093
-62.2
-59.492
-56.04
-51.91
-47.204
-42.073
-36.655
-31.085
-25.505
-20.004
-14.646
-9.496
-4.602
-0.019
4.22
8.127
11.728
15.047
18.105
20.916
23.499
25.911
28.217
30.488
32.802
35.21
37.755
40.478
43.413
46.586
50.017
53.708
57.654
61.853
66.311
71.029
76.01
81.244
86.719
92.418
98.324
104.415
110.674
117.075
123.594
130.209
136.893
143.624
150.377
157.123
163.831
170.467
176.996
183.381
189.586
195.574
201.307
206.748
211.863
216.618
220.98
224.921
228.41
231.422
233.932
235.919
237.364
238.249
238.562
238.293
237.435
235.983
233.938
231.301
228.08
224.284
219.923
215.015
209.576
203.627
197.193
190.3
182.978
175.258
167.173
158.759
150.054
141.097
131.927
122.585
113.111
103.548
93.934
84.312
74.72
65.197
55.781
46.508
37.413
28.529
19.886
11.513
3.438
-4.316
-11.728
-18.777
-25.447
-31.724
-37.598
-43.058
-48.099
-52.719
-56.916
-60.692
-64.053
-67.006
-69.561
-71.729
-73.525
-74.965
-76.067
-76.85
-77.335
-77.545
-77.501
-77.228
-76.75
-76.091
-75.277
-74.331
-73.278
-72.141
-70.944
-69.71
-68.459
-67.214
-65.991
-64.812
-63.691
-62.645
-61.688
-60.832
-60.089
-59.467
-58.976
-58.621
-58.406
-58.335
-58.409
-58.629
-58.991
-59.494
-60.132
-60.901
-61.794
-62.802
-63.918
-65.132
-66.435
-67.816
-69.264
-70.768
-72.318
-73.901
-75.507
-77.125
-78.743
-80.352
-81.94
-83.499
-85.018
-86.488
-87.903
-89.252
-90.531
-91.731
-92.848
-93.876
-94.809
-95.645
-96.38
-97.011
-97.537
-97.957
-98.269
-98.473
-98.571
-98.562
-98.449
-98.231
-97.911
-97.49
-96.971
-96.356
-95.647
-94.845
-93.954
-92.975
-91.912
-90.767
-89.541
-88.237
-86.857
-85.402
-83.875
-82.276
-80.608
-78.872
-77.068
-75.201
-73.271
-71.28
-69.229
-67.122
-64.96
-62.745
-60.48
-58.166
-55.807
-53.406
-50.965
-48.489
-45.983
-43.451
-40.898
-38.33
-35.753
-33.173
-30.598
-28.035
-25.492
-22.976
-20.497
-18.065
-15.689
-13.38
-11.152
-9.018
-6.992
-5.088
-3.321
-1.705
-0.255
1.017
2.099
2.98
3.654
4.11
4.34
4.332
4.078
3.57
2.802
1.771
0.475
-1.09
-2.923
-5.012
-7.349
-9.928
-12.747
-15.818
-19.144
-22.717
-26.527
-30.557
-34.783
-39.179
-43.707
-48.304
-52.91
-57.471
-61.935
-66.275
-70.453
-74.415
-78.098
-81.425
-84.325
-86.768
-88.733
-90.201
-91.18
-91.7
-91.827
-91.679
-91.378
-91.034
-90.758
-90.652
-90.836
-91.438
-92.623
-94.603
-97.51
-101.352
-106.001
-111.145
-116.429
-121.519
-125.952
-129.125
-130.62
-130.257
-128.282
-125.525
-122.791
-120.707
-119.946
-121.007
-124.099
-129.098
-134.909
-139.331
-140.055
-134.687
-120.844
-96.674
-60.374
-10.635
52.214
126.624
210.366
299.943
391.556
480.7
561.061
627.883
678.202
710.485
726.073
724.175
701.646
655.588
582.107
481.479
359.199
223.159
85.444
-41.708
-150.117
-235.137
-298.178
-345.622
-382.467
-411.648
-433.433
-444.467
-443.015
-430.127
-407.905
-379.919
-349.059
-316.357
-282.48
-248.552
-216.034
-186.474
-161.236
-140.793
-124.987
-113.89
-107.449
-104.904
-105.02
-106.239
-106.947
-106.385
-104.466
-101.114
-96.425
-90.738
-84.586
-78.838
-74.439
-71.777
-70.776
-71.169
-72.549
-74.581
-76.977
-79.318
-81.134
-82.102
-82.079
-81.072
-79.185
-76.501
-73.069
-68.953
-64.255
-59.112
-53.666
-48.063
-42.433
-36.858
-31.402
-26.125
-21.072
-16.297
-11.827
-7.651
-3.745
-0.09
3.333
6.535
9.533
12.381
15.14
17.877
20.666
23.557
26.59
29.802
33.224
36.877
40.779
44.928
49.315
53.937
58.793
63.883
69.207
74.752
80.501
86.437
92.537
98.779
105.141
111.595
118.116
124.677
131.252
137.816
144.343
150.805
157.169
163.403
169.472
175.341
180.976
186.342
191.404
196.128
200.484
204.442
207.974
211.055
213.662
215.772
217.368
218.432
218.952
218.916
218.317
217.15
215.413
213.108
210.24
206.817
202.849
198.352
193.341
187.836
181.859
175.435
168.59
161.353
153.756
145.832
137.615
129.141
120.447
111.57
102.549
93.422
84.225
74.997
65.774
56.592
47.485
38.487
29.629
20.942
12.455
4.193
-3.818
-11.557
-19.003
-26.14
-32.95
-39.423
-45.547
-51.315
-56.721
-61.762
-66.437
-70.749
-74.7
-78.298
-81.55
-84.466
-87.059
-89.339
-91.324
-93.026
-94.464
-95.655
-96.615
-97.364
-97.92
-98.301
-98.526
-98.614
-98.581
-98.446
-98.225
-97.934
-97.588
-97.203
-96.79
-96.362
-95.931
-95.506
-95.097
-94.711
-94.354
-94.032
-93.749
-93.507
-93.309
-93.155
-93.044
-92.977
-92.951
-92.964
-93.013
-93.094
-93.204
-93.34
-93.496
-93.67
-93.857
-94.053
-94.255
-94.459
-94.662
-94.862
-95.055
-95.239
-95.414
-95.576
-95.726
-95.861
-95.983
-96.091
-96.184
-96.265
-96.333
-96.391
-96.439
-96.481
-96.517
-96.549
-96.58
-96.612
-96.646
-96.684
-96.727
-96.777
-96.833
-96.896
-96.964
-97.038
-97.114
-97.19
-97.263
-97.329
-97.384
-97.422
-97.438
-97.427
-97.384
-97.302
-97.174
-96.996
-96.759
-96.459
-96.088
-95.641
-95.11
-94.49
-93.775
-92.959
-92.039
-91.009
-89.866
-88.608
-87.232
-85.737
-84.122
-82.389
-80.538
-78.573
-76.497
-74.316
-72.037
-69.669
-67.221
-64.703
-62.128
-59.508
-56.857
-54.19
-51.521
-48.864
-46.236
-43.653
-41.132
-38.69
-36.344
-34.115
-32.023
-30.089
-28.332
-26.772
-25.427
-24.315
-23.451
-22.847
-22.514
-22.459
-22.692
-23.22
-24.05
-25.186
-26.629
-28.378
-30.429
-32.775
-35.408
-38.312
-41.465
-44.852
-48.459
-52.278
-56.311
-60.552
-64.983
-69.587
-74.342
-79.216
-84.177
-89.173
-94.133
-98.99
-103.682
-108.155
-112.368
-116.267
-119.784
-122.846
-125.368
-127.287
-128.572
-129.199
-129.149
-128.433
-127.064
-125.111
-122.725
-120.056
-117.259
-114.485
-111.84
-109.486
-107.673
-106.596
-106.366
-106.912
-107.96
-109.235
-110.517
-111.469
-111.644
-110.652
-108.243
-104.721
-100.906
-97.495
-95.291
-95.169
-97.656
-103.236
-111.311
-119.348
-125.247
-127.483
-125.113
-118.974
-106.421
-81.635
-39.458
25.187
110.66
209.078
312.523
412.236
503.02
583.312
650.164
700.883
732.549
741.616
726.795
689.083
630.233
552.567
459.74
354.182
239.005
121.318
6.748
-98.316
-187.357
-260.711
-318.925
-362.746
-395.496
-416.807
-426.407
-425.957
-416.178
-399.271
-378.036
-354.101
-328.404
-301.395
-273.46
-245.189
-217.676
-192.01
-168.453
-146.972
-127.87
-111.407
-97.681
-86.546
-77.068
-68.143
-59.4
-50.838
-42.438
-34.229
-26.168
-18.317
-11.279
-5.826
-2.273
-0.566
-0.446
-1.575
-3.74
-6.739
-10.149
-13.374
-15.95
-17.617
-18.299
-18.047
-16.882
-14.781
-11.756
-7.905
-3.358
1.743
7.28
13.203
19.455
25.945
32.548
39.099
45.459
51.553
57.342
62.807
67.931
72.697
77.108
81.206
85.046
88.684
92.164
95.514
98.768
101.976
105.201
108.517
111.982
115.629
119.484
123.566
127.893
132.477
137.321
142.408
147.723
153.255
158.995
164.938
171.072
177.375
183.826
190.398
197.069
203.816
210.613
217.433
224.248
231.031
237.755
244.396
250.926
257.313
263.527
269.534
275.303
280.804
286.003
290.87
295.376
299.493
303.195
306.46
309.264
311.589
313.416
314.73
315.518
315.77
315.479
314.639
313.249
311.311
308.829
305.81
302.264
298.203
293.643
288.602
283.101
277.162
270.81
264.072
256.978
249.559
241.847
233.875
225.679
217.292
208.752
200.095
191.357
182.575
173.784
165.02
156.318
147.712
139.235
130.918
122.792
114.885
107.225
99.837
92.745
85.969
79.528
73.44
67.719
62.377
57.425
52.87
48.717
44.97
41.628
38.69
36.152
34.008
32.251
30.87
29.854
29.191
28.866
28.863
29.165
29.755
30.614
31.722
33.059
34.604
36.335
38.232
40.273
42.436
44.701
47.046
49.451
51.896
54.362
56.831
59.284
61.704
64.077
66.386
68.619
70.763
72.808
74.743
76.56
78.252
79.814
81.24
82.527
83.674
84.678
85.54
86.262
86.846
87.296
87.615
87.811
87.889
87.858
87.724
87.497
87.187
86.803
86.356
85.856
85.316
84.746
84.159
83.567
82.983
82.417
81.884
81.394
80.958
80.589
80.297
80.092
79.985
79.984
80.098
80.336
80.705
81.212
81.863
82.663
83.616
84.725
85.992
87.418
89.004
90.748
92.65
94.707
96.915
99.272
101.773
104.414
107.187
110.086
113.105
116.234
119.466
122.791
126.199
129.682
133.229
136.829
140.474
144.151
147.851
151.563
155.275
158.976
162.655
166.302
169.906
173.457
176.944
180.36
183.696
186.944
190.096
193.144
196.081
198.901
201.595
204.156
206.571
208.833
210.932
212.86
214.609
216.17
217.533
218.691
219.639
220.372
220.885
221.173
221.228
221.043
220.615
219.943
219.029
217.872
216.472
214.828
212.948
210.837
208.504
205.952
203.168
200.145
196.879
193.372
189.636
185.685
181.532
177.199
172.725
168.151
163.526
158.895
154.294
149.755
145.308
140.985
136.835
132.913
129.276
125.973
123.023
120.415
118.101
116.03
114.167
112.411
110.55
108.278
105.271
101.329
96.477
90.719
83.854
75.785
66.685
57.157
48.16
40.377
33.899
28.655
24.878
22.729
22.009
21.655
19.729
14.607
5.631
-7.125
-23.486
-43.054
-64.854
-86.606
-104.587
-114.889
-114.293
-100.641
-72.352
-28.246
31.971
106.99
193.689
287.689
384.082
478.34
565.978
642.326
703.122
745.009
765.741
764.531
741.817
698.365
635.734
556.41
463.434
360.386
251.235
139.824
29.657
-75.716
-173.142
-259.932
-333.904
-393.7
-438.751
-469.379
-486.399
-490.937
-484.518
-468.988
-446.314
-418.576
-387.869
-355.696
-323.402
-292.611
-264.62
-240.526
-221.325
-207.3
-198.231
-194.028
-194.319
-198.109
-204.386
-211.973
-219.512
-226.368
-232.374
-237.277
-241.077
-244.091
-246.655
-249.347
-252.905
-257.504
-262.972
-269.17
-275.816
-282.636
-289.414
-295.723
-301.07
-305.228
-308.135
-309.823
-310.442
-310.073
-308.763
-306.671
-303.987
-300.905
-297.626
-294.25
-290.815
-287.368
-283.957
-280.638
-277.465
-274.442
-271.539
-268.735
-266.009
-263.35
-260.745
-258.145
-255.487
-252.705
-249.722
-246.49
-242.979
-239.155
-234.995
-230.482
-225.598
-220.348
-214.747
-208.805
-202.529
-195.923
-188.992
-181.753
-174.229
-166.443
-158.42
-150.187
-141.772
-133.203
-124.514
-115.733
-106.891
-98.02
-89.147
-80.308
-71.537
-62.873
-54.353
-46.017
-37.904
-30.054
-22.505
-15.295
-8.461
-2.035
3.951
9.466
14.483
18.976
22.923
26.301
29.094
31.286
32.865
33.821
34.148
33.845
32.91
31.35
29.171
26.384
23.004
19.047
14.533
9.486
3.93
-2.105
-8.59
-15.492
-22.775
-30.404
-38.34
-46.544
-54.975
-63.594
-72.36
-81.232
-90.17
-99.135
-108.087
-116.988
-125.801
-134.49
-143.02
-151.358
-159.473
-167.334
-174.914
-182.188
-189.132
-195.726
-201.951
-207.791
-213.233
-218.266
-222.882
-227.075
-230.842
-234.183
-237.099
-239.594
-241.675
-243.35
-244.629
-245.525
-246.051
-246.221
-246.053
-245.562
-244.768
-243.689
-242.345
-240.756
-238.942
-236.924
-234.723
-232.36
-229.856
-227.232
-224.507
-221.702
-218.835
-215.926
-212.993
-210.052
-207.12
-204.212
-201.342
-198.524
-195.77
-193.089
-190.493
-187.989
-185.584
-183.286
-181.1
-179.031
-177.08
-175.253
-173.55
-171.972
-170.521
-169.195
-167.994
-166.915
-165.957
-165.118
-164.392
-163.777
-163.269
-162.862
-162.551
-162.331
-162.196
-162.138
-162.151
-162.228
-162.36
-162.541
-162.762
-163.014
-163.29
-163.582
-163.88
-164.177
-164.465
-164.733
-164.973
-165.177
-165.335
-165.44
-165.482
-165.452
-165.344
-165.148
-164.857
-164.465
-163.963
-163.346
-162.606
-161.738
-160.736
-159.594
-158.309
-156.876
-155.292
-153.555
-151.665
-149.62
-147.422
-145.071
-142.57
-139.921
-137.13
-134.2
-131.137
-127.949
-124.642
-121.227
-117.714
-114.114
-110.437
-106.697
-102.907
-99.081
-95.232
-91.376
-87.526
-83.699
-79.91
-76.176
-72.513
-68.939
-65.472
-62.132
-58.939
-55.912
-53.07
-50.432
-48.014
-45.833
-43.905
-42.24
-40.849
-39.742
-38.929
-38.42
-38.224
-38.345
-38.788
-39.553
-40.639
-42.046
-43.768
-45.79
-48.099
-50.683
-53.538
-56.666
-60.067
-63.726
-67.627
-71.748
-76.06
-80.532
-85.118
-89.751
-94.367
-98.903
-103.304
-107.537
-111.556
-115.302
-118.709
-121.693
-124.184
-126.146
-127.554
-128.389
-128.657
-128.391
-127.657
-126.572
-125.262
-123.843
-122.421
-121.095
-119.967
-119.139
-118.768
-119.069
-120.169
-122.078
-124.694
-127.759
-131.016
-134.249
-137.043
-138.792
-139.06
-137.642
-134.683
-130.773
-126.452
-122.126
-118.398
-116.064
-114.933
-113.71
-110.924
-104.354
-94.383
-84.558
-75.577
-66.25
-50.873
-17.031
42.307
128.198
236.826
353.05
462.634
556.297
625.061
670.593
699.265
714.39
721.581
719.297
699.306
656.926
587.997
494.91
387.923
275.798
166.796
65.69
-27.715
-112.748
-188.491
-253.638
-305.672
-343.739
-368.487
-381.034
-383.071
-375.91
-360.68
-338.803
-311.85
-281.466
-248.889
-215.044
-181.156
-148.816
-119.597
-94.862
-75.238
-60.643
-51.007
-46.157
-45.344
-47.35
-50.671
-53.755
-55.77
-56.518
-55.839
-53.688
-50.252
-45.926
-41.365
-37.332
-34.156
-31.767
-30.045
-28.815
-27.911
-27.172
-26.289
-24.845
-22.585
-19.454
-15.486
-10.799
-5.512
0.298
6.477
12.8
19.078
25.175
31.017
36.603
41.941
47.016
51.825
56.369
60.641
64.658
68.434
71.971
75.292
78.43
81.435
84.387
87.364
90.424
93.611
96.959
100.486
104.215
108.158
112.318
116.699
121.305
126.14
131.213
136.528
142.082
147.865
153.862
160.051
166.413
172.928
179.569
186.315
193.137
200.011
206.913
213.817
220.693
227.509
234.231
240.823
247.251
253.476
259.464
265.176
270.578
275.637
280.319
284.595
288.434
291.809
294.694
297.068
298.909
300.199
300.923
301.069
300.629
299.597
297.971
295.752
292.945
289.558
285.603
281.095
276.051
270.493
264.443
257.927
250.972
243.609
235.87
227.787
219.397
210.735
201.84
192.749
183.502
174.137
164.692
155.206
145.718
136.264
126.88
117.602
108.463
99.496
90.73
82.195
73.917
65.919
58.224
50.85
43.815
37.132
30.812
24.865
19.297
14.112
9.31
4.892
0.853
-2.812
-6.11
-9.051
-11.644
-13.903
-15.841
-17.474
-18.817
-19.889
-20.706
-21.288
-21.654
-21.824
-21.818
-21.655
-21.356
-20.94
-20.426
-19.833
-19.178
-18.478
-17.75
-17.007
-16.265
-15.535
-14.828
-14.155
-13.524
-12.943
-12.416
-11.948
-11.543
-11.203
-10.929
-10.722
-10.579
-10.501
-10.484
-10.527
-10.625
-10.774
-10.971
-11.209
-11.485
-11.792
-12.126
-12.48
-12.849
-13.228
-13.611
-13.992
-14.367
-14.731
-15.079
-15.407
-15.713
-15.992
-16.244
-16.465
-16.654
-16.812
-16.938
-17.032
-17.095
-17.128
-17.133
-17.111
-17.065
-16.995
-16.905
-16.794
-16.666
-16.521
-16.361
-16.185
-15.996
-15.793
-15.575
-15.344
-15.099
-14.839
-14.563
-14.271
-13.961
-13.631
-13.281
-12.907
-12.507
-12.079
-11.617
-11.121
-10.587
-10.011
-9.389
-8.719
-7.997
-7.22
-6.384
-5.488
-4.529
-3.504
-2.412
-1.255
-0.031
1.256
2.604
4.009
5.467
6.972
8.517
10.096
11.701
13.325
14.957
16.589
18.209
19.804
21.363
22.869
24.305
25.653
26.899
28.024
29.011
29.841
30.497
30.961
31.22
31.262
31.071
30.635
29.939
28.974
27.739
26.23
24.446
22.385
20.045
17.432
14.562
11.451
8.112
4.553
0.772
-3.225
-7.419
-11.794
-16.33
-21.009
-25.813
-30.709
-35.636
-40.532
-45.333
-49.984
-54.459
-58.722
-62.738
-66.464
-69.819
-72.746
-75.21
-77.154
-78.562
-79.421
-79.664
-79.351
-78.67
-77.843
-77.233
-77.16
-77.673
-78.87
-80.915
-83.672
-86.943
-90.293
-92.731
-93.484
-92.311
-88.967
-83.386
-76.004
-67.233
-57.999
-50.169
-45.359
-44.741
-49.311
-59.395
-73.929
-91.04
-108.442
-123.377
-135.3
-144.52
-149.021
-144.719
-123.52
-77.846
-5.947
89.037
197.403
309.598
419.941
522.242
613.665
689.753
743.723
774.456
780.713
763.109
725.337
667.22
590.109
497.558
392.425
280.268
166.811
55.898
-48.554
-143.549
-227.202
-297.732
-353.992
-395.938
-424.223
-439.945
-444.542
-439.217
-425.217
-404.119
-377.644
-347.526
-315.097
-281.299
-247.265
-214.473
-184.287
-157.803
-135.502
-117.238
-102.939
-92.567
-85.57
-80.929
-77.443
-73.891
-69.688
-64.851
-59.37
-53.256
-46.738
-40.224
-34.345
-29.81
-26.839
-25.213
-24.662
-24.845
-25.469
-26.295
-26.939
-26.94
-26.042
-24.176
-21.363
-17.727
-13.351
-8.273
-2.6
3.519
9.919
16.426
22.902
29.235
35.335
41.126
46.542
51.521
56.037
60.087
63.687
66.868
69.657
72.077
74.168
75.976
77.565
79.008
80.38
81.759
83.21
84.787
86.537
88.501
90.71
93.185
95.94
98.979
102.308
105.938
109.875
114.126
118.688
123.556
128.718
134.161
139.868
145.821
152.001
158.385
164.952
171.677
178.535
185.502
192.548
199.641
206.745
213.821
220.833
227.738
234.498
241.07
247.413
253.487
259.254
264.677
269.72
274.35
278.532
282.238
285.437
288.105
290.217
291.753
292.694
293.027
292.74
291.824
290.278
288.098
285.288
281.853
277.803
273.149
267.906
262.094
255.733
248.847
241.464
233.614
225.33
216.645
207.596
198.22
188.558
178.65
168.534
158.253
147.849
137.361
126.831
116.301
105.809
95.395
85.097
74.953
64.996
55.262
45.781
36.583
27.695
19.142
10.946
3.129
-4.294
-11.306
-17.895
-24.052
-29.77
-35.044
-39.873
-44.258
-48.204
-51.717
-54.805
-57.479
-59.753
-61.641
-63.159
-64.327
-65.162
-65.688
-65.925
-65.896
-65.626
-65.14
-64.461
-63.616
-62.629
-61.526
-60.332
-59.069
-57.762
-56.435
-55.107
-53.802
-52.538
-51.334
-50.209
-49.176
-48.252
-47.449
-46.777
-46.246
-45.864
-45.636
-45.568
-45.662
-45.918
-46.336
-46.915
-47.651
-48.539
-49.571
-50.741
-52.04
-53.456
-54.979
-56.595
-58.293
-60.059
-61.877
-63.734
-65.615
-67.505
-69.387
-71.246
-73.068
-74.836
-76.537
-78.154
-79.674
-81.084
-82.371
-83.524
-84.531
-85.382
-86.068
-86.58
-86.912
-87.056
-87.008
-86.764
-86.321
-85.678
-84.835
-83.794
-82.558
-81.132
-79.522
-77.731
-75.766
-73.633
-71.339
-68.898
-66.321
-63.614
-60.795
-57.889
-54.914
-51.896
-48.857
-45.79
-42.695
-39.597
-36.485
-33.331
-30.138
-26.89
-23.577
-20.282
-17.08
-13.963
-11.044
-8.549
-6.474
-4.753
-3.484
-2.395
-1.69
-2.601
-4.916
-7.444
-8.479
-3.97
7.204
21.14
32.894
35.232
23.931
3.975
-16.877
-30.608
-30.958
-21.032
-8.375
1.354
3.315
-1.91
-9.679
-17.546
-23.813
-28.131
-32.155
-36.432
-40.817
-45.388
-49.886
-54.225
-58.638
-63.201
-67.881
-72.708
-77.69
-82.783
-87.952
-93.14
-98.246
-103.203
-107.976
-112.523
-116.81
-120.795
-124.411
-127.597
-130.28
-132.413
-133.978
-134.952
-135.318
-135.089
-134.292
-133.005
-131.388
-129.587
-127.743
-126.011
-124.487
-123.335
-122.817
-123.125
-124.391
-126.59
-129.474
-132.831
-136.533
-140.277
-143.613
-146.13
-147.459
-147.743
-147.69
-147.824
-148.672
-150.999
-155.468
-162.673
-172.079
-181.332
-187.66
-189.27
-187.104
-183.701
-178.911
-168.685
-143.698
-93.386
-14.594
89.016
206.167
320.776
422.762
506.003
567.881
611.569
637.475
644.558
633.193
601.148
548.194
477.136
390.852
293.912
191.394
87.445
-14.161
-109.998
-197.414
-274.556
-340.004
-392.835
-432.928
-460.861
-477.609
-484.656
-483.292
-474.425
-459.141
-438.68
-414.332
-387.073
-357.613
-326.55
-294.778
-263.696
-234.629
-208.497
-185.721
-166.579
-151.283
-139.866
-131.906
-126.336
-121.955
-117.779
-113.28
-108.279
-102.632
-96.239
-89.297
-82.342
-76.059
-71.171
-67.984
-66.404
-66.318
-67.576
-69.937
-73.124
-76.68
-79.991
-82.697
-84.661
-85.826
-86.25
-85.955
-84.897
-83.131
-80.772
-77.911
-74.643
-71.005
-66.971
-62.573
-57.882
-52.999
-48.084
-43.236
-38.494
-33.894
-29.45
-25.168
-21.062
-17.109
-13.251
-9.438
-5.629
-1.792
2.079
6.01
10.045
14.233
18.638
23.304
28.251
33.496
39.052
44.921
51.103
57.582
64.322
71.294
78.473
85.835
93.359
101.017
108.774
116.595
124.442
132.279
140.071
147.78
155.368
162.798
170.033
177.041
183.791
190.25
196.386
202.164
207.552
212.52
217.039
221.08
224.618
227.629
230.093
231.994
233.318
234.054
234.195
233.735
232.676
231.017
228.766
225.93
222.521
218.554
214.046
209.018
203.492
197.493
191.047
184.184
176.935
169.332
161.408
153.199
144.74
136.067
127.219
118.233
109.146
99.996
90.819
81.653
72.534
63.495
54.571
45.794
37.194
28.799
20.636
12.729
5.103
-2.224
-9.234
-15.909
-22.237
-28.205
-33.806
-39.031
-43.877
-48.34
-52.42
-56.117
-59.436
-62.381
-64.957
-67.174
-69.041
-70.568
-71.768
-72.655
-73.242
-73.545
-73.58
-73.364
-72.915
-72.249
-71.384
-70.34
-69.133
-67.782
-66.305
-64.72
-63.043
-61.292
-59.484
-57.633
-55.756
-53.866
-51.978
-50.105
-48.259
-46.453
-44.697
-43.002
-41.378
-39.833
-38.376
-37.015
-35.756
-34.605
-33.567
-32.647
-31.849
-31.175
-30.628
-30.208
-29.917
-29.754
-29.717
-29.806
-30.017
-30.348
-30.794
-31.35
-32.012
-32.773
-33.627
-34.567
-35.584
-36.67
-37.817
-39.015
-40.254
-41.523
-42.811
-44.108
-45.401
-46.679
-47.93
-49.142
-50.301
-51.396
-52.414
-53.344
-54.173
-54.889
-55.483
-55.943
-56.26
-56.427
-56.434
-56.277
-55.948
-55.443
-54.758
-53.891
-52.839
-51.602
-50.181
-48.578
-46.797
-44.842
-42.721
-40.44
-38.008
-35.436
-32.734
-29.916
-26.993
-23.98
-20.893
-17.747
-14.561
-11.352
-8.14
-4.943
-1.782
1.323
4.352
7.286
10.105
12.792
15.328
17.695
19.877
21.855
23.614
25.137
26.406
27.405
28.119
28.535
28.64
28.426
27.883
27.009
25.801
24.262
22.393
20.196
17.673
14.831
11.678
8.224
4.484
0.47
-3.799
-8.301
-13.007
-17.894
-22.94
-28.132
-33.466
-38.931
-44.507
-50.175
-55.913
-61.692
-67.481
-73.233
-78.877
-84.353
-89.601
-94.572
-99.231
-103.527
-107.392
-110.763
-113.557
-115.72
-117.233
-118.066
-118.2
-117.646
-116.419
-114.591
-112.315
-109.723
-106.943
-104.12
-101.341
-98.775
-96.693
-95.287
-94.691
-94.915
-95.759
-97.047
-98.666
-100.288
-101.42
-101.658
-100.678
-98.551
-95.834
-93.124
-91.08
-90.6
-92.744
-97.504
-103.467
-108.957
-111.642
-112.005
-113.937
-118.213
-123.099
-121.064
-97.408
-43.06
44.92
161.869
291.314
417.564
527.429
610.964
667.713
700.565
714.139
712.919
697.308
665.617
615.135
545.286
458.839
360.139
254.892
148.115
43.35
-56.064
-147.358
-228.359
-297.149
-352.496
-394.124
-422.429
-438.294
-443.054
-437.937
-424.31
-403.816
-378.053
-348.633
-316.898
-283.809
-250.296
-217.616
-186.87
-158.935
-134.585
-114.03
-97.29
-84.476
-75.349
-69.164
-65.13
-62.34
-59.79
-57.037
-53.883
-50.075
-45.674
-41.02
-36.436
-32.429
-29.585
-28.033
-27.715
-28.559
-30.272
-32.514
-34.985
-37.245
-38.866
-39.665
-39.56
-38.543
-36.703
-34.087
-30.757
-26.849
-22.505
-17.84
-12.951
-7.897
-2.747
2.376
7.37
12.148
16.65
20.867
24.791
28.411
31.743
34.812
37.66
40.345
42.914
45.403
47.858
50.324
52.857
55.53
58.399
61.503
64.874
68.533
72.494
76.772
81.366
86.264
91.455
96.925
102.66
108.654
114.889
121.344
127.991
134.802
141.745
148.793
155.913
163.072
170.236
177.371
184.444
191.422
198.272
204.956
211.436
217.673
223.631
229.272
234.56
239.459
243.936
247.96
251.502
254.537
257.042
258.995
260.378
261.176
261.375
260.968
259.949
258.314
256.065
253.206
249.745
245.694
241.068
235.884
230.162
223.927
217.205
210.024
202.417
194.415
186.055
177.374
168.409
159.2
149.787
140.21
130.509
120.727
110.902
101.075
91.284
81.567
71.961
62.501
53.221
44.151
35.323
26.764
18.5
10.554
2.947
-4.302
-11.178
-17.667
-23.759
-29.447
-34.725
-39.591
-44.046
-48.092
-51.735
-54.983
-57.844
-60.331
-62.457
-64.237
-65.688
-66.827
-67.674
-68.248
-68.57
-68.661
-68.544
-68.24
-67.772
-67.161
-66.431
-65.602
-64.697
-63.735
-62.738
-61.724
-60.713
-59.721
-58.765
-57.861
-57.022
-56.26
-55.588
-55.013
-54.544
-54.189
-53.951
-53.837
-53.847
-53.984
-54.248
-54.639
-55.154
-55.792
-56.548
-57.417
-58.394
-59.473
-60.646
-61.907
-63.247
-64.659
-66.132
-67.658
-69.227
-70.831
-72.458
-74.098
-75.741
-77.377
-78.995
-80.585
-82.139
-83.645
-85.095
-86.481
-87.793
-89.024
-90.166
-91.21
-92.149
-92.976
-93.685
-94.269
-94.723
-95.04
-95.216
-95.248
-95.132
-94.864
-94.443
-93.866
-93.133
-92.241
-91.191
-89.984
-88.619
-87.099
-85.426
-83.604
-81.638
-79.532
-77.291
-74.921
-72.431
-69.826
-67.115
-64.306
-61.409
-58.434
-55.392
-52.295
-49.155
-45.986
-42.802
-39.617
-36.445
-33.3
-30.198
-27.156
-24.19
-21.318
-18.555
-15.914
-13.412
-11.072
-8.908
-6.926
-5.133
-3.535
-2.147
-1.003
-0.122
0.504
0.853
0.872
0.519
-0.249
-1.446
-3.017
-4.941
-7.279
-9.971
-12.783
-15.644
-18.619
-21.662
-24.978
-28.162
-29.768
-29.973
-30.143
-32.322
-40.537
-54.857
-71.117
-85.275
-91.584
-89.176
-83.481
-78.717
-79.306
-86.346
-95.714
-104.728
-111.66
-115.772
-118.626
-120.999
-122.791
-124.037
-124.465
-123.994
-122.861
-121.214
-119.163
-116.845
-114.403
-111.984
-109.686
-107.668
-106.161
-105.34
-105.353
-106.198
-107.622
-109.361
-111.202
-112.781
-113.65
-113.465
-111.951
-109.268
-106.19
-103.554
-102.178
-102.886
-106.246
-112.478
-121.37
-131.921
-142.121
-149.367
-150.624
-142.953
-123.824
-91.783
-46.961
10.873
81.504
164.368
259.777
363.325
466.701
561.491
637.39
689.661
720.713
732.458
728.304
709.487
672.29
615.424
539.74
447.592
344.173
234.539
122.697
12.473
-92.176
-187.458
-270.117
-337.715
-388.891
-423.525
-442.137
-445.473
-435.333
-414.369
-385.402
-351.365
-314.957
-278.139
-242.69
-210.736
-183.776
-162.279
-146.15
-134.679
-126.925
-122.27
-119.871
-118.22
-115.833
-111.863
-106.057
-98.766
-90.576
-81.905
-73.185
-65.16
-58.707
-54.351
-52.179
-51.923
-53.061
-55.082
-57.626
-60.298
-62.633
-64.332
-65.203
-65.117
-64.112
-62.246
-59.535
-56.054
-51.89
-47.094
-41.781
-36.097
-30.182
-24.224
-18.356
-12.644
-7.151
-1.917
3.025
7.628
11.882
15.819
19.456
22.812
25.905
28.743
31.368
33.853
36.275
38.72
41.253
43.916
46.748
49.783
53.046
56.56
60.332
64.352
68.622
73.146
77.93
82.979
88.292
93.851
99.643
105.647
111.846
118.217
124.739
131.383
138.124
144.938
151.798
158.679
165.552
172.384
179.138
185.78
192.271
198.575
204.653
210.467
215.979
221.154
225.958
230.359
234.328
237.835
240.854
243.361
245.334
246.755
247.606
247.875
247.55
246.626
245.097
242.965
240.232
236.906
232.996
228.519
223.489
217.929
211.86
205.31
198.308
190.884
183.074
174.912
166.438
157.69
148.71
139.54
130.221
120.796
111.308
101.798
92.307
82.875
73.542
64.345
55.321
46.505
37.928
29.623
21.617
13.938
6.607
-0.352
-6.924
-13.093
-18.846
-24.174
-29.073
-33.537
-37.567
-41.166
-44.339
-47.093
-49.441
-51.393
-52.967
-54.179
-55.049
-55.598
-55.848
-55.823
-55.547
-55.047
-54.346
-53.472
-52.451
-51.307
-50.068
-48.758
-47.401
-46.022
-44.643
-43.286
-41.972
-40.719
-39.545
-38.466
-37.496
-36.647
-35.931
-35.358
-34.933
-34.664
-34.553
-34.604
-34.817
-35.19
-35.722
-36.408
-37.242
-38.218
-39.327
-40.56
-41.907
-43.358
-44.901
-46.524
-48.214
-49.96
-51.747
-53.563
-55.394
-57.229
-59.055
-60.858
-62.627
-64.35
-66.016
-67.615
-69.137
-70.571
-71.91
-73.145
-74.269
-75.273
-76.153
-76.903
-77.516
-77.99
-78.319
-78.501
-78.534
-78.416
-78.146
-77.723
-77.149
-76.424
-75.55
-74.528
-73.363
-72.057
-70.613
-69.037
-67.331
-65.502
-63.553
-61.49
-59.319
-57.047
-54.68
-52.225
-49.69
-47.081
-44.408
-41.677
-38.898
-36.079
-33.23
-30.361
-27.481
-24.603
-21.737
-18.894
-16.088
-13.329
-10.63
-8.004
-5.461
-3.014
-0.674
1.545
3.634
5.58
7.371
8.993
10.431
11.672
12.702
13.508
14.078
14.401
14.463
14.256
13.774
13.011
11.962
10.624
8.989
7.054
4.82
2.29
-0.528
-3.63
-7.011
-10.66
-14.56
-18.692
-23.037
-27.585
-32.336
-37.286
-42.423
-47.727
-53.178
-58.751
-64.423
-70.16
-75.907
-81.605
-87.194
-92.618
-97.834
-102.802
-107.477
-111.798
-115.706
-119.127
-121.998
-124.29
-125.97
-127.035
-127.523
-127.456
-126.859
-125.887
-124.775
-123.753
-123.092
-122.89
-123.095
-123.877
-125.512
-127.99
-131.013
-134.02
-136.287
-137.576
-138.035
-137.433
-135.411
-131.957
-127.583
-123.547
-121.349
-121.803
-125.217
-132.008
-142.352
-155.292
-168.36
-178.006
-181.149
-177.772
-169.565
-157.213
-138.456
-105.009
-47.645
39.229
155.04
287.997
421.671
539.939
630.096
689.79
722.946
735.871
734.408
719.226
687.709
636.596
564.725
474.713
371.389
260.723
148.086
37.357
-67.894
-164.227
-248.665
-318.733
-372.952
-411.319
-434.66
-443.857
-440.215
-425.665
-402.565
-373.684
-341.591
-307.979
-274.184
-241.798
-212.56
-187.799
-168.025
-152.845
-141.505
-133.566
-128.588
-125.733
-123.606
-120.683
-116.131
-109.903
-102.393
-93.996
-85.038
-75.936
-67.47
-60.621
-55.907
-53.385
-52.793
-53.661
-55.616
-58.347
-61.393
-64.238
-66.531
-68.052
-68.703
-68.527
-67.532
-65.708
-63.099
-59.757
-55.756
-51.188
-46.141
-40.714
-35.011
-29.144
-23.233
-17.379
-11.646
-6.092
-0.759
4.339
9.186
13.781
18.142
22.285
26.234
30.023
33.693
37.291
40.873
44.497
48.226
52.113
56.192
60.491
65.031
69.818
74.863
80.163
85.706
91.484
97.488
103.707
110.128
116.737
123.509
130.418
137.438
144.537
151.687
158.858
166.019
173.141
180.193
187.143
193.963
200.621
207.082
213.313
219.277
224.939
230.266
235.225
239.782
243.908
247.575
250.757
253.433
255.581
257.185
258.228
258.699
258.589
257.891
256.601
254.721
252.251
249.199
245.573
241.384
236.647
231.381
225.608
219.349
212.633
205.485
197.937
190.021
181.773
173.221
164.394
155.327
146.054
136.617
127.061
117.422
107.743
98.097
88.55
79.151
69.936
60.926
52.134
43.585
35.286
27.125
18.974
10.937
3.088
-4.575
-11.848
-19.252
-27.131
-34.497
-41.143
-45.465
-45.767
-43.731
-39.426
-35.438
-36.102
-40.861
-51.61
-66.595
-79.645
-89.868
-93.038
-87.674
-78.342
-64.853
-51.195
-42.422
-38.201
-41.478
-51.058
-61.088
-69.186
-71.903
-68.484
-62.857
-57.151
-52.932
-50.922
-49.654
-48.417
-47.275
-46.19
-45.407
-44.982
-44.693
-44.447
-44.27
-44.178
-44.171
-44.259
-44.45
-44.762
-45.231
-45.868
-46.652
-47.571
-48.617
-49.781
-51.054
-52.427
-53.884
-55.41
-56.997
-58.631
-60.301
-61.992
-63.69
-65.382
-67.053
-68.689
-70.276
-71.802
-73.253
-74.616
-75.878
-77.027
-78.053
-78.943
-79.687
-80.277
-80.703
-80.957
-81.033
-80.925
-80.63
-80.142
-79.462
-78.587
-77.519
-76.258
-74.808
-73.172
-71.354
-69.361
-67.198
-64.875
-62.4
-59.784
-57.036
-54.169
-51.195
-48.126
-44.976
-41.76
-38.491
-35.183
-31.853
-28.515
-25.187
-21.885
-18.623
-15.419
-12.289
-9.25
-6.317
-3.504
-0.827
1.701
4.066
6.255
8.255
10.053
11.637
12.994
14.111
14.975
15.578
15.907
15.957
15.719
15.189
14.368
13.253
11.847
10.15
8.162
5.882
3.315
0.466
-2.658
-6.05
-9.701
-13.598
-17.718
-22.042
-26.552
-31.24
-36.105
-41.144
-46.34
-51.676
-57.127
-62.666
-68.261
-73.866
-79.415
-84.844
-90.095
-95.119
-99.89
-104.371
-108.513
-112.251
-115.513
-118.239
-120.404
-121.993
-122.991
-123.412
-123.291
-122.706
-121.778
-120.634
-119.391
-118.16
-117.055
-116.204
-115.735
-115.822
-116.683
-118.44
-121.09
-124.481
-128.277
-132.118
-135.687
-138.53
-140.087
-139.963
-138.016
-134.646
-130.792
-127.302
-124.824
-123.853
-124.703
-127.558
-132.179
-137.14
-140.034
-138.356
-129.637
-112.039
-84.204
-44.542
7.851
72.189
146.567
228.077
312.892
397.867
478.907
550.825
610.077
653.197
678.797
687.172
675.503
642.578
587.317
508.225
411.015
300.374
180.907
62.16
-51.948
-156.515
-244.916
-318.1
-375.659
-417.48
-446.979
-463.679
-467.514
-460.465
-443.696
-419.967
-392.24
-362.174
-330.988
-299.26
-267.468
-236.432
-206.827
-179.298
-154.487
-132.698
-114.194
-99.331
-88.112
-80.056
-74.619
-71.012
-68.233
-65.748
-63.197
-60.172
-56.597
-52.709
-48.782
-45.326
-42.968
-41.887
-42.091
-43.565
-46.069
-49.299
-52.895
-56.342
-59.13
-61.005
-61.861
-61.674
-60.509
-58.394
-55.381
-51.608
-47.239
-42.414
-37.217
-31.698
-25.908
-19.949
-13.976
-8.123
-2.474
2.928
8.062
12.91
17.452
21.69
25.662
29.424
33.028
36.519
39.929
43.294
46.665
50.102
53.678
57.449
61.449
65.699
70.216
75.015
80.111
85.514
91.21
97.18
103.407
109.867
116.531
123.357
130.293
137.28
144.27
151.228
158.133
164.976
171.749
178.448
185.055
191.539
197.87
204.028
209.991
215.752
221.326
226.74
232.034
237.255
242.414
247.501
252.482
257.286
261.83
266.022
269.787
273.079
275.875
278.143
279.841
280.912
281.253
280.746
279.275
276.712
272.986
268.061
261.933
254.647
246.288
236.957
226.742
215.707
203.865
191.246
177.921
163.989
149.617
135.004
120.336
105.806
91.57
77.748
64.447
51.734
39.625
28.132
17.275
7.102
-2.276
-10.764
-18.329
-24.975
-30.772
-35.835
-40.252
-44.114
-47.508
-50.493
-53.127
-55.451
-57.463
-59.159
-60.559
-61.703
-62.69
-63.61
-64.501
-65.379
-66.217
-66.956
-67.566
-68.019
-68.279
-68.331
-68.168
-67.788
-67.225
-66.517
-65.684
-64.733
-63.645
-62.402
-61.013
-59.496
-57.885
-56.229
-54.563
-52.919
-51.339
-49.85
-48.472
-47.22
-46.091
-45.075
-44.17
-43.378
-42.703
-42.154
-41.729
-41.423
-41.232
-41.147
-41.156
-41.252
-41.419
-41.647
-41.926
-42.25
-42.615
-43.02
-43.462
-43.937
-44.442
-44.972
-45.522
-46.088
-46.664
-47.243
-47.823
-48.399
-48.968
-49.53
-50.082
-50.623
-51.152
-51.668
-52.171
-52.66
-53.136
-53.598
-54.046
-54.48
-54.9
-55.304
-55.692
-56.063
-56.415
-56.746
-57.053
-57.333
-57.584
-57.802
-57.982
-58.12
-58.213
-58.255
-58.241
-58.168
-58.029
-57.822
-57.542
-57.186
-56.749
-56.229
-55.621
-54.923
-54.131
-53.243
-52.256
-51.168
-49.98
-48.689
-47.299
-45.811
-44.228
-42.553
-40.793
-38.953
-37.041
-35.066
-33.036
-30.962
-28.855
-26.726
-24.59
-22.46
-20.351
-18.281
-16.268
-14.333
-12.494
-10.771
-9.184
-7.75
-6.49
-5.418
-4.547
-3.89
-3.459
-3.268
-3.333
-3.663
-4.269
-5.158
-6.335
-7.805
-9.572
-11.629
-13.964
-16.569
-19.435
-22.566
-25.969
-29.646
-33.586
-37.774
-42.192
-46.816
-51.618
-56.549
-61.542
-66.532
-71.458
-76.274
-80.949
-85.432
-89.663
-93.569
-97.061
-100.08
-102.598
-104.589
-106.035
-106.948
-107.354
-107.316
-106.968
-106.439
-105.845
-105.297
-104.876
-104.68
-104.879
-105.715
-107.37
-109.886
-113.158
-116.943
-121.006
-125.103
-128.823
-131.549
-132.743
-132.215
-130.166
-127.182
-123.974
-121.326
-120.147
-121.416
-124.877
-128.71
-131.094
-130.733
-129.372
-130.56
-134.018
-134.221
-119.648
-77.87
-4.399
95.301
207.865
318.907
419.603
507.528
583.892
648.505
698.665
730.181
738.703
722.759
682.935
620.73
539.358
442.6
334.444
219.778
103.421
-10.466
-117.756
-214.845
-299.075
-368.506
-422.116
-459.946
-482.847
-492.041
-489.083
-475.789
-454.107
-425.972
-393.299
-357.917
-321.105
-284.019
-248.049
-214.29
-183.673
-157.097
-134.849
-116.76
-102.811
-92.706
-85.596
-80.697
-77.072
-73.595
-69.778
-65.517
-60.646
-55.276
-49.808
-44.622
-40.285
-37.466
-36.338
-36.792
-38.688
-41.698
-45.442
-49.534
-53.447
-56.656
-58.889
-60.049
-60.118
-59.17
-57.249
-54.396
-50.741
-46.444
-41.637
-36.43
-30.898
-25.107
-19.172
-13.251
-7.481
-1.957
3.272
8.191
12.791
17.061
21.013
24.683
28.129
31.404
34.557
37.622
40.64
43.66
46.745
49.97
53.393
57.051
60.975
65.18
69.681
74.485
79.591
84.981
90.636
96.54
102.68
109.044
115.616
122.372
129.283
136.319
143.452
150.652
157.888
165.126
172.334
179.477
186.522
193.439
200.193
206.748
213.066
219.109
224.84
230.224
235.223
239.802
243.929
247.573
250.706
253.304
255.343
256.804
257.67
257.927
257.566
256.579
254.963
252.718
249.846
246.356
242.258
237.565
232.294
226.466
220.104
213.233
205.885
198.09
189.882
181.297
172.374
163.153
153.675
143.982
134.117
124.124
114.047
103.93
93.818
83.753
73.776
63.929
54.251
44.78
35.549
26.593
17.942
9.625
1.666
-5.91
-13.084
-19.839
-26.16
-32.036
-37.458
-42.422
-46.926
-50.97
-54.557
-57.696
-60.393
-62.661
-64.513
-65.966
-67.036
-67.745
-68.113
-68.163
-67.919
-67.408
-66.654
-65.686
-64.53
-63.214
-61.764
-60.208
-58.572
-56.881
-55.159
-53.431
-51.718
-50.043
-48.424
-46.88
-45.428
-44.081
-42.853
-41.755
-40.796
-39.984
-39.324
-38.82
-38.474
-38.288
-38.26
-38.389
-38.671
-39.1
-39.672
-40.378
-41.21
-42.159
-43.214
-44.366
-45.602
-46.91
-48.28
-49.699
-51.154
-52.634
-54.127
-55.621
-57.105
-58.568
-59.999
-61.389
-62.729
-64.01
-65.225
-66.367
-67.431
-68.41
-69.302
-70.101
-70.804
-71.409
-71.914
-72.316
-72.614
-72.808
-72.898
-72.884
-72.767
-72.546
-72.224
-71.802
-71.281
-70.663
-69.95
-69.145
-68.248
-67.265
-66.196
-65.044
-63.814
-62.507
-61.127
-59.676
-58.156
-56.571
-54.921
-53.211
-51.44
-49.614
-47.734
-45.802
-43.823
-41.798
-39.733
-37.63
-35.495
-33.33
-31.142
-28.934
-26.713
-24.486
-22.259
-20.039
-17.833
-15.65
-13.498
-11.385
-9.319
-7.309
-5.364
-3.491
-1.701
-0.002
1.596
3.082
4.443
5.665
6.736
7.643
8.372
8.912
9.25
9.378
9.288
8.976
8.436
7.662
6.647
5.387
3.878
2.12
0.113
-2.141
-4.638
-7.373
-10.328
-13.491
-16.851
-20.406
-24.162
-28.123
-32.281
-36.624
-41.137
-45.801
-50.593
-55.475
-60.384
-65.262
-70.049
-74.697
-79.174
-83.44
-87.436
-91.09
-94.319
-97.047
-99.239
-100.875
-101.927
-102.397
-102.309
-101.719
-100.751
-99.55
-98.239
-96.954
-95.825
-94.956
-94.523
-94.769
-95.882
-98.003
-101.104
-104.899
-109.102
-113.471
-117.605
-121.007
-123.234
-123.883
-123.017
-121.46
-120.03
-119.36
-120.302
-123.545
-129.304
-137.749
-147.6
-155.296
-158.344
-155.096
-144.644
-128.597
-105.502
-70.071
-16.838
59.233
157.878
271.424
388.498
498.308
592.714
667.802
724.337
762.666
782.184
782.313
760.266
714.757
647.751
562.759
464.804
358.438
245.618
127.094
5.651
-112.674
-218.354
-301.631
-357.912
-389.368
-403.651
-409.031
-410.091
-406.967
-397.143
-379.347
-354.607
-325.285
-294.083
-262.536
-231.526
-202.302
-175.905
-152.956
-133.637
-117.716
-105.088
-95.634
-88.823
-83.508
-78.299
-72.397
-65.674
-58.302
-50.495
-42.443
-34.411
-27.082
-21.378
-17.743
-16.196
-16.5
-18.203
-20.956
-24.479
-28.279
-31.797
-34.645
-36.548
-37.415
-37.307
-36.229
-34.187
-31.234
-27.44
-22.918
-17.801
-12.19
-6.192
0.081
6.519
12.97
19.309
25.449
31.308
36.841
42.038
46.875
51.352
55.492
59.311
62.844
66.14
69.237
72.182
75.031
77.837
80.672
83.594
86.643
89.851
93.241
96.823
100.61
104.606
108.801
113.189
117.764
122.516
127.438
132.523
137.751
143.105
148.562
154.098
159.691
165.319
170.959
176.585
182.174
187.701
193.141
198.47
203.659
208.677
213.493
218.075
222.394
226.418
230.116
233.461
236.426
238.984
241.115
242.798
244.013
244.744
244.977
244.7
243.904
242.583
240.734
238.356
235.451
232.025
228.088
223.65
218.725
213.331
207.486
201.212
194.533
187.477
180.071
172.346
164.334
156.069
147.585
138.92
130.108
121.188
112.196
103.168
94.143
85.154
76.236
67.424
58.749
50.242
41.932
33.847
26.012
18.451
11.184
4.231
-2.392
-8.67
-14.592
-20.148
-25.332
-30.14
-34.568
-38.618
-42.291
-45.594
-48.532
-51.115
-53.354
-55.261
-56.851
-58.139
-59.143
-59.88
-60.37
-60.632
-60.686
-60.552
-60.252
-59.806
-59.234
-58.557
-57.794
-56.965
-56.087
-55.18
-54.26
-53.342
-52.442
-51.573
-50.747
-49.976
-49.271
-48.64
-48.09
-47.628
-47.26
-46.99
-46.82
-46.752
-46.788
-46.926
-47.166
-47.505
-47.94
-48.468
-49.085
-49.784
-50.562
-51.412
-52.329
-53.305
-54.334
-55.409
-56.523
-57.669
-58.84
-60.029
-61.229
-62.433
-63.635
-64.828
-66.005
-67.162
-68.292
-69.39
-70.451
-71.469
-72.44
-73.358
-74.221
-75.022
-75.759
-76.427
-77.024
-77.547
-77.991
-78.356
-78.636
-78.832
-78.939
-78.956
-78.882
-78.714
-78.451
-78.093
-77.64
-77.091
-76.448
-75.71
-74.879
-73.956
-72.943
-71.842
-70.653
-69.38
-68.025
-66.592
-65.085
-63.507
-61.863
-60.159
-58.399
-56.59
-54.738
-52.849
-50.93
-48.987
-47.028
-45.063
-43.098
-41.144
-39.209
-37.303
-35.437
-33.619
-31.859
-30.168
-28.553
-27.024
-25.589
-24.258
-23.039
-21.942
-20.976
-20.155
-19.49
-18.992
-18.672
-18.542
-18.61
-18.887
-19.376
-20.08
-21.002
-22.143
-23.506
-25.093
-26.906
-28.944
-31.204
-33.681
-36.371
-39.265
-42.35
-45.606
-49.018
-52.573
-56.268
-60.109
-64.101
-68.236
-72.506
-76.897
-81.39
-85.962
-90.575
-95.167
-99.678
-104.051
-108.24
-112.21
-115.921
-119.313
-122.313
-124.837
-126.81
-128.195
-128.971
-129.119
-128.648
-127.582
-125.975
-123.963
-121.7
-119.32
-116.971
-114.772
-112.844
-111.423
-110.798
-111.169
-112.648
-115.159
-118.416
-122.15
-126.066
-129.66
-132.336
-133.67
-133.417
-131.804
-129.726
-128.218
-128.277
-131.126
-136.837
-143.917
-151.277
-157.353
-162.559
-170.128
-179.361
-186.207
-181.926
-153.329
-94.02
-4.866
107.557
230.491
353.787
470.036
571.284
652.425
709.448
740.562
749.042
738.301
710.926
668.639
609.339
531.693
436.31
323.705
200.277
75.471
-42.54
-144.403
-227.133
-294.042
-347.696
-392.028
-428.085
-452.859
-465.162
-464.495
-451.918
-430.851
-404.018
-373.502
-340.807
-306.538
-271.788
-238.208
-207.191
-179.957
-156.996
-138.045
-123.086
-112.148
-104.752
-100.035
-96.803
-93.701
-90.061
-85.851
-80.999
-75.509
-69.593
-63.604
-58.233
-54.326
-52.24
-51.891
-53.053
-55.399
-58.59
-62.288
-66.008
-69.166
-71.396
-72.562
-72.64
-71.714
-69.847
-67.061
-63.437
-59.126
-54.26
-48.951
-43.308
-37.398
-31.317
-25.212
-19.202
-13.387
-7.836
-2.569
2.407
7.088
11.484
15.626
19.545
23.294
26.92
30.459
33.956
37.459
41.024
44.722
48.61
52.729
57.11
61.771
66.722
71.972
77.519
83.348
89.444
95.793
102.378
109.189
116.208
123.412
130.772
138.257
145.835
153.475
161.144
168.808
176.432
183.98
191.417
198.711
205.826
212.724
219.366
225.714
231.728
237.372
242.609
247.404
251.722
255.533
258.81
261.528
263.666
265.203
266.123
266.415
266.067
265.076
263.437
261.152
258.225
254.664
250.483
245.696
240.323
234.384
227.907
220.917
213.448
205.532
197.204
188.504
179.469
170.142
160.564
150.78
140.833
130.767
120.627
110.456
100.298
90.194
80.185
70.311
60.609
51.115
41.862
32.881
24.203
15.853
7.856
0.233
-6.996
-13.817
-20.215
-26.182
-31.708
-36.791
-41.429
-45.622
-49.375
-52.695
-55.589
-58.07
-60.15
-61.846
-63.175
-64.156
-64.809
-65.156
-65.22
-65.025
-64.594
-63.951
-63.123
-62.132
-61.005
-59.764
-58.434
-57.039
-55.6
-54.141
-52.681
-51.241
-49.84
-48.496
-47.225
-46.043
-44.963
-43.996
-43.155
-42.449
-41.884
-41.468
-41.206
-41.1
-41.152
-41.363
-41.731
-42.256
-42.932
-43.755
-44.72
-45.82
-47.048
-48.395
-49.853
-51.412
-53.063
-54.794
-56.595
-58.455
-60.362
-62.305
-64.272
-66.25
-68.229
-70.196
-72.139
-74.047
-75.908
-77.712
-79.448
-81.105
-82.674
-84.146
-85.511
-86.762
-87.891
-88.891
-89.755
-90.478
-91.055
-91.483
-91.756
-91.873
-91.832
-91.631
-91.27
-90.75
-90.07
-89.234
-88.243
-87.101
-85.811
-84.376
-82.803
-81.095
-79.26
-77.304
-75.234
-73.059
-70.786
-68.424
-65.982
-63.47
-60.898
-58.276
-55.614
-52.922
-50.211
-47.495
-44.783
-42.088
-39.42
-36.791
-34.212
-31.697
-29.254
-26.896
-24.631
-22.471
-20.426
-18.506
-16.722
-15.083
-13.599
-12.28
-11.139
-10.186
-9.434
-8.894
-8.576
-8.486
-8.631
-9.014
-9.638
-10.503
-11.609
-12.953
-14.535
-16.351
-18.401
-20.682
-23.187
-25.906
-28.819
-31.903
-35.139
-38.514
-42.02
-45.656
-49.417
-53.29
-57.271
-61.354
-65.523
-69.756
-74.002
-78.189
-82.261
-86.174
-89.911
-93.473
-96.826
-99.901
-102.619
-104.893
-106.677
-107.978
-108.752
-108.914
-108.46
-107.483
-106.233
-105.055
-104.132
-103.441
-102.924
-102.614
-102.581
-102.845
-103.148
-103.075
-102.395
-101.204
-99.863
-98.59
-97.349
-96.024
-94.746
-93.94
-94.097
-95.467
-97.832
-101.173
-105.863
-112.392
-121.068
-130.881
-139.578
-145.235
-146.837
-145.192
-141.908
-136.054
-123.279
-96.402
-48.401
23.907
117.083
223.036
332.945
437.111
530.006
608.269
667.229
706.428
724.505
719.75
694.51
648.489
581.234
495.717
393.161
277.051
156.029
36.277
-75.453
-172.29
-254.395
-321.979
-375.194
-416.609
-445.568
-461.73
-466.581
-460.902
-446.849
-426.853
-402.612
-375.792
-347.115
-316.934
-285.816
-254.459
-224.056
-195.769
-170.02
-146.881
-126.63
-109.51
-95.628
-84.805
-76.099
-68.405
-61.243
-54.505
-48.143
-42.164
-36.542
-31.36
-27.158
-24.591
-23.897
-24.981
-27.544
-31.207
-35.648
-40.54
-45.414
-49.713
-53.065
-55.302
-56.386
-56.381
-55.337
-53.273
-50.264
-46.465
-42.017
-37.048
-31.69
-26.027
-20.175
-14.299
-8.527
-2.971
2.291
7.235
11.852
16.133
20.093
23.765
27.184
30.409
33.494
36.477
39.413
42.354
45.36
48.509
51.857
55.446
59.309
63.46
67.909
72.662
77.714
83.047
88.643
94.485
100.554
106.838
113.316
119.963
126.751
133.646
140.618
147.637
154.672
161.689
168.657
175.542
182.313
188.941
195.394
201.637
207.637
213.358
218.765
223.827
228.51
232.783
236.618
239.987
242.868
245.24
247.086
248.389
249.137
249.32
248.932
247.97
246.434
244.324
241.647
238.413
234.631
230.318
225.491
220.169
214.375
208.132
201.469
194.414
186.996
179.248
171.202
162.893
154.357
145.629
136.745
127.742
118.656
109.522
100.377
91.255
82.188
73.207
64.344
55.626
47.08
38.73
30.601
22.712
15.082
7.729
0.667
-6.091
-12.535
-18.655
-24.446
-29.902
-35.021
-39.802
-44.246
-48.355
-52.132
-55.584
-58.717
-61.538
-64.058
-66.285
-68.233
-69.911
-71.333
-72.512
-73.462
-74.197
-74.729
-75.074
-75.244
-75.253
-75.114
-74.839
-74.442
-73.934
-73.327
-72.631
-71.858
-71.018
-70.119
-69.172
-68.186
-67.168
-66.127
-65.07
-64.006
-62.939
-61.879
-60.83
-59.8
-58.793
-57.816
-56.873
-55.97
-55.11
-54.298
-53.537
-52.83
-52.18
-51.591
-51.064
-50.603
-50.209
-49.884
-49.631
-49.45
-49.342
-49.309
-49.35
-49.464
-49.652
-49.913
-50.243
-50.641
-51.104
-51.629
-52.211
-52.845
-53.525
-54.245
-54.997
-55.775
-56.569
-57.37
-58.17
-58.96
-59.729
-60.47
-61.172
-61.826
-62.423
-62.953
-63.408
-63.776
-64.05
-64.221
-64.279
-64.217
-64.027
-63.704
-63.242
-62.635
-61.88
-60.972
-59.91
-58.692
-57.318
-55.789
-54.106
-52.273
-50.295
-48.179
-45.932
-43.562
-41.081
-38.499
-35.828
-33.081
-30.272
-27.414
-24.522
-21.612
-18.698
-15.8
-12.932
-10.115
-7.369
-4.715
-2.173
0.237
2.494
4.579
6.472
8.156
9.619
10.847
11.828
12.551
13.001
13.168
13.044
12.622
11.897
10.867
9.53
7.889
5.959
3.75
1.274
-1.465
-4.469
-7.739
-11.264
-15.032
-19.025
-23.218
-27.584
-32.081
-36.643
-41.211
-45.723
-50.127
-54.388
-58.465
-62.302
-65.838
-68.997
-71.713
-73.949
-75.678
-76.876
-77.548
-77.725
-77.469
-76.892
-76.113
-75.239
-74.371
-73.605
-73.039
-72.794
-73.04
-73.982
-75.764
-78.433
-81.924
-86.04
-90.518
-95.029
-99.052
-101.935
-103.221
-102.654
-100.259
-96.613
-92.447
-88.566
-86.226
-85.81
-86.337
-87.033
-86.585
-85.588
-87.663
-93.27
-99.878
-99.47
-77.966
-27.223
53.862
158.291
270.324
378.245
475.582
559.473
631.644
691.063
733.756
755.984
754.271
727.738
678.018
607.703
520.422
420.237
311.724
200.048
89.773
-15.073
-111.077
-195.81
-267.458
-324.73
-367.413
-396.514
-413.41
-419.749
-417.151
-406.794
-389.96
-368.338
-343.466
-316.185
-287.103
-256.798
-226.044
-196.22
-168.608
-143.683
-121.515
-102.336
-86.312
-73.448
-63.42
-55.153
-47.486
-39.934
-32.437
-25.001
-17.676
-10.506
-3.672
2.158
6.205
8.156
8.079
6.244
2.989
-1.412
-6.689
-12.351
-17.746
-22.429
-26.166
-28.879
-30.623
-31.409
-31.199
-30.022
-27.985
-25.203
-21.801
-17.877
-13.462
-8.622
-3.457
1.899
7.267
12.521
17.601
22.47
27.113
31.519
35.674
39.593
43.33
46.938
50.467
53.956
57.427
60.914
64.468
68.148
72.026
76.148
80.541
85.22
90.196
95.471
101.045
106.905
113.017
119.353
125.889
132.604
139.479
146.488
153.598
160.774
167.981
175.184
182.351
189.445
196.431
203.275
209.941
216.398
222.618
228.569
234.219
239.534
244.482
249.034
253.159
256.831
260.024
262.712
264.878
266.504
267.576
268.083
268.016
267.371
266.146
264.341
261.96
259.01
255.5
251.443
246.855
241.754
236.159
230.093
223.582
216.653
209.334
201.658
193.655
185.359
176.807
168.032
159.072
149.964
140.745
131.452
122.121
112.79
103.494
94.267
85.143
76.154
67.329
58.697
50.284
42.115
34.213
26.596
19.284
12.293
5.636
-0.675
-6.631
-12.225
-17.452
-22.309
-26.796
-30.914
-34.667
-38.06
-41.1
-43.796
-46.158
-48.199
-49.931
-51.37
-52.53
-53.429
-54.082
-54.509
-54.726
-54.753
-54.608
-54.31
-53.875
-53.323
-52.67
-51.933
-51.129
-50.273
-49.38
-48.464
-47.537
-46.613
-45.702
-44.815
-43.962
-43.151
-42.39
-41.685
-41.043
-40.467
-39.963
-39.534
-39.181
-38.907
-38.712
-38.596
-38.558
-38.598
-38.713
-38.902
-39.16
-39.486
-39.876
-40.326
-40.833
-41.392
-42.001
-42.655
-43.349
-44.08
-44.844
-45.636
-46.453
-47.29
-48.142
-49.006
-49.877
-50.75
-51.621
-52.484
-53.335
-54.168
-54.979
-55.761
-56.508
-57.215
-57.877
-58.487
-59.04
-59.532
-59.957
-60.309
-60.583
-60.775
-60.88
-60.893
-60.808
-60.621
-60.327
-59.922
-59.403
-58.767
-58.011
-57.133
-56.13
-55.003
-53.75
-52.373
-50.872
-49.249
-47.508
-45.653
-43.691
-41.628
-39.473
-37.236
-34.926
-32.556
-30.138
-27.687
-25.215
-22.737
-20.269
-17.825
-15.424
-13.083
-10.819
-8.654
-6.609
-4.706
-2.968
-1.416
-0.07
1.048
1.919
2.527
2.86
2.903
2.645
2.074
1.177
-0.054
-1.624
-3.537
-5.793
-8.39
-11.324
-14.583
-18.148
-22.004
-26.141
-30.552
-35.241
-40.202
-45.418
-50.874
-56.549
-62.415
-68.441
-74.576
-80.747
-86.887
-92.933
-98.827
-104.529
-109.977
-115.091
-119.795
-123.992
-127.614
-130.63
-132.995
-134.674
-135.662
-135.958
-135.618
-134.791
-133.597
-132.155
-130.604
-129.026
-127.589
-126.577
-126.184
-126.521
-127.58
-129.122
-130.939
-132.917
-134.715
-135.807
-135.783
-134.365
-131.692
-128.437
-125.324
-123.059
-122.514
-124.78
-129.75
-135.843
-141.526
-144.639
-145.751
-148.413
-152.083
-152.956
-142.562
-108.286
-44.852
45.467
156.146
276.388
397.721
514.66
618.978
700.762
753.084
772.332
761.405
729.702
683.549
625.444
555.607
471.493
373.666
266.397
154.868
44.73
-59.502
-154.797
-238.774
-309.665
-366.276
-408.168
-435.816
-450.036
-451.977
-443.166
-425.366
-400.563
-370.812
-338.047
-303.76
-269.518
-237.093
