Name,John Breau
Date of Birth,"Dec 20, 1971"
Recorded Date,2023-07-21 12:27:14 -0500
Classification,Sinus Rhythm
Symptoms,
Software Version,1.90
Device,"Watch6,3"
Sample Rate,512 hertz


Lead,Lead I
Unit,µV

-43.998
-67.214
-71.375
-56.1
-32.966
-10.909
0.259
-0.811
-5.5
-8.741
-7.012
0.436
9.841
19.505
29.35
39.058
48.935
58.863
68.19
76.664
84.309
91.066
96.877
101.745
105.699
108.842
111.333
113.284
114.75
115.792
116.476
116.867
117.044
117.063
116.96
116.751
116.438
116.019
115.496
114.863
114.107
113.199
112.103
110.786
109.215
107.373
105.252
102.85
100.17
97.224
94.03
90.612
87.003
83.231
79.322
75.305
71.21
67.074
62.937
58.838
54.815
50.911
47.158
43.588
40.229
37.098
34.214
31.598
29.27
27.258
25.581
24.249
23.272
22.655
22.391
22.466
22.848
23.486
24.341
25.389
26.616
28.025
29.616
31.383
33.326
35.445
37.739
40.215
42.871
45.688
48.677
51.862
55.295
59.069
63.235
67.796
72.738
78.009
83.544
89.269
95.082
100.848
106.453
111.79
116.772
121.349
125.432
128.911
131.648
133.465
134.236
133.896
132.4
129.743
125.958
121.098
115.275
108.656
101.374
93.542
85.247
76.539
67.499
58.236
48.869
39.541
30.366
21.419
12.769
4.467
-3.477
-11.072
-18.38
-25.51
-32.537
-39.506
-46.448
-53.364
-60.266
-67.182
-74.127
-81.124
-88.195
-95.354
-102.621
-110.02
-117.553
-125.21
-132.965
-140.767
-148.582
-156.394
-164.184
-171.954
-179.71
-187.46
-195.229
-203.045
-210.915
-218.846
-226.842
-234.888
-242.973
-251.068
-259.128
-267.125
-275.046
-282.882
-290.643
-298.331
-305.939
-313.466
-320.905
-328.248
-335.493
-342.624
-349.604
-356.427
-363.097
-369.652
-376.175
-382.702
-389.217
-395.688
-402.041
-408.184
-414.011
-419.371
-424.065
-427.922
-430.783
-432.522
-433.061
-432.285
-430.053
-426.204
-420.537
-412.906
-403.237
-391.481
-377.633
-361.764
-344.007
-324.575
-303.779
-281.875
-259.068
-235.557
-211.497
-187.073
-162.523
-138.083
-113.976
-90.458
-67.798
-46.083
-25.305
-5.218
14.794
35.358
57.02
80.461
106.267
134.443
164.863
196.895
228.741
259.038
287.02
311.272
332.258
351.537
368.573
385.042
401.605
417.62
438.977
470.566
517.968
586.664
671.053
764.473
859.282
946.561
1025.839
1095.652
1151.725
1191.821
1211.169
1206.009
1176.567
1122.336
1042.376
938.937
816.703
680.502
534.881
380.369
213.908
37.862
-136.99
-292.923
-411.802
-484.823
-515.822
-518.669
-506.781
-488.209
-465.539
-435.704
-397.767
-354.254
-308.657
-266.473
-231.695
-204.888
-185.296
-171.198
-160.16
-150.664
-141.547
-130.899
-117.196
-99.857
-78.771
-54.637
-28.842
-2.431
23.531
47.549
68.602
86.138
99.83
109.901
116.861
121.139
123.34
124.207
124.216
123.694
122.888
121.912
120.904
120.016
119.318
118.853
118.703
118.985
119.842
121.365
123.548
126.328
129.608
133.304
137.361
141.72
146.302
151.011
155.752
160.454
165.075
169.553
173.815
177.763
181.29
184.349
186.937
189.072
190.791
192.131
193.124
193.819
194.282
194.569
194.733
194.814
194.84
194.855
194.912
195.07
195.393
195.925
196.688
197.702
198.973
200.506
202.299
204.337
206.596
209.057
211.704
214.521
217.497
220.612
223.841
227.157
230.531
233.937
237.346
240.732
244.065
247.32
250.471
253.496
256.374
259.083
261.6
263.902
265.968
267.776
269.308
270.544
271.467
272.062
272.315
272.216
271.757
270.93
269.731
268.157
266.206
263.882
261.186
258.124
254.703
250.932
246.822
242.387
237.641
232.599
227.28
221.702
215.885
209.85
203.619
197.214
190.657
183.971
177.181
170.309
163.379
156.414
149.438
142.473
135.542
128.667
121.869
115.169
108.587
102.142
95.852
89.733
83.801
78.07
72.553
67.262
62.207
57.396
52.836
48.534
44.492
40.714
37.202
33.954
30.969
28.245
25.776
23.559
21.585
19.849
18.34
17.051
15.971
15.089
14.394
13.874
13.517
13.308
13.236
13.285
13.442
13.692
14.021
14.416
14.861
15.343
15.849
16.366
16.881
17.381
17.856
18.293
18.683
19.014
19.278
19.466
19.569
19.579
19.49
19.294
18.986
18.561
18.012
17.336
16.527
15.583
14.5
13.275
11.904
10.385
8.717
6.897
4.925
2.798
0.515
-1.925
-4.522
-7.278
-10.193
-13.269
-16.506
-19.905
-23.468
-27.193
-31.082
-35.135
-39.352
-43.733
-48.277
-52.985
-57.855
-62.886
-68.078
-73.43
-78.938
-84.603
-90.42
-96.387
-102.501
-108.758
-115.154
-121.685
-128.345
-135.13
-142.034
-149.05
-156.174
-163.396
-170.711
-178.111
-185.587
-193.13
-200.731
-208.382
-216.072
-223.793
-231.534
-239.288
-247.045
-254.795
-262.531
-270.245
-277.927
-285.57
-293.167
-300.711
-308.195
-315.612
-322.959
-330.231
-337.424
-344.535
-351.564
-358.508
-365.368
-372.146
-378.841
-385.458
-392
-398.472
-404.879
-411.23
-417.531
-423.794
-430.031
-436.257
-442.485
-448.73
-455.008
-461.335
-467.727
-474.197
-480.758
-487.42
-494.196
-501.099
-508.141
-515.338
-522.701
-530.242
-537.97
-545.894
-554.021
-562.356
-570.892
-579.625
-588.553
-597.677
-607.012
-616.566
-626.341
-636.336
-646.543
-656.946
-667.525
-678.247
-689.055
-699.898
-710.721
-721.479
-732.14
-742.666
-753.01
-763.114
-772.904
-782.311
-791.291
-799.804
-807.816
-815.341
-822.408
-829.089
-835.502
-841.736
-847.894
-854.104
-860.501
-867.229
-874.425
-882.212
-890.763
-900.344
-911.108
-923.009
-935.773
-948.901
-961.95
-974.576
-986.295
-996.405
-1004.413
-1010.41
-1015.194
-1020.033
-1025.867
-1033.299
-1043.044
-1055.836
-1072.21
-1090.401
-1105.778
-1115.153
-1116.79
-1111.415
-1103.365
-1089.501
-1061.04
-1011.139
-931.857
-826.624
-710.428
-595.335
-494.235
-415.433
-358.154
-323.017
-310.915
-321.504
-356.288
-415.8
-497.789
-598.106
-711.857
-833.645
-958.055
-1081.43
-1200.621
-1311.567
-1411.344
-1497.947
-1569.406
-1625.528
-1667.327
-1694.967
-1709.033
-1711.274
-1703.068
-1686.463
-1664.393
-1638.632
-1610.363
-1581.547
-1553.993
-1528.994
-1508.067
-1491.657
-1479.032
-1469.864
-1463.837
-1459.908
-1456.872
-1453.599
-1448.763
-1441.869
-1433.287
-1423.316
-1412.414
-1401.355
-1390.943
-1381.953
-1375.132
-1370.525
-1367.686
-1366.419
-1366.235
-1366.509
-1367.078
-1366.258
-1362.546
-1357.354
-1351.083
-1346.696
-1347.79
-1350.458
-1352.158
-1349.043
-1335.769
-1317.197
-1297.465
-1279.457
-1267.916
-1259.706
-1251.636
-1243.123
-1232.254
-1220.289
-1208.826
-1197.619
-1186.875
-1176.518
-1166.243
-1156.234
-1146.644
-1137.391
-1128.421
-1119.716
-1111.22
-1102.863
-1094.58
-1086.27
-1077.839
-1069.259
-1060.505
-1051.542
-1042.347
-1032.895
-1023.163
-1013.147
-1002.835
-992.211
-981.258
-969.959
-958.298
-946.27
-933.867
-921.085
-907.922
-894.371
-880.427
-866.087
-851.348
-836.208
-820.666
-804.72
-788.372
-771.629
-754.499
-736.994
-719.127
-700.913
-682.37
-663.515
-644.371
-624.957
-605.298
-585.415
-565.335
-545.084
-524.69
-504.183
-483.594
-462.954
-442.295
-421.651
-401.056
-380.543
-360.147
-339.902
-319.842
-300.004
-280.421
-261.131
-242.167
-223.569
-205.37
-187.604
-170.306
-153.507
-137.238
-121.528
-106.403
-91.885
-77.998
-64.763
-52.2
-40.329
-29.166
-18.725
-9.022
-0.067
8.129
15.559
22.219
28.11
33.233
37.59
41.182
44.007
46.076
47.409
48.03
47.97
47.268
45.968
44.127
41.816
39.097
36.03
32.673
29.07
25.282
21.366
17.373
13.362
9.375
5.43
1.544
-2.277
-6.055
-9.81
-13.577
-17.421
-21.366
-25.424
-29.598
-33.859
-38.187
-42.555
-46.903
-51.171
-55.281
-59.111
-62.538
-65.419
-67.557
-68.777
-68.895
-67.703
-65.054
-60.833
-54.939
-47.322
-37.946
-26.79
-13.886
0.711
16.934
34.658
53.74
74.011
95.235
117.192
139.669
162.428
185.278
208.059
230.617
252.816
274.543
295.689
316.175
335.961
355.015
373.298
390.79
407.551
423.678
439.24
454.303
468.865
482.864
496.326
509.31
521.611
532.976
543.485
553.081
561.68
569.696
575.899
579.082
580.847
581.625
584.408
592.814
602.798
611.671
615.444
608.643
596.177
582.246
569.748
563.411
559.949
556.01
550.884
542.561
532.289
521.662
510.416
498.767
486.646
473.783
460.427
446.767
432.744
418.302
403.44
388.177
372.561
356.677
340.579
324.32
308.021
291.838
275.951
260.543
245.755
231.689
218.449
206.154
194.952
185.021
176.481
169.383
163.743
159.548
156.796
155.478
155.529
156.82
159.167
162.395
166.384
171.078
176.424
182.327
188.687
195.402
202.434
209.843
217.705
226.027
234.774
243.965
253.63
263.828
274.695
286.252
298.339
310.86
323.754
336.674
349.277
361.599
373.313
383.955
393.944
401.93
406.284
408.807
409.991
412.69
422.31
435.462
447.189
452.386
441.399
415.787
384.957
355.349
337.072
332.903
333.894
334.854
330.532
317.203
300.469
283.996
269.057
257.78
248.368
239.539
231.857
225.065
219.712
214.895
209.077
203.514
198.543
197.056
202.52
210.76
218.984
223.031
217.273
206.585
194.969
185.054
181.501
181.014
180.439
179.543
176.722
173.562
172.161
172.888
176.338
182.399
190.149
198.559
206.857
214.615
221.557
227.364
231.82
235.446
240.053
248.583
263.815
287.67
321.395
366.288
424.051
495.393
579.157
672.47
771.413
872.386
972.494
1068.05
1153.821
1224.864
1277.255
1308.373
1317.605
1304.594
1268.504
1210.097
1132.472
1039.866
937.589
831.216
724.929
623.253
531.597
454.166
393.753
351.727
327.346
318.915
325.285
344.299
372.734
407.807
446.489
486.284
526.179
565.273
602.115
636.07
666.903
694.126
718.256
739.868
758.899
775.889
791.849
807.268
822.792
839.02
855.394
871.531
887.423
902.271
915.568
925.937
930.313
928.932
924.249
920.489
925.363
938.734
953.734
963.217
956.817
934.435
906.287
880.315
865.179
862.195
863.852
865.632
864.369
859.216
853.26
847.792
842.633
837.816
832.829
827.538
822.335
817.28
812.213
807.055
801.731
796.16
790.297
784.086
777.458
770.417
763.038
755.399
747.576
739.644
731.661
723.687
715.779
708
700.413
693.088
686.103
679.519
673.387
667.748
662.634
658.065
654.053
650.599
647.689
645.314
643.464
642.131
641.305
640.971
641.109
641.696
642.704
644.102
645.861
647.946
650.323
652.954
655.801
658.826
661.993
665.259
668.581
671.913
675.208
678.419
681.499
684.4
687.076
689.481
691.571
693.304
694.641
695.544
695.979
695.912
695.313
694.154
692.411
690.061
687.085
683.468
679.195
674.256
668.644
662.353
655.381
647.731
639.404
630.409
620.754
610.451
599.516
587.965
575.818
563.099
549.832
536.043
521.761
507.018
491.845
476.275
460.342
444.082
427.529
410.719
393.688
376.471
359.105
341.625
324.066
306.461
288.846
271.252
253.712
236.257
218.917
201.721
184.698
167.874
151.275
134.927
118.851
103.071
87.606
72.474
57.693
43.276
29.237
15.586
2.333
-10.515
-22.954
-34.98
-46.59
-57.785
-68.566
-78.937
-88.902
-98.466
-107.636
-116.42
-124.826
-132.864
-140.545
-147.877
-154.874
-161.546
-167.907
-173.969
-179.745
-185.251
-190.5
-195.507
-200.288
-204.858
-209.231
-213.424
-217.451
-221.326
-225.063
-228.677
-232.18
-235.585
-238.902
-242.142
-245.315
-248.43
-251.493
-254.512
-257.492
-260.437
-263.353
-266.242
-269.109
-271.956
-274.786
-277.6
-280.4
-283.188
-285.964
-288.728
-291.481
-294.222
-296.95
-299.663
-302.359
-305.037
-307.694
-310.327
-312.932
-315.507
-318.048
-320.551
-323.014
-325.431
-327.802
-330.124
-332.395
-334.613
-336.777
-338.889
-340.947
-342.952
-344.905
-346.806
-348.656
-350.455
-352.204
-353.902
-355.551
-357.15
-358.698
-360.196
-361.642
-363.037
-364.378
-365.665
-366.896
-368.072
-369.189
-370.248
-371.246
-372.184
-373.06
-373.872
-374.62
-375.302
-375.916
-376.458
-376.926
-377.315
-377.622
-377.842
-377.969
-377.997
-377.921
-377.735
-377.433
-377.008
-376.455
-375.768
-374.942
-373.972
-372.855
-371.587
-370.164
-368.586
-366.851
-364.958
-362.906
-360.697
-358.33
-355.807
-353.13
-350.301
-347.323
-344.2
-340.935
-337.535
-334.004
-330.35
-326.581
-322.705
-318.733
-314.675
-310.546
-306.359
-302.129
-297.873
-293.608
-289.355
-285.133
-280.962
-276.861
-272.85
-268.949
-265.176
-261.551
-258.087
-254.801
-251.711
-248.831
-246.179
-243.77
-241.613
-239.72
-238.104
-236.771
-235.731
-234.988
-234.54
-234.385
-234.525
-234.955
-235.677
-236.685
-237.958
-239.473
-241.206
-243.119
-245.175
-247.326
-249.506
-251.651
-253.699
-255.587
-257.268
-258.687
-259.782
-260.492
-260.751
-260.495
-259.69
-258.298
-256.281
-253.637
-250.371
-246.504
-242.104
-237.243
-231.996
-226.445
-220.66
-214.683
-208.551
-202.309
-196.017
-189.756
-183.581
-177.533
-171.619
-165.839
-160.26
-154.841
-149.377
-143.489
-136.573
-128.075
-117.624
-104.757
-88.923
-69.963
-47.992
-23.674
1.575
26.797
51.242
73.539
92.687
108.433
122.123
137.946
160.346
191.047
227.379
263.081
294.534
325.539
369.509
445.339
564.247
720.622
889.788
1034.857
1125.536
1152.175
1126.557
1073.643
1015.095
958.178
897.883
824.858
734.267
628.573
515.156
401.788
293.37
193.757
105.777
30.954
-29.177
-74.526
-106.464
-126.003
-134.684
-135.012
-129.146
-119.239
-107.283
-93.987
-79.54
-64.468
-49.044
-33.682
-19.348
-6.685
3.661
10.639
13.494
11.95
5.995
-3.517
-14.977
-27.071
-38.538
-48.21
-55.399
-59.661
-60.802
-59.315
-56.187
-52.129
-47.687
-43.17
-38.554
-33.832
-28.971
-23.708
-17.622
-10.457
-2.103
7.396
17.822
29.004
40.814
53.096
65.672
78.388
91.114
103.75
116.257
128.596
140.713
152.564
164.098
175.282
186.102
196.558
206.643
216.343
225.645
234.528
242.98
250.989
258.543
265.631
272.244
278.369
284.005
289.148
293.8
297.961
301.627
304.795
307.464
309.638
311.322
312.524
313.251
313.512
313.316
312.676
311.602
310.103
308.19
305.87
303.154
300.051
296.572
292.727
288.527
283.983
279.106
273.909
268.403
262.601
256.515
250.158
243.545
236.689
229.605
222.308
214.815
207.143
199.309
191.333
183.235
175.035
166.757
158.423
150.057
141.686
133.335
125.031
116.801
108.675
100.681
92.85
85.209
77.79
70.622
63.734
57.157
50.918
45.044
39.563
34.499
29.876
25.716
22.04
18.866
16.211
14.089
12.511
11.488
11.027
11.13
11.8
13.035
14.829
17.175
20.063
23.477
27.402
31.817
36.702
42.031
47.778
53.913
60.406
67.224
74.331
81.691
89.269
97.024
104.919
112.915
120.972
129.051
137.114
145.122
153.038
160.825
168.448
175.872
183.064
189.994
196.632
202.95
208.925
214.532
219.753
224.57
228.969
232.936
236.462
239.542
242.169
244.343
246.063
247.334
248.16
248.549
248.511
248.055
247.196
245.946
244.322
242.338
240.013
237.363
234.405
231.16
227.644
223.878
219.879
215.667
211.261
206.678
201.937
197.054
192.047
186.931
181.719
176.427
171.066
165.648
160.184
154.682
149.15
143.595
138.023
132.438
126.843
121.239
115.63
110.015
104.394
98.768
93.135
87.494
81.846
76.187
70.517
64.835
59.137
53.423
47.689
41.935
36.158
30.356
24.528
18.671
12.784
6.867
0.916
-5.067
-11.085
-17.138
-23.227
-29.35
-35.509
-41.701
-47.926
-54.183
-60.468
-66.78
-73.118
-79.478
-85.86
-92.261
-98.68
-105.116
-111.567
-118.031
-124.506
-130.991
-137.484
-143.982
-150.482
-156.983
-163.483
-169.981
-176.475
-182.962
-189.441
-195.909
-202.365
-208.806
-215.229
-221.629
-228.005
-234.353
-240.671
-246.957
-253.207
-259.421
-265.597
-271.733
-277.827
-283.876
-289.877
-295.827
-301.725
-307.567
-313.352
-319.08
-324.75
-330.364
-335.928
-341.444
-346.916
-352.348
-357.742
-363.102
-368.432
-373.734
-379.011
-384.264
-389.498
-394.721
-399.944
-405.177
-410.432
-415.718
-421.048
-426.435
-431.892
-437.427
-443.043
-448.743
-454.535
-460.433
-466.456
-472.616
-478.915
-485.355
-491.934
-498.646
-505.481
-512.411
-519.387
-526.368
-533.314
-540.203
-547.037
-553.808
-560.506
-567.126
-573.656
-580.106
-586.502
-592.855
-599.161
-605.428
-611.669
-617.935
-624.317
-630.884
-637.695
-644.784
-652.145
-659.769
-667.631
-675.659
-683.753
-691.782
-699.574
-706.987
-713.902
-720.172
-725.651
-730.153
-733.44
-735.297
-735.509
-733.867
-730.188
-724.316
-716.14
-705.635
-692.849
-677.877
-660.893
-642.072
-621.6
-599.712
-576.642
-552.638
-527.976
-502.964
-477.958
-453.37
-429.647
-407.202
-386.377
-367.49
-350.859
-336.634
-324.71
-314.754
-306.153
-298.297
-290.801
-283.22
-274.952
-265.705
-255.623
-245.36
-236.208
-229.298
-225.017
-223.573
-225.212
-229.521
-235.221
-239.971
-240.188
-232.361
-214.152
-183.823
-139.771
-81.181
-8.527
76.16
169.009
265.281
360.94
452.435
535.705
606.576
661.502
697.686
713.682
709.592
685.344
640.616
576.405
494.924
399.362
294.103
183.752
72.167
-36.091
-135.681
-222.069
-291.714
-342.84
-375.846
-392.183
-393.583
-382.877
-364.048
-341.299
-318.665
-298.774
-282.571
-270.268
-261.74
-256.332
-252.803
-249.512
-244.746
-237.629
-228.222
-216.938
-204.315
-190.867
-177.087
-163.592
-151.063
-139.822
-129.823
-120.842
-112.521
-104.59
-96.928
-89.409
-81.87
-74.193
-66.283
-58.098
-49.727
-41.268
-32.78
-24.336
-15.996
-7.829
0.06
7.57
14.626
21.197
27.301
32.997
38.356
43.433
48.27
52.919
57.469
62.012
66.619
71.345
76.225
81.29
86.58
92.132
97.959
104.042
110.338
116.774
123.262
129.73
136.122
142.379
148.442
154.265
159.807
165.051
169.998
174.646
178.989
183.024
186.751
190.185
193.348
196.272
198.995
201.545
203.94
206.197
208.328
210.334
212.219
213.97
215.57
217.002
218.256
219.32
220.186
220.842
221.276
221.474
221.424
221.115
220.538
219.686
218.552
217.132
215.422
213.421
211.132
208.555
205.69
202.537
199.096
195.367
191.353
187.056
182.478
177.617
172.479
167.075
161.412
155.501
149.349
142.959
136.34
129.517
122.494
115.258
107.799
100.107
92.191
84.099
75.844
67.399
58.799
50.137
41.488
32.932
24.485
16.047
7.592
-0.759
-9.119
-17.902
-27.191
-36.864
-46.975
-57.076
-67.999
-82.332
-99.511
-117.163
-131.367
-134.753
-127.786
-117.859
-112.345
-121.714
-146.616
-177.164
-205.72
-224.031
-230.681
-233.072
-235.746
-241.808
-252.186
-263.866
-275.484
-287.15
-298.77
-310.802
-323.354
-336.016
-348.653
-361.313
-373.956
-386.518
-398.963
-411.274
-423.461
-435.581
-447.659
-459.658
-471.569
-483.4
-495.136
-506.768
-518.293
-529.68
-540.917
-552.02
-563.011
-573.947
-584.897
-595.885
-606.911
-617.953
-628.943
-639.808
-650.457
-660.764
-670.628
-679.964
-688.684
-696.733
-704.056
-710.561
-716.152
-720.703
-724.058
-726.123
-726.838
-726.16
-724.115
-720.75
-716.146
-710.446
-703.777
-696.234
-687.915
-678.879
-669.185
-658.927
-648.2
-637.116
-625.821
-614.426
-603.02
-591.694
-580.49
-569.428
-558.503
-547.66
-536.855
-526.08
-515.335
-504.645
-494.049
-483.572
-473.242
-463.091
-453.132
-443.385
-433.875
-424.621
-415.659
-407.03
-398.789
-391.009
-383.765
-377.125
-371.135
-365.816
-361.199
-357.325
-354.225
-351.94
-350.471
-349.76
-349.793
-350.598
-352.153
-354.419
-357.34
-360.787
-364.752
-369.397
-374.773
-380.793
-387.54
-395.25
-403.891
-413.398
-423.673
-433.81
-444.523
-458.442
-474.802
-491.621
-504.195
-502.631
-487.922
-469.743
-459.067
-473.518
-513.635
-562.362
-605.118
-623.533
-614.966
-596.527
-580.224
-577.137
-590.146
-608.933
-627.469
-642.806
-653.55
-663.019
-672.702
-681.899
-690.412
-697.575
-702.903
-706.548
-708.486
-708.55
-706.73
-703.028
-697.356
-689.614
-679.727
-667.625
-653.307
-636.792
-618.054
-597.156
-574.285
-549.749
-523.932
-497.138
-469.553
-441.323
-412.593
-383.515
-354.222
-324.801
-295.313
-265.899
-236.869
-208.675
-181.737
-156.505
-133.587
-113.271
-95.494
-80.237
-66.97
-56.198
-50.181
-49.565
-52.678
-53.709
-42.512
-13.365
29.778
72.685
94.194
79.723
31.767
-30.749
-80.563
-96.897
-76.827
-34.835
7.085
32.451
36.325
26.227
14.46
6.637
4.227
2.695
-4.884
-15.62
-26.378
-32.843
-29.113
-20.315
-11.102
-4.655
-5.844
-11.015
-16.678
-21.867
-23.497
-23.901
-26.023
-27.748
-29.116
-26.135
-12.364
6.882
25.844
36.395
25.66
-1.032
-32.368
-57.874
-61.712
-45.62
-21.44
2.978
17.05
20.947
23.847
29.202
39.058
52.004
61.548
65.35
64.078
56.958
46.092
34.827
24.27
19.021
22.485
35.071
63.106
112.081
187.265
293.274
423.019
566.809
714.163
854.374
984.915
1102.049
1200.588
1277.919
1329.224
1352.763
1350.682
1323.774
1274.18
1206.269
1123.996
1032.191
936.543
840.807
748.131
662.986
589.099
529.048
485.06
457.329
444.432
445.383
458.511
480.651
508.603
538.943
568.178
594.565
617.55
636.598
651.843
664.075
674.138
683.385
693.288
704.273
716.155
728.629
741.104
753.032
764.004
773.39
780.568
785.343
787.786
788.152
786.852
784.204
780.461
775.934
770.949
765.792
760.716
755.867
751.299
747.061
743.18
739.677
736.554
733.767
731.243
728.903
726.675
724.498
722.317
720.068
717.677
715.074
712.19
708.988
705.459
701.602
697.431
692.964
688.227
683.263
678.124
672.857
667.503
662.099
656.676
651.269
645.919
640.661
635.53
630.553
625.754
621.155
616.775
612.63
608.731
605.085
601.696
598.569
595.708
593.118
590.798
588.749
586.965
585.442
584.172
583.144
582.343
581.753
581.356
581.13
581.056
581.11
581.268
581.504
581.793
582.108
582.422
582.707
582.935
583.078
583.108
582.998
582.723
582.255
581.571
580.647
579.462
577.996
576.229
574.145
571.729
568.967
565.85
562.368
558.514
554.284
549.677
544.691
539.331
533.6
527.506
521.056
514.262
507.136
499.69
491.94
483.902
475.594
467.035
458.244
449.241
440.05
430.69
421.186
411.559
401.832
392.029
382.171
372.281
362.381
352.492
342.635
332.83
323.096
313.452
303.916
294.504
285.231
276.113
267.162
258.391
249.812
241.436
233.271
225.328
217.615
210.138
202.905
195.922
189.194
182.725
176.518
170.576
164.901
159.493
154.355
149.486
144.885
140.552
136.485
132.683
129.145
125.868
122.85
120.089
117.581
115.325
113.317
111.555
110.036
108.757
107.715
106.906
106.328
105.975
105.843
105.927
106.222
106.721
107.419
108.307
109.378
110.626
112.041
113.616
115.342
117.21
119.211
121.335
123.574
125.915
128.35
130.866
133.454
136.101
138.797
141.528
144.282
147.047
149.808
152.553
155.268
157.937
160.547
163.082
165.53
167.875
170.103
172.202
174.157
175.958
177.59
179.043
180.306
181.367
182.215
182.841
183.235
183.388
183.29
182.934
182.312
181.418
180.243
178.784
177.034
174.99
172.648
170.005
167.061
163.815
160.268
156.424
152.285
147.858
143.148
138.163
132.913
127.407
121.657
115.674
109.473
103.066
96.47
89.7
82.776
75.714
68.534
61.259
53.908
46.505
39.072
31.636
24.219
16.849
9.551
2.353
-4.719
-11.636
-18.372
-24.899
-31.19
-37.219
-42.961
-48.393
-53.489
-58.23
-62.593
-66.561
-70.114
-73.238
-75.917
-78.139
-79.893
-81.171
-81.965
-82.271
-82.087
-81.411
-80.245
-78.593
-76.461
-73.855
-70.787
-67.267
-63.31
-58.933
-54.153
-48.992
-43.471
-37.613
-31.445
-24.991
-18.28
-11.339
-4.197
3.118
10.576
18.147
25.801
33.51
41.243
48.972
56.668
64.304
71.852
79.287
86.585
93.721
100.672
107.417
113.935
120.206
126.209
131.923
137.329
142.41
147.15
151.534
155.549
159.184
162.434
165.296
167.77
169.853
171.546
172.847
173.755
174.274
174.41
174.168
173.557
172.587
171.272
169.637
167.702
165.48
162.979
160.193
157.121
153.775
150.168
146.319
142.257
138.012
133.631
129.181
124.723
120.311
115.991
111.786
107.734
103.885
100.303
97.069
94.248
91.881
89.998
88.608
87.689
87.196
87.049
87.134
87.331
87.515
87.55
87.307
86.648
85.435
83.486
80.53
76.411
71.168
65.028
58.489
52.08
46.182
41.259
37.965
36.651
37.145
38.724
39.938
39.358
36.265
30.192
20.627
7.714
-7.371
-22.377
-33.682
-37.392
-30.838
-11.963
21.428
70.59
135.35
214.135
303.044
396.891
491.437
582.414
664.366
732.214
781.471
808.163
810.943
790.23
745.883
678.89
592.345
489.854
376.274
257.667
138.528
22.652
-85.121
-181.149
-263.21
-329.252
-379.153
-414.422
-435.944
-445.077
-444.491
-436.119
-421.577
-403.313
-382.72
-360.579
-338.362
-316.847
-296.016
-276.545
-259.208
-243.741
-230.038
-217.741
-205.646
-193.24
-180.533
-167.02
-152.13
-135.947
-118.723
-101.211
-84.873
-70.527
-58.452
-49.055
-42.603
-39.13
-38.62
-40.644
-44.348
-49.224
-55.014
-61.467
-68.482
-75.867
-83.289
-90.559
-97.584
-104.201
-110.29
-115.734
-120.382
-124.203
-127.244
-129.558
-131.245
-132.379
-132.99
-133.135
-132.871
-132.26
-131.411
-130.427
-129.41
-128.493
-127.771
-127.301
-127.136
-127.278
-127.698
-128.37
-129.242
-130.253
-131.363
-132.531
-133.716
-134.892
-136.01
-137.022
-137.874
-138.502
-138.856
-138.906
-138.625
-138.003
-137.042
-135.745
-134.126
-132.213
-130.028
-127.589
-124.917
-122.026
-118.938
-115.678
-112.274
-108.758
-105.159
-101.508
-97.834
-94.168
-90.539
-86.975
-83.503
-80.148
-76.934
-73.889
-71.04
-68.415
-66.039
-63.936
-62.13
-60.643
-59.494
-58.702
-58.281
-58.243
-58.598
-59.355
-60.52
-62.097
-64.085
-66.483
-69.287
-72.491
-76.085
-80.059
-84.398
-89.089
-94.112
-99.45
-105.081
-110.985
-117.137
-123.513
-130.089
-136.839
-143.737
-150.757
-157.871
-165.053
-172.276
-179.515
-186.742
-193.934
-201.065
-208.112
-215.053
-221.866
-228.531
-235.028
-241.34
-247.451
-253.346
-259.012
-264.438
-269.614
-274.531
-279.185
-283.57
-287.684
-291.525
-295.093
-298.389
-301.415
-304.176
-306.674
-308.916
-310.908
-312.657
-314.171
-315.458
-316.527
-317.387
-318.049
-318.521
-318.813
-318.936
-318.901
-318.716
-318.393
-317.942
-317.373
-316.697
-315.923
-315.061
-314.119
-313.106
-312.029
-310.895
-309.712
-308.484
-307.217
-305.917
-304.587
-303.232
-301.857
-300.464
-299.057
-297.64
-296.214
-294.783
-293.348
-291.913
-290.479
-289.048
-287.623
-286.206
-284.798
-283.402
-282.018
-280.649
-279.296
-277.959
-276.64
-275.339
-274.056
-272.794
-271.551
-270.33
-269.132
-267.957
-266.806
-265.681
-264.584
-263.514
-262.473
-261.461
-260.48
-259.529
-258.609
-257.721
-256.863
-256.036
-255.239
-254.471
-253.731
-253.016
-252.327
-251.659
-251.011
-250.379
-249.763
-249.158
-248.562
-247.972
-247.386
-246.801
-246.213
-245.619
-245.017
-244.403
-243.774
-243.125
-242.453
-241.754
-241.026
-240.264
-239.466
-238.627
-237.745
-236.818
-235.842
-234.815
-233.735
-232.601
-231.412
-230.166
-228.864
-227.505
-226.091
-224.622
-223.099
-221.525
-219.9
-218.227
-216.508
-214.746
-212.945
-211.106
-209.234
-207.333
-205.406
-203.457
-201.491
-199.513
-197.527
-195.538
-193.55
-191.569
-189.6
-187.647
-185.714
-183.807
-181.929
-180.083
-178.273
-176.502
-174.771
-173.082
-171.437
-169.837
-168.282
-166.774
-165.311
-163.894
-162.521
-161.191
-159.902
-158.653
-157.44
-156.26
-155.11
-153.985
-152.882
-151.798
-150.727
-149.665
-148.608
-147.55
-146.486
-145.412
-144.322
-143.211
-142.075
-140.91
-139.713
-138.481
-137.212
-135.904
-134.558
-133.173
-131.75
-130.289
-128.792
-127.26
-125.696
-124.104
-122.487
-120.848
-119.195
-117.534
-115.876
-114.232
-112.612
-111.028
-109.491
-108.014
-106.608
-105.284
-104.048
-102.906
-101.865
-100.933
-100.123
-99.443
-98.899
-98.499
-98.245
-98.142
-98.193
-98.395
-98.736
-99.208
-99.806
-100.534
-101.41
-102.447
-103.647
-105.011
-106.533
-108.195
-109.981
-111.853
-113.754
-115.628
-117.417
-119.072
-120.569
-121.863
-122.903
-123.629
-123.957
-123.822
-123.186
-122.015
-120.31
-118.103
-115.448
-112.429
-109.178
-105.829
-102.533
-99.451
-96.716
-94.492
-92.937
-92.256
-92.768
-94.611
-97.773
-102.115
-107.193
-112.453
-117.453
-121.558
-123.941
-124.333
-122.735
-119.371
-115.581
-112.894
-112.408
-115.483
-121.956
-129.498
-136.158
-140.531
-143.636
-148.732
-156.288
-161.436
-151.361
-110.723
-28.867
95.506
248.174
406.766
547.677
651.895
714.032
739.603
740.63
728.355
707.114
674.09
621.762
546.634
450.512
338.956
220.963
102.849
-11.537
-117.683
-211.97
-291.468
-353.554
-397.862
-425.925
-439.16
-439.506
-429.914
-413.127
-391.686
-367.881
-342.723
-316.291
-288.724
-260.175
-230.712
-200.847
-171.576
-143.915
-119.018
-98.228
-82.552
-72.307
-67.449
-67.398
-70.416
-74.664
-79.064
-82.328
-84.44
-87.402
-90.89
-93.269
-91.974
-81.408
-61.034
-36.694
-17.116
-12.635
-27.161
-54.954
-83.584
-101.689
-103.175
-88.944
-68.94
-50.892
-38.939
-35.503
-35.697
-35.996
-35.621
-32.861
-29.228
-26.078
-23.012
-20.349
-18.006
-15.669
-13.576
-11.889
-10.553
-9.588
-9.014
-8.78
-8.824
-9.079
-9.441
-9.797
-10.105
-10.331
-10.428
-10.363
-10.101
-9.609
-8.875
-7.903
-6.684
-5.206
-3.456
-1.42
0.907
3.52
6.413
9.58
13.012
16.701
20.635
24.798
29.176
33.753
38.517
43.452
48.54
53.759
59.085
64.492
69.952
75.437
80.918
86.363
91.742
97.026
102.186
107.195
112.026
116.65
121.044
125.183
129.043
132.603
135.837
138.728
141.264
143.432
145.223
146.626
147.626
148.219
148.416
148.208
147.573
146.493
144.951
142.953
140.545
137.744
134.526
130.929
127.059
122.999
118.844
114.625
110.258
105.728
101.177
96.516
91.349
85.599
79.423
72.79
66.163
58.783
48.046
34.441
20.449
9.977
10.51
21.883
36.56
47.121
43.01
23.205
-2.203
-25.387
-38.008
-38.309
-33.791
-29.151
-27.484
-29.856
-33.209
-36.088
-38.612
-40.666
-42.706
-44.869
-46.745
-48.207
-49.334
-50.123
-50.563
-50.679
-50.498
-50.067
-49.469
-48.736
-47.848
-46.804
-45.619
-44.303
-42.87
-41.328
-39.678
-37.927
-36.089
-34.174
-32.191
-30.147
-28.048
-25.899
-23.706
-21.471
-19.199
-16.892
-14.551
-12.177
-9.771
-7.332
-4.86
-2.354
0.187
2.764
5.379
8.033
10.726
13.46
16.234
19.049
21.903
24.795
27.724
30.686
33.679
36.699
39.741
42.8
45.872
48.949
52.024
55.091
58.14
61.163
64.149
67.089
69.973
72.789
75.526
78.174
80.722
83.158
85.472
87.652
89.69
91.575
93.299
94.855
96.235
97.435
98.449
99.276
99.912
100.357
100.612
100.678
100.558
100.255
99.775
99.125
98.311
97.341
96.225
94.973
93.596
92.105
90.511
88.828
87.066
85.241
83.364
81.451
79.515
77.569
75.624
73.693
71.787
69.916
68.091
66.319
64.608
62.965
61.396
59.907
58.506
57.191
55.963
54.821
53.761
52.785
51.894
51.087
50.36
49.712
49.135
48.624
48.178
47.794
47.467
47.187
46.942
46.722
46.524
46.368
46.249
46.118
45.936
45.657
45.253
44.784
44.276
43.67
43.005
42.379
41.836
41.537
41.575
41.7
41.803
41.931
41.797
41.078
39.911
38.371
36.356
34.688
32.52
27.072
19.449
12.112
9.293
19.918
43.376
70.399
91.971
94.893
77.658
52.8
30.158
19.822
23.893
33.584
43.371
50.006
52.848
55.137
58.16
61.644
65.416
68.921
72.094
75.159
78.014
80.718
83.389
86.111
88.997
91.941
94.794
97.504
100.051
102.434
104.644
106.633
108.348
109.795
110.979
111.902
112.566
112.946
113.02
112.782
112.225
111.353
110.178
108.707
106.943
104.884
102.517
99.833
96.837
93.53
89.926
86.045
81.911
77.572
73.096
68.545
63.98
59.453
54.994
50.648
46.474
42.545
38.951
35.774
33.072
30.892
29.263
28.188
27.643
27.572
27.876
28.444
29.18
29.974
30.719
31.3
31.565
31.303
30.25
28.246
25.274
21.515
17.406
13.451
10.134
8.075
8.028
10.384
15.089
21.535
28.083
33.068
35.449
33.877
28.392
19.898
8.149
-4.804
-18.096
-30.675
-34.895
-24.813
7.417
68.273
150.356
246.677
350.84
457.177
571.373
693.481
812.571
912.815
974.882
989.084
960.906
905.023
835.523
759.779
678.781
588.607
487.665
379.393
268.334
160.056
60.059
-28.517
-103.683
-163.636
-207.985
-237.536
-252.78
-254.747
-246.044
-229.654
-208.84
-187.275
-165.909
-142.923
-117.864
-92.46
-72.586
-66.703
-78.497
-102.635
-123.419
-124.633
-97.112
-43.976
14.722
60.806
83.566
80.495
65.932
51.632
42.959
43.618
47.248
49.066
48.845
45.208
40.02
35.04
29.817
24.634
19.677
14.825
10.454
6.94
4.371
2.842
2.45
3.152
4.85
7.476
10.897
14.946
19.512
24.448
29.607
34.873
40.104
45.182
50.024
54.547
58.705
62.485
65.869
68.863
71.491
73.773
75.745
77.456
78.941
80.25
81.434
82.545
83.647
84.793
86.018
87.355
88.826
90.442
92.218
94.161
96.263
98.525
100.946
103.521
106.251
109.134
112.16
115.319
118.597
121.979
125.454
129.009
132.631
136.306
140.02
143.759
147.51
151.259
154.986
158.674
162.3
165.843
169.283
172.598
175.765
178.764
181.575
184.179
186.559
188.697
190.578
192.187
193.509
194.533
195.246
195.641
195.707
195.44
194.834
193.887
192.599
190.97
189.004
186.703
184.074
181.125
177.864
174.302
170.45
166.323
161.935
157.301
152.44
147.368
142.105
136.67
131.084
125.367
119.539
113.623
107.637
101.605
95.545
89.479
83.427
77.407
71.439
65.541
59.731
54.024
48.438
42.986
37.684
32.545
27.579
22.797
18.209
13.822
9.641
5.673
1.92
-1.616
-4.934
-8.033
-10.916
-13.584
-16.041
-18.293
-20.344
-22.203
-23.876
-25.372
-26.7
-27.871
-28.895
-29.781
-30.539
-31.179
-31.712
-32.149
-32.498
-32.769
-32.971
-33.117
-33.218
-33.284
-33.327
-33.354
-33.376
-33.402
-33.441
-33.495
-33.568
-33.657
-33.768
-33.904
-34.066
-34.253
-34.466
-34.703
-34.968
-35.272
-35.609
-35.971
-36.358
-36.767
-37.202
-37.686
-38.225
-38.81
-39.468
-40.225
-41.057
-41.954
-42.903
-43.859
-44.828
-45.847
-46.865
-47.819
-48.909
-50.365
-52.064
-53.996
-56.175
-58.139
-61.094
-66.199
-71.723
-77.093
-79.186
-74.321
-66.683
-59.087
-55.652
-61.993
-73.151
-84.933
-94.486
-97.093
-96.18
-95.2
-94.932
-97.51
-101.79
-106.291
-111.34
-116.693
-122.349
-128.523
-134.948
-141.414
-147.937
-154.478
-160.95
-167.303
-173.524
-179.596
-185.497
-191.209
-196.642
-201.695
-206.339
-210.573
-214.401
-217.862
-221.006
-223.796
-226.15
-228.024
-229.36
-230.16
-230.524
-230.455
-229.827
-228.803
-227.87
-227.14
-226.512
-226.045
-225.209
-225.009
-228.206
-233.991
-239.927
-241.64
-231.232
-209.807
-185.18
-165.347
-161.61
-173.889
-191.708
-207.034
-210.941
-202.544
-189.758
-177.245
-168.431
-164.087
-160.991
-157.849
-154.748
-151.612
-148.947
-146.841
-144.868
-142.92
-141.07
-139.305
-137.604
-135.984
-134.461
-133.073
-131.888
-130.917
-130.116
-129.463
-128.951
-128.564
-128.292
-128.115
-128.007
-127.949
-127.929
-127.93
-127.937
-127.932
-127.899
-127.821
-127.687
-127.486
-127.206
-126.831
-126.35
-125.755
-125.038
-124.202
-123.242
-122.143
-120.915
-119.582
-118.166
-116.694
-115.174
-113.584
-111.932
-110.27
-108.588
-106.823
-104.933
-102.868
-100.643
-98.378
-96.119
-93.775
-91.483
-89.664
-88.415
-87.642
-87.416
-87.319
-88.191
-92.507
-99.68
-107.472
-112.099
-106.535
-91.394
-73.695
-60.493
-61.782
-77.951
-99.593
-119.436
-129.554
-128.719
-123.908
-119.326
-117.894
-120.382
-123.879
-127.086
-130.035
-132.568
-135.037
-137.454
-139.371
-140.621
-141.227
-141.18
-140.483
-139.219
-137.513
-135.483
-133.287
-131.052
-128.846
-126.794
-125.049
-123.737
-123.054
-123.279
-124.533
-126.767
-129.738
-132.877
-135.614
-137.533
-138.1
-136.663
-132.909
-127.04
-119.864
-112.92
-107.641
-104.713
-104.56
-107.644
-113.797
-121.821
-129.394
-132.817
-128.191
-112.94
-85.144
-42.633
15.928
90.483
179.574
279.293
384.416
490.733
593.95
688.357
768.421
829.024
865.483
875.975
860.509
818.475
750.605
660.002
550.672
428.346
300.076
171.113
46.051
-69.404
-170.862
-255.378
-320.906
-368.218
-399.716
-416.947
-421.847
-417.441
-406.272
-391.038
-374.102
-355.444
-334.579
-311.881
-287.684
-262.462
-236.731
-210.219
-183.012
-156.798
-133.022
-112.404
-95.185
-80.564
-67.98
-57.696
-49.603
-42.854
-36.812
-31.041
-25.593
-21.435
-19.16
-18.709
-20.054
-23.13
-27.765
-33.848
-40.971
-48.282
-55.101
-60.996
-65.65
-68.981
-70.957
-71.5
-70.636
-68.492
-65.196
-60.908
-55.783
-49.925
-43.456
-36.512
-29.231
-21.789
-14.38
-7.158
-0.229
6.342
12.532
18.318
23.68
28.621
33.174
37.39
41.32
45.002
48.467
51.749
54.898
57.976
61.054
64.176
67.37
70.65
74.022
77.491
81.061
84.72
88.447
92.221
96.025
99.849
103.685
107.519
111.334
115.108
118.819
122.451
125.99
129.418
132.719
135.879
138.883
141.72
144.381
146.855
149.128
151.189
153.024
154.621
155.972
157.066
157.895
158.453
158.735
158.739
158.466
157.916
157.091
155.995
154.634
153.013
151.139
149.022
146.67
144.094
141.306
138.319
135.148
131.807
128.31
124.675
120.918
117.055
113.104
109.082
105.006
100.895
96.765
92.634
88.518
84.433
80.395
76.418
72.517
68.702
64.986
61.377
57.885
54.515
51.275
48.169
45.201
42.373
39.689
37.15
34.755
32.505
30.398
28.433
26.606
24.915
23.356
21.924
20.614
19.422
18.341
17.366
16.492
15.71
15.015
14.4
13.858
13.383
12.966
12.602
12.286
12.011
11.772
11.567
11.39
11.238
11.11
11.003
10.915
10.845
10.792
10.754
10.73
10.721
10.726
10.745
10.777
10.822
10.879
10.95
11.031
11.124
11.227
11.338
11.457
11.583
11.715
11.852
11.993
12.137
12.283
12.431
12.577
12.721
12.861
12.994
13.117
13.229
13.324
13.402
13.458
13.49
13.494
13.468
13.41
13.317
13.187
13.019
12.812
12.566
12.281
11.959
11.6
11.209
10.788
10.34
9.871
9.383
8.883
8.374
7.861
7.351
6.847
6.356
5.881
5.43
5.006
4.616
4.265
3.958
3.7
3.496
3.351
3.268
3.252
3.306
3.434
3.637
3.917
4.276
4.713
5.228
5.819
6.484
7.219
8.02
8.881
9.797
10.761
11.766
12.805
13.87
14.954
16.047
17.143
18.233
19.309
20.364
21.39
22.38
23.327
24.224
25.064
25.842
26.551
27.187
27.743
28.216
28.601
28.894
29.092
29.192
29.192
29.09
28.886
28.579
28.169
27.658
27.047
26.339
25.535
24.638
23.653
22.582
21.43
20.2
18.896
17.523
16.085
14.584
13.026
11.414
9.751
8.041
6.288
4.495
2.666
0.804
-1.086
-3
-4.934
-6.885
-8.847
-10.815
-12.785
-14.751
-16.709
-18.652
-20.574
-22.47
-24.332
-26.155
-27.93
-29.651
-31.31
-32.9
-34.412
-35.84
-37.175
-38.409
-39.535
-40.545
-41.43
-42.182
-42.794
-43.259
-43.57
-43.718
-43.7
-43.508
-43.139
-42.589
-41.855
-40.933
-39.822
-38.523
-37.036
-35.363
-33.508
-31.476
-29.273
-26.908
-24.39
-21.73
-18.942
-16.041
-13.046
-9.975
-6.848
-3.686
-0.512
2.653
5.787
8.871
11.883
14.806
17.619
20.302
22.833
25.187
27.346
29.289
30.998
32.456
33.65
34.57
35.21
35.566
35.628
35.374
34.789
33.86
32.583
30.96
29.005
26.74
24.204
21.451
18.542
15.536
12.486
9.431
6.41
3.468
0.667
-1.917
-4.211
-6.154
-7.707
-8.846
-9.564
-9.905
-9.954
-9.846
-9.72
-9.682
-9.829
-10.265
-11.115
-12.525
-14.653
-17.619
-21.579
-26.761
-33.224
-40.845
-49.29
-57.909
-66.04
-73.182
-78.76
-82.076
-82.821
-81.159
-77.784
-74.075
-71.23
-69.735
-69.917
-72.198
-76.406
-81.436
-85.175
-84.3
-75.49
-56.683
-26.239
17.844
76.795
150.471
237.338
333.633
434.543
536.24
634.571
723.866
798.661
854.031
885.723
892.211
873.553
829.226
760.107
669.414
561.26
441.271
316.033
190.503
69.077
-42.924
-141.065
-222.099
-283.652
-325.717
-349.953
-357.816
-351.095
-332.495
-305.183
-272.933
-239.663
-207.963
-179.133
-154.063
-133.537
-118.212
-107.901
-101.349
-96.597
-91.846
-86.283
-79.751
-72.007
-62.553
-51.355
-39.013
-26.747
-16.088
-7.847
-2.161
0.892
1.182
-1.288
-6.312
-13.3
-21.313
-29.671
-38.024
-46.092
-53.652
-60.462
-66.23
-70.813
-74.244
-76.554
-77.758
-77.869
-76.861
-74.777
-71.748
-67.912
-63.414
-58.404
-52.998
-47.33
-41.566
-35.841
-30.27
-24.942
-19.894
-15.151
-10.737
-6.657
-2.902
0.547
3.731
6.693
9.463
12.083
14.59
17.031
19.465
21.934
24.467
27.085
29.798
32.61
35.525
38.54
41.64
44.815
48.051
51.339
54.674
58.046
61.443
64.851
68.253
71.635
74.985
78.292
81.543
84.726
87.828
90.839
93.752
96.555
99.235
101.777
104.167
106.39
108.432
110.279
111.915
113.327
114.506
115.439
116.12
116.541
116.694
116.575
116.179
115.505
114.55
113.314
111.799
110.008
107.943
105.612
103.02
100.178
97.093
93.775
90.237
86.491
82.55
78.428
74.14
69.701
65.129
60.439
55.651
50.782
45.85
40.872
35.867
30.852
25.844
20.856
15.905
11.004
6.164
1.397
-3.287
-7.88
-12.373
-16.762
-21.04
-25.206
-29.257
-33.194
-37.017
-40.728
-44.333
-47.834
-51.238
-54.552
-57.783
-60.94
-64.032
-67.068
-70.06
-73.019
-75.957
-78.885
-81.816
-84.76
-87.73
-90.737
-93.791
-96.901
-100.075
-103.321
-106.644
-110.05
-113.542
-117.121
-120.789
-124.544
-128.383
-132.303
-136.296
-140.356
-144.473
-148.638
-152.838
-157.06
-161.292
-165.518
-169.723
-173.89
-178.003
-182.043
-185.993
-189.835
-193.551
-197.121
-200.53
-203.759
-206.792
-209.613
-212.209
-214.564
-216.668
-218.51
-220.081
-221.374
-222.383
-223.105
-223.537
-223.681
-223.537
-223.11
-222.406
-221.433
-220.199
-218.715
-216.995
-215.052
-212.901
-210.558
-208.042
-205.37
-202.562
-199.638
-196.618
-193.524
-190.375
-187.194
-184.001
-180.816
-177.66
-174.551
-171.508
-168.548
-165.687
-162.941
-160.324
-157.846
-155.52
-153.354
-151.355
-149.531
-147.885
-146.42
-145.138
-144.037
-143.118
-142.376
-141.807
-141.406
-141.165
-141.076
-141.13
-141.317
-141.624
-142.041
-142.554
-143.15
-143.816
-144.537
-145.299
-146.087
-146.887
-147.686
-148.467
-149.219
-149.928
-150.58
-151.165
-151.669
-152.084
-152.399
-152.606
-152.694
-152.658
-152.49
-152.184
-151.735
-151.137
-150.388
-149.483
-148.422
-147.202
-145.824
-144.286
-142.591
-140.74
-138.735
-136.579
-134.274
-131.822
-129.228
-126.502
-123.653
-120.687
-117.612
-114.429
-111.146
-107.785
-104.345
-100.812
-97.175
-93.422
-89.559
-85.626
-81.638
-77.564
-73.436
-69.342
-65.349
-61.53
-57.902
-54.369
-50.906
-47.624
-44.422
-40.913
-37.012
-32.841
-28.353
-23.964
-18.924
-10.8
-0.073
11.001
18.783
16.353
4.011
-11.27
-22.581
-20.109
-3.065
19.238
39.585
50.242
49.72
44.975
40.316
38.636
40.868
44.181
47.253
50.185
52.871
55.73
58.873
61.908
64.709
67.331
69.756
71.955
73.934
75.697
77.271
78.712
80.036
81.208
82.212
83.043
83.692
84.152
84.418
84.474
84.315
83.941
83.349
82.545
81.54
80.34
78.952
77.369
75.578
73.572
71.354
68.932
66.317
63.526
60.58
57.517
54.396
51.276
48.209
45.235
42.376
39.672
37.181
34.971
33.125
31.7
30.726
30.234
30.236
30.719
31.647
32.942
34.487
36.172
37.879
39.486
40.887
41.951
42.536
42.456
41.44
39.353
36.259
32.368
28.104
23.925
20.171
17.327
16.159
17.134
20.161
24.65
29.362
33.077
35.199
35.192
32.184
25.797
16.813
7.066
-0.407
-2.06
4.842
22.861
55.252
103.445
166.044
240.998
325.822
420.528
527.896
646.081
764.94
866.851
933.271
953.893
931.074
877.853
807.145
726.395
637.678
537.931
427.072
309.852
192.086
80.991
-17.606
-101.004
-167.671
-217.031
-250.434
-270.044
-277.699
-275.878
-267.193
-253.362
-236.37
-217.94
-197.877
-175.592
-151.144
-124.288
-95.263
-65.28
-34.874
-4.609
23.528
47.847
67.505
81.768
90.966
96.411
98.716
98.468
97.106
95.641
94.623
94.518
94.836
94.531
93.236
90.79
86.874
81.548
74.938
67.183
58.964
51.155
44.264
38.606
34.333
31.374
29.72
29.388
30.239
32.073
34.697
37.933
41.69
45.926
50.546
55.416
60.338
65.119
69.668
73.944
77.881
81.426
84.534
87.165
89.387
91.316
92.964
94.299
95.521
96.865
98.247
99.734
101.435
102.952
105.53
110.373
115.8
121.308
123.799
119.556
112.668
105.857
103.188
110.253
122.092
134.494
144.564
147.527
146.764
145.706
145.104
147.045
150.292
153.26
156.234
159.001
161.653
164.496
167.304
169.894
172.303
174.525
176.523
178.284
179.802
181.068
182.095
182.905
183.471
183.764
183.78
183.504
182.928
182.047
180.848
179.322
177.466
175.279
172.761
169.912
166.733
163.226
159.396
155.247
150.786
146.021
140.961
135.615
129.994
124.112
117.982
111.619
105.039
98.258
91.295
84.167
76.894
69.496
61.995
54.412
46.77
39.091
31.4
23.719
16.074
8.487
0.983
-6.416
-13.688
-20.809
-27.758
-34.516
-41.061
-47.374
-53.436
-59.23
-64.739
-69.947
-74.841
-79.407
-83.634
-87.512
-91.031
-94.186
-96.972
-99.384
-101.416
-103.068
-104.339
-105.232
-105.759
-105.919
-105.715
-105.17
-104.307
-103.147
-101.718
-100.025
-98.064
-95.869
-93.481
-90.875
-88.038
-84.966
-81.64
-78.116
-74.487
-70.736
-66.818
-62.935
-59.323
-55.874
-52.624
-49.631
-46.459
-44.358
-44.544
-45.322
-46.188
-44.01
-35.035
-23.441
-12.013
-4.89
-7.757
-15.592
-24.137
-30.471
-29.771
-25.479
-21.083
-17.352
-16.409
-17.004
-17.537
-18.296
-19.063
-19.93
-21.205
-22.662
-24.117
-25.609
-27.127
-28.636
-30.125
-31.575
-32.965
-34.308
-35.61
-36.837
-37.99
-39.066
-40.05
-40.995
-41.926
-42.82
-43.701
-44.571
-45.332
-45.94
-46.397
-46.464
-45.933
-45.033
-43.781
-42.032
-40.354
-37.971
-33.813
-29.416
-25.339
-24.155
-30.334
-42.34
-56.87
-67.813
-65.952
-49.146
-22.294
4.92
20.88
18.955
2.368
-18.892
-35.682
-41.344
-36.457
-27.702
-19.418
-14.494
-13.35
-13.344
-13.449
-13.691
-13.981
-14.778
-16.162
-17.743
-19.411
-21.199
-23.056
-24.978
-26.987
-29.087
-31.307
-33.703
-36.279
-38.995
-41.834
-44.781
-47.82
-50.937
-54.113
-57.322
-60.545
-63.769
-66.979
-70.157
-73.286
-76.348
-79.325
-82.2
-84.957
-87.578
-90.046
-92.346
-94.463
-96.38
-98.086
-99.565
-100.807
-101.8
-102.535
-103.005
-103.201
-103.119
-102.756
-102.111
-101.186
-99.982
-98.506
-96.763
-94.761
-92.51
-90.021
-87.307
-84.379
-81.252
-77.94
-74.459
-70.827
-67.061
-63.181
-59.208
-55.167
-51.082
-46.98
-42.887
-38.83
-34.837
-30.935
-27.149
-23.5
-20.009
-16.698
-13.587
-10.698
-8.051
-5.662
-3.548
-1.72
-0.19
1.033
1.945
2.55
2.85
2.846
2.532
1.888
0.902
-0.43
-2.11
-4.128
-6.469
-9.112
-12.021
-15.134
-18.387
-21.717
-25.064
-28.389
-31.641
-34.757
-37.662
-40.267
-42.495
-44.296
-45.636
-46.503
-46.912
-46.904
-46.562
-46.012
-45.41
-44.92
-44.712
-44.949
-45.794
-47.41
-50.002
-53.842
-59.076
-65.666
-73.394
-81.808
-90.434
-98.889
-106.661
-113.02
-117.474
-120.001
-121.074
-121.783
-123.21
-125.874
-130.174
-136.684
-145.462
-155.593
-165.203
-171.201
-170.188
-159.797
-138.018
-102.431
-51.447
15.086
95.967
187.758
285.764
386.094
484.417
574.787
651.454
709.277
743.818
753.301
737.453
695.494
628.172
538.852
432.108
313.951
191.222
69.177
-47.166
-151.813
-240.03
-308.879
-357.155
-386.119
-398.381
-396.232
-382.738
-362.07
-338.137
-314.494
-293.404
-275.291
-259.924
-246.997
-235.758
-225.09
-213.744
-200.401
-184.615
-166.877
-147.907
-128.577
-109.715
-92.033
-76.379
-63.578
-54.029
-47.763
-44.584
-44.124
-46.052
-50.068
-55.778
-62.741
-70.508
-78.652
-86.837
-94.766
-102.181
-108.852
-114.544
-119.09
-122.404
-124.445
-125.225
-124.787
-123.182
-120.493
-116.849
-112.384
-107.272
-101.694
-95.813
-89.802
-83.799
-77.908
-72.232
-66.837
-61.756
-57.007
-52.588
-48.475
-44.654
-41.101
-37.774
-34.638
-31.647
-28.745
-25.881
-22.994
-20.036
-16.976
-13.788
-10.458
-6.98
-3.35
0.426
4.334
8.365
12.513
16.766
21.121
25.566
30.091
34.679
39.316
43.984
48.671
53.362
58.046
62.706
67.331
71.907
76.423
80.865
85.216
89.458
93.572
97.538
101.34
104.956
108.369
111.558
114.506
117.196
119.614
121.743
123.569
125.077
126.256
127.093
127.579
127.704
127.459
126.84
125.839
124.454
122.682
120.525
117.982
115.057
111.755
108.084
104.051
99.669
94.95
89.91
84.565
78.934
73.036
66.894
60.53
53.967
47.232
40.349
33.346
26.25
19.088
11.888
4.679
-2.512
-9.655
-16.724
-23.689
-30.525
-37.204
-43.7
-49.986
-56.039
-61.834
-67.35
-72.564
-77.458
-82.014
-86.217
-90.053
-93.511
-96.583
-99.261
-101.542
-103.424
-104.907
-105.994
-106.688
-106.996
-106.927
-106.491
-105.7
-104.568
-103.111
-101.345
-99.288
-96.959
-94.38
-91.57
-88.553
-85.351
-81.989
-78.49
-74.88
-71.184
-67.428
-63.638
-59.838
-56.054
-52.311
-48.631
-45.036
-41.549
-38.189
-34.974
-31.921
-29.047
-26.366
-23.89
-21.631
-19.599
-17.801
-16.247
-14.94
-13.886
-13.087
-12.546
-12.263
-12.238
-12.469
-12.954
-13.688
-14.666
-15.883
-17.33
-18.999
-20.879
-22.96
-25.23
-27.676
-30.285
-33.042
-35.934
-38.945
-42.062
-45.268
-48.55
-51.892
-55.279
-58.698
-62.133
-65.57
-68.994
-72.393
-75.751
-79.056
-82.294
-85.452
-88.516
-91.475
-94.315
-97.026
-99.595
-102.012
-104.268
-106.352
-108.257
-109.976
-111.503
-112.833
-113.961
-114.886
-115.605
-116.118
-116.425
-116.527
-116.426
-116.126
-115.631
-114.945
-114.074
-113.024
-111.803
-110.419
-108.881
-107.197
-105.38
-103.439
-101.388
-99.238
-97.003
-94.697
-92.333
-89.928
-87.495
-85.049
-82.605
-80.179
-77.783
-75.432
-73.14
-70.918
-68.779
-66.734
-64.793
-62.965
-61.26
-59.685
-58.246
-56.948
-55.797
-54.795
-53.944
-53.246
-52.7
-52.306
-52.06
-51.959
-51.998
-52.17
-52.469
-52.886
-53.41
-54.032
-54.738
-55.516
-56.354
-57.236
-58.148
-59.075
-60.002
-60.914
-61.796
-62.632
-63.409
-64.112
-64.727
-65.24
-65.639
-65.912
-66.048
-66.036
-65.867
-65.533
-65.028
-64.346
-63.483
-62.435
-61.201
-59.78
-58.175
-56.388
-54.425
-52.292
-49.997
-47.549
-44.961
-42.249
-39.427
-36.513
-33.527
-30.485
-27.411
-24.328
-21.26
-18.229
-15.257
-12.361
-9.56
-6.877
-4.333
-1.945
0.271
2.306
4.145
5.772
7.174
8.338
9.262
9.959
10.434
10.687
10.71
10.489
10.019
9.312
8.376
7.214
5.832
4.235
2.454
0.546
-1.432
-3.416
-5.376
-7.312
-9.209
-11.042
-12.74
-14.182
-15.284
-16.011
-16.338
-16.274
-15.777
-14.696
-13.09
-11.255
-9.48
-8.122
-7.289
-6.675
-6.208
-6.223
-6.772
-7.595
-8.242
-7.722
-5.572
-2.39
1.513
6.329
12.016
18.378
24.745
29.204
30.277
27.988
22.35
13.412
1.612
-12.672
-28.298
-42.256
-51.281
-53.141
-45.655
-27.35
2.629
45.583
102.034
170.477
248.443
333.115
420.928
508.899
594.129
672.292
738.981
790.669
824.181
837.417
829.591
799.637
747.209
674.031
582.936
477.967
364.591
247.973
132.78
24.455
-72.106
-153.025
-215.105
-257.449
-281.414
-288.765
-281.708
-263.467
-237.145
-206.488
-175.869
-147.692
-122.669
-101.288
-83.499
-68.946
-57.641
-48.355
-38.68
-27.561
-14.912
-0.784
14.246
29.892
46.455
63.235
78.643
91.81
102.302
109.978
115.263
118.269
118.719
116.878
113.41
108.853
103.754
98.433
92.899
87.338
82.084
77.362
73.362
70.177
67.775
66.175
65.43
65.55
66.523
68.276
70.666
73.572
76.889
80.519
84.388
88.391
92.387
96.27
99.95
103.374
106.535
109.423
112.025
114.352
116.429
118.299
120.025
121.659
123.237
124.803
126.398
128.072
129.893
131.908
134.148
136.638
139.388
142.406
145.704
149.279
153.114
157.197
161.51
166.038
170.773
175.7
180.798
186.044
191.413
196.88
202.424
208.022
213.65
219.283
224.896
230.467
235.975
241.398
246.71
251.887
256.904
261.735
266.358
270.75
274.888
278.753
282.326
285.59
288.532
291.138
293.398
295.3
296.839
298.007
298.801
299.218
299.259
298.925
298.221
297.151
295.724
293.948
291.834
289.394
286.641
283.591
280.259
276.663
272.82
268.75
264.471
260.004
255.368
250.585
245.673
240.654
235.548
230.373
225.149
219.894
214.626
209.362
204.118
198.906
193.744
188.648
183.631
178.708
173.887
169.175
164.586
160.136
155.819
151.63
147.568
143.623
139.809
136.155
132.643
129.253
126.032
123.016
120.23
117.716
115.437
113.318
111.397
109.742
108.163
106.434
104.686
102.902
101.038
99.569
97.203
92.682
87.797
83.087
81.842
88.001
97.201
106.533
111.668
106.659
96.764
86.441
78.742
78.715
82.749
87.187
91.215
92.603
92.645
93.005
93.366
93.94
94.615
95.053
95.474
96.053
96.726
97.482
98.341
99.296
100.33
101.433
102.564
103.683
104.809
105.936
107.044
108.118
109.139
110.106
111.039
111.916
112.71
113.453
114.171
114.881
115.616
116.337
116.972
117.55
118.132
118.54
118.563
118.321
117.798
116.952
116.222
114.418
110.384
105.771
101.08
99.345
104.199
111.627
118.957
122.208
115.909
104.912
93.333
83.994
81.556
82.703
84.079
84.945
83.259
80.225
77.39
74.472
71.681
68.925
65.906
62.839
59.899
57.042
54.268
51.605
49.059
46.628
44.312
42.09
39.934
37.863
35.895
34.031
32.273
30.624
29.082
27.651
26.334
25.128
24.027
23.028
22.125
21.313
20.587
19.939
19.363
18.851
18.396
17.989
17.624
17.291
16.983
16.692
16.41
16.13
15.844
15.545
15.227
14.884
14.511
14.102
13.652
13.157
12.614
12.018
11.367
10.659
9.89
9.06
8.169
7.215
6.201
5.126
3.994
2.806
1.566
0.278
-1.054
-2.427
-3.836
-5.276
-6.742
-8.229
-9.732
-11.247
-12.767
-14.29
-15.809
-17.323
-18.826
-20.316
-21.793
-23.253
-24.695
-26.118
-27.52
-28.901
-30.26
-31.598
-32.915
-34.211
-35.487
-36.748
-37.996
-39.235
-40.471
-41.708
-42.951
-44.213
-45.504
-46.838
-48.231
-49.693
-51.239
-52.879
-54.625
-56.485
-58.465
-60.566
-62.789
-65.135
-67.608
-70.216
-72.964
-75.846
-78.853
-81.971
-85.175
-88.459
-91.816
-95.239
-98.736
-102.309
-105.963
-109.72
-113.6
-117.61
-121.739
-125.94
-130.155
-134.35
-138.509
-142.651
-146.794
-150.885
-154.852
-158.594
-161.998
-165.039
-167.667
-169.721
-171.148
-171.998
-172.466
-173.092
-174.401
-176.505
-179.454
-183.203
-187.349
-191.652
-195.638
-198.065
-197.88
-194.644
-188.226
-179.325
-169.371
-159.299
-150.372
-144.718
-144.173
-150.355
-164.365
-185.669
-212.602
-243.69
-276.827
-309.256
-338.354
-360.695
-372.964
-373.286
-360.696
-334.647
-295.512
-243.86
-180.016
-105.825
-23.946
63.182
152.677
241.787
328.426
409.708
481.351
539.813
582.177
605.648
608.94
591.251
551.248
488.831
406.44
307.558
196.135
78.552
-39.539
-155.063
-262.635
-359.952
-448.501
-523.415
-580.554
-616.892
-625.153
-609.221
-581.493
-551.799
-533.1
-530.302
-535.687
-544.237
-550.652
-550.54
-547.707
-543.699
-537.678
-530.827
-521.71
-509.494
-495.487
-480.184
-464.31
-448.996
-434.838
-422.088
-410.905
-401.159
-392.528
-384.878
-378.204
-372.469
-367.617
-363.528
-360
-356.853
-353.964
-351.246
-348.65
-346.111
-343.574
-341.024
-338.483
-335.989
-333.558
-331.135
-328.583
-325.763
-322.588
-319.039
-315.147
-310.954
-306.497
-301.803
-296.898
-291.826
-286.621
-281.289
-275.815
-270.186
-264.414
-258.563
-252.751
-247.079
-241.616
-236.404
-231.46
-226.793
-222.412
-218.309
-214.455
-210.815
-207.364
-204.089
-200.995
-198.078
-195.319
-192.685
-190.124
-187.599
-185.084
-182.559
-180.014
-177.44
-174.834
-172.204
-169.577
-166.973
-164.413
-161.91
-159.474
-157.119
-154.864
-152.729
-150.734
-148.897
-147.236
-145.77
-144.518
-143.497
-142.725
-142.214
-141.977
-142.024
-142.369
-143.024
-144
-145.306
-146.951
-148.942
-151.283
-153.978
-157.025
-160.423
-164.165
-168.243
-172.647
-177.363
-182.375
-187.664
-193.211
-198.993
-204.986
-211.165
-217.502
-223.97
-230.539
-237.18
-243.862
-250.554
-257.222
-263.834
-270.357
-276.757
-283.002
-289.058
-294.894
-300.477
-305.779
-310.771
-315.425
-319.717
-323.623
-327.122
-330.197
-332.834
-335.019
-336.743
-338.002
-338.791
-339.112
-338.969
-338.366
-337.312
-335.817
-333.894
-331.559
-328.83
-325.727
-322.27
-318.485
-314.399
-310.043
-305.446
-300.64
-295.655
-290.526
-285.287
-279.971
-274.614
-269.246
-263.898
-258.605
-253.402
-248.323
-243.402
-238.657
-234.103
-229.761
-225.646
-221.77
-218.144
-214.768
-211.638
-208.768
-206.168
-203.847
-201.815
-200.057
-198.558
-197.304
-196.274
-195.465
-194.879
-194.492
-194.283
-194.244
-194.356
-194.62
-195.036
-195.547
-196.096
-196.638
-197.111
-197.493
-197.763
-197.883
-197.823
-197.543
-196.998
-196.17
-195.045
-193.576
-191.733
-189.469
-186.732
-183.553
-179.965
-175.984
-171.643
-166.944
-161.89
-156.509
-150.831
-144.875
-138.669
-132.227
-125.563
-118.728
-111.768
-104.738
-97.703
-90.664
-83.628
-76.619
-69.651
-62.758
-55.977
-49.324
-42.815
-36.489
-30.378
-24.52
-18.952
-13.687
-8.737
-4.115
0.173
4.097
7.629
10.754
13.456
15.723
17.549
18.921
19.828
20.277
20.276
19.834
18.966
17.678
15.979
13.885
11.412
8.581
5.416
1.941
-1.82
-5.837
-10.081
-14.52
-19.119
-23.849
-28.68
-33.581
-38.519
-43.463
-48.381
-53.243
-58.02
-62.683
-67.202
-71.55
-75.701
-79.63
-83.315
-86.733
-89.864
-92.688
-95.187
-97.347
-99.151
-100.587
-101.643
-102.309
-102.576
-102.438
-101.889
-100.927
-99.551
-97.762
-95.561
-92.953
-89.945
-86.544
-82.758
-78.598
-74.074
-69.2
-63.988
-58.452
-52.605
-46.463
-40.041
-33.355
-26.422
-19.257
-11.877
-4.3
3.457
11.377
19.442
27.632
35.932
44.321
52.78
61.291
69.833
78.388
86.934
95.454
103.928
112.337
120.661
128.882
136.983
144.946
152.754
160.389
167.836
175.078
182.099
188.883
195.412
201.669
207.635
213.293
218.627
223.62
228.257
232.525
236.415
239.918
243.027
245.737
248.038
249.925
251.392
252.44
253.068
253.28
253.082
252.483
251.503
250.162
248.477
246.462
244.117
241.447
238.466
235.191
231.644
227.86
223.874
219.738
215.524
211.299
207.13
203.075
199.175
195.474
192.036
188.934
186.256
184.087
182.478
181.476
181.124
181.417
182.327
183.782
185.66
187.868
190.324
192.92
195.555
198.089
200.345
202.18
203.402
203.742
203.1
201.549
199.337
197.044
195.284
194.52
195.341
198.415
203.961
211.682
220.7
229.44
236.457
240.983
242.442
240.292
234.809
227.443
220.791
218.685
225.013
242.382
272.836
318.584
380.644
458.299
549.307
649.198
752.557
855.129
952.58
1039.331
1110.451
1161.82
1190.07
1194.433
1175.288
1132.199
1065.81
978.861
874.985
759.192
637.291
513.714
393.042
280.957
182.454
101.198
38.968
-4.692
-31.332
-42.401
-40.209
-28.217
-10.359
9.704
30.182
50.491
70.215
88.888
105.946
121.424
136.305
151.328
165.765
178.724
189.546
197.962
204.755
210.395
214.321
216.261
216.972
216.976
216.65
216.386
214.111
208.14
200.1
190.483
182.278
179.154
177.322
174.583
167.885
152.557
133.739
115.739
101.393
95.279
94.239
94.973
96.637
97.121
97.473
99.068
101.551
105.014
109.217
113.708
118.508
123.576
128.703
133.764
138.699
143.465
148.022
152.341
156.386
160.146
163.661
166.976
170.108
173.071
175.895
178.616
181.295
183.995
186.757
189.599
192.534
195.564
198.687
201.897
205.176
208.495
211.832
215.166
218.482
221.769
225.013
228.195
231.297
234.298
237.179
239.921
242.502
244.901
247.097
249.068
250.794
252.259
253.441
254.326
254.9
255.147
255.047
254.579
253.715
252.437
250.738
248.61
246.051
243.068
239.676
235.907
231.811
227.425
222.769
217.856
212.678
207.236
201.535
195.575
189.356
182.877
176.127
169.109
161.842
154.318
146.516
138.385
129.839
120.832
111.367
101.464
91.176
80.571
69.719
58.724
47.723
36.833
26.168
15.814
5.825
-3.709
-12.677
-20.939
-28.318
-34.689
-39.988
-44.167
-47.213
-49.149
-50.015
-49.911
-48.996
-47.397
-45.219
-42.544
-39.417
-35.915
-32.144
-28.217
-24.273
-20.421
-16.733
-13.278
-10.11
-7.254
-4.71
-2.434
-0.33
1.663
3.579
5.435
7.219
8.932
10.593
12.208
13.789
15.339
16.856
18.341
19.798
21.215
22.566
23.808
24.872
25.711
26.298
26.61
26.638
26.378
25.821
24.971
23.84
22.44
20.779
18.862
16.692
14.279
11.637
8.785
5.748
2.548
-0.798
-4.269
-7.847
-11.515
-15.254
-19.051
-22.894
-26.769
-30.661
-34.551
-38.421
-42.251
-46.026
-49.725
-53.331
-56.827
-60.197
-63.427
-66.504
-69.415
-72.151
-74.699
-77.05
-79.196
-81.129
-82.843
-84.33
-85.587
-86.61
-87.396
-87.945
-88.254
-88.326
-88.162
-87.763
-87.134
-86.279
-85.203
-83.914
-82.417
-80.722
-78.84
-76.78
-74.555
-72.177
-69.659
-67.014
-64.256
-61.4
-58.458
-55.446
-52.377
-49.267
-46.129
-42.979
-39.832
-36.703
-33.605
-30.553
-27.561
-24.644
-21.815
-19.086
-16.472
-13.984
-11.636
-9.439
-7.404
-5.541
-3.861
-2.372
-1.082
0.002
0.874
1.529
1.962
2.169
2.146
1.892
1.403
0.679
-0.28
-1.474
-2.901
-4.558
-6.443
-8.551
-10.876
-13.413
-16.156
-19.096
-22.226
-25.536
-29.016
-32.654
-36.44
-40.36
-44.401
-48.549
-52.79
-57.109
-61.491
-65.921
-70.386
-74.868
-79.354
-83.827
-88.273
-92.676
-97.02
-101.291
-105.474
-109.554
-113.518
-117.353
-121.047
-124.589
-127.968
-131.174
-134.199
-137.035
-139.675
-142.113
-144.344
-146.367
-148.178
-149.777
-151.164
-152.342
-153.313
-154.08
-154.649
-155.024
-155.211
-155.217
-155.05
-154.717
-154.229
-153.594
-152.822
-151.925
-150.912
-149.795
-148.585
-147.294
-145.93
-144.505
-143.029
-141.512
-139.965
-138.395
-136.813
-135.226
-133.642
-132.069
-130.512
-128.977
-127.469
-125.991
-124.547
-123.14
-121.773
-120.448
-119.166
-117.93
-116.74
-115.598
-114.505
-113.461
-112.464
-111.516
-110.617
-109.766
-108.962
-108.205
-107.498
-106.841
-106.239
-105.695
-105.212
-104.794
-104.445
-104.169
-103.967
-103.841
-103.789
-103.809
-103.901
-104.068
-104.312
-104.633
-105.031
-105.504
-106.053
-106.674
-107.362
-108.103
-108.884
-109.695
-110.53
-111.395
-112.293
-113.222
-114.18
-115.159
-116.141
-117.107
-118.021
-118.832
-119.49
-119.945
-120.153
-120.088
-119.711
-118.983
-117.859
-116.274
-114.179
-111.544
-108.332
-104.532
-100.183
-95.332
-90.068
-84.527
-78.811
-73.027
-67.298
-61.717
-56.397
-51.494
-47.152
-43.561
-40.951
-39.436
-39.06
-39.743
-41.085
-42.544
-43.536
-43.342
-41.328
-37.142
-30.511
-21.715
-11.967
-2.733
4.192
8.421
11.741
15.335
20.081
22.843
16.602
0.408
-21.194
-35.153
-20.709
32.829
126.246
252.226
392.818
533.688
663.778
769.321
841.951
877.656
877.114
850.13
806.565
750.365
681.255
595.794
492.7
375.931
252.591
130.04
14.176
-90.071
-178.967
-250.156
-302.37
-336.189
-353.568
-356.443
-347.58
-330.8
-309.871
-288.392
-268.727
-251.539
-236.846
-224.475
-213.774
-203.678
-192.853
-179.833
-164.024
-145.779
-125.741
-104.709
-83.471
-62.734
-43.386
-26.394
-12.286
-1.176
7.06
12.742
16.139
17.443
16.928
14.972
11.943
8.19
3.998
-0.439
-4.915
-9.181
-12.959
-15.996
-18.131
-19.292
-19.468
-18.665
-16.893
-14.181
-10.6
-6.27
-1.329
4.09
9.875
15.925
22.131
28.362
34.455
40.281
45.756
50.837
55.51
59.764
63.591
66.999
70.029
72.734
75.166
77.369
79.376
81.223
82.959
84.642
86.342
88.11
89.981
91.982
94.131
96.445
98.939
101.614
104.46
107.467
110.629
113.941
117.404
121.012
124.753
128.615
132.581
136.639
140.775
144.976
149.222
153.498
157.785
162.066
166.326
170.545
174.702
178.773
182.735
186.563
190.232
193.718
196.995
200.04
202.829
205.341
207.558
209.46
211.031
212.256
213.122
213.617
213.733
213.461
212.795
211.732
210.27
208.409
206.151
203.5
200.462
197.044
193.256
189.111
184.622
179.804
174.674
169.252
163.558
157.613
151.441
145.066
138.513
131.808
124.976
118.043
111.037
103.981
96.901
89.821
82.763
75.75
68.801
61.936
55.173
48.529
42.02
35.66
29.461
23.434
17.59
11.936
6.479
1.224
-3.825
-8.666
-13.298
-17.722
-21.941
-25.957
-29.776
-33.403
-36.847
-40.116
-43.219
-46.165
-48.966
-51.632
-54.174
-56.602
-58.926
-61.156
-63.302
-65.371
-67.372
-69.311
-71.194
-73.026
-74.811
-76.554
-78.255
-79.916
-81.539
-83.122
-84.665
-86.165
-87.62
-89.028
-90.383
-91.683
-92.921
-94.093
-95.193
-96.214
-97.15
-97.993
-98.736
-99.373
-99.897
-100.301
-100.579
-100.725
-100.736
-100.607
-100.335
-99.919
-99.358
-98.652
-97.802
-96.811
-95.681
-94.419
-93.028
-91.516
-89.889
-88.156
-86.325
-84.405
-82.406
-80.338
-78.211
-76.035
-73.821
-71.581
-69.326
-67.066
-64.813
-62.577
-60.371
-58.204
-56.087
-54.029
-52.041
-50.131
-48.308
-46.578
-44.949
-43.426
-42.014
-40.716
-39.537
-38.478
-37.541
-36.724
-36.029
-35.454
-34.997
-34.655
-34.427
-34.307
-34.293
-34.38
-34.563
-34.839
-35.201
-35.645
-36.166
-36.759
-37.419
-38.141
-38.92
-39.751
-40.629
-41.549
-42.506
-43.496
-44.513
-45.555
-46.615
-47.691
-48.779
-49.876
-50.979
-52.086
-53.193
-54.3
-55.404
-56.503
-57.597
-58.683
-59.761
-60.83
-61.89
-62.94
-63.981
-65.013
-66.034
-67.046
-68.046
-69.035
-70.011
-70.974
-71.922
-72.855
-73.771
-74.67
-75.551
-76.414
-77.257
-78.08
-78.881
-79.658
-80.411
-81.138
-81.838
-82.51
-83.151
-83.763
-84.343
-84.891
-85.406
-85.888
-86.333
-86.737
-87.096
-87.407
-87.669
-87.88
-88.038
-88.141
-88.185
-88.17
-88.095
-87.958
-87.755
-87.479
-87.125
-86.689
-86.172
-85.577
-84.906
-84.158
-83.322
-82.393
-81.368
-80.244
-79.018
-77.688
-76.246
-74.693
-73.037
-71.288
-69.465
-67.573
-65.615
-63.59
-61.49
-59.334
-57.164
-55.023
-52.966
-51.014
-49.149
-47.374
-45.71
-44.174
-42.82
-41.631
-40.47
-39.401
-38.645
-38.4
-38.936
-40.243
-41.914
-43.797
-46.026
-48.365
-50.39
-51.611
-51.237
-49.274
-46.676
-43.96
-41.262
-39.031
-37.692
-37.884
-40.751
-46.333
-53.454
-61.339
-69.51
-77.426
-84.837
-91.211
-95.492
-97.468
-97.83
-97.232
-96.278
-95.137
-93.754
-92.405
-91.284
-91.731
-94.654
-98.3
-102.016
-102.838
-97.488
-90.047
-83.146
-80.82
-88.644
-101.972
-116.771
-129.997
-136.464
-138.781
-139.706
-139.408
-139.266
-137.807
-133.71
-127.945
-121.643
-116.233
-112.793
-111.771
-113.77
-118.861
-125.98
-133.06
-136.796
-133.683
-121.218
-96.991
-58.35
-3.736
66.821
151.466
246.091
345.635
445.375
539.877
622.758
687.863
730.082
746.464
736.085
700.727
642.933
564.282
469.154
360.114
239.634
116.879
-1.522
-107.765
-193.466
-261.955
-316.672
-360.535
-398.976
-429.285
-448.696
-457.504
-454.159
-440.079
-417.555
-387.397
-351.279
-310.92
-267.883
-224.363
-183.19
-147.021
-117.567
-95.684
-81.325
-73.785
-72.138
-74.889
-79.718
-84.451
-87.701
-88.727
-87.497
-84.363
-79.671
-74.171
-69.123
-65.511
-63.806
-64.071
-65.904
-68.834
-72.525
-76.499
-80.111
-82.859
-84.44
-84.744
-83.882
-81.992
-79.162
-75.513
-71.191
-66.362
-61.199
-55.871
-50.524
-45.259
-40.152
-35.274
-30.684
-26.443
-22.587
-19.115
-15.999
-13.214
-10.736
-8.545
-6.619
-4.903
-3.331
-1.829
-0.32
1.253
2.931
4.756
6.763
8.977
11.419
14.09
16.982
20.094
23.428
26.988
30.775
34.785
39.003
43.419
48.017
52.783
57.7
62.749
67.91
73.163
78.491
83.874
89.294
94.729
100.153
105.542
110.867
116.099
121.212
126.176
130.961
135.539
139.885
143.971
147.776
151.277
154.454
157.287
159.76
161.858
163.567
164.876
165.776
166.259
166.319
165.953
165.16
163.943
162.305
160.253
157.797
154.947
151.717
148.123
144.18
139.909
135.329
130.462
125.332
119.962
114.378
108.607
102.676
96.611
90.441
84.191
77.889
71.559
65.228
58.918
52.654
46.457
40.349
34.353
28.487
22.77
17.222
11.858
6.693
1.742
-2.985
-7.476
-11.724
-15.722
-19.465
-22.948
-26.17
-29.129
-31.826
-34.263
-36.443
-38.371
-40.053
-41.495
-42.707
-43.698
-44.476
-45.052
-45.437
-45.642
-45.676
-45.552
-45.28
-44.873
-44.341
-43.697
-42.953
-42.123
-41.217
-40.248
-39.227
-38.167
-37.076
-35.966
-34.844
-33.721
-32.604
-31.5
-30.416
-29.36
-28.336
-27.35
-26.406
-25.506
-24.654
-23.851
-23.097
-22.394
-21.742
-21.141
-20.589
-20.087
-19.635
-19.23
-18.872
-18.559
-18.289
-18.059
-17.865
-17.705
-17.574
-17.47
-17.388
-17.325
-17.279
-17.244
-17.22
-17.201
-17.187
-17.174
-17.159
-17.139
-17.114
-17.081
-17.04
-16.988
-16.928
-16.857
-16.778
-16.691
-16.595
-16.493
-16.384
-16.269
-16.149
-16.024
-15.896
-15.765
-15.634
-15.503
-15.374
-15.25
-15.131
-15.02
-14.917
-14.825
-14.744
-14.676
-14.62
-14.577
-14.549
-14.536
-14.537
-14.552
-14.581
-14.623
-14.677
-14.739
-14.808
-14.882
-14.958
-15.031
-15.101
-15.165
-15.218
-15.26
-15.288
-15.299
-15.291
-15.261
-15.208
-15.129
-15.023
-14.888
-14.722
-14.525
-14.298
-14.039
-13.749
-13.429
-13.08
-12.705
-12.303
-11.879
-11.433
-10.971
-10.495
-10.011
-9.522
-9.035
-8.554
-8.087
-7.637
-7.213
-6.817
-6.458
-6.139
-5.866
-5.643
-5.476
-5.367
-5.322
-5.342
-5.43
-5.589
-5.818
-6.118
-6.489
-6.928
-7.433
-8.002
-8.631
-9.315
-10.05
-10.83
-11.648
-12.497
-13.367
-14.25
-15.135
-16.011
-16.868
-17.694
-18.478
-19.209
-19.875
-20.466
-20.969
-21.377
-21.678
-21.863
-21.922
-21.849
-21.636
-21.277
-20.769
-20.106
-19.288
-18.314
-17.184
-15.902
-14.469
-12.891
-11.173
-9.323
-7.348
-5.26
-3.07
-0.791
1.56
3.965
6.402
8.851
11.29
13.696
16.046
18.318
20.491
22.545
24.462
26.226
27.818
29.216
30.402
31.357
32.067
32.519
32.702
32.606
32.225
31.566
30.631
29.423
27.94
26.168
24.097
21.731
19.073
16.137
12.948
9.534
5.935
2.213
-1.573
-5.365
-9.111
-12.779
-16.33
-19.708
-22.848
-25.672
-28.104
-30.106
-31.641
-32.675
-33.226
-33.326
-33.048
-32.51
-31.795
-30.986
-30.193
-29.525
-29.116
-29.127
-29.674
-30.918
-33.102
-36.29
-40.385
-45.121
-49.919
-54.229
-57.686
-59.807
-60.014
-58.127
-54.385
-49.549
-45.037
-42.03
-41.004
-42.271
-46.177
-52.443
-59.882
-66.317
-68.425
-62.955
-47.922
-21.808
17.17
69.978
136.253
214.338
300.496
390.111
479.626
565.289
642.067
705.239
750.592
774.444
775.552
754.089
709.633
643.012
557.183
455.726
343.517
226.585
109.608
-3.207
-106.704
-196.965
-271.623
-328.741
-368.271
-391.871
-400.866
-397.164
-384.041
-364.027
-339.074
-311.736
-283.578
-255.478
-228.877
-204.445
-181.827
-161.36
-143.662
-128.47
-115.774
-105.291
-95.823
-86.886
-78.595
-70.555
-62.288
-53.788
-44.981
-36.257
-28.676
-22.724
-18.508
-16.225
-15.886
-17.362
-20.501
-24.863
-29.718
-34.569
-39.074
-42.952
-46.071
-48.318
-49.61
-49.965
-49.472
-48.213
-46.249
-43.63
-40.408
-36.665
-32.505
-28.049
-23.422
-18.721
-14.062
-9.596
-5.44
-1.671
1.66
4.58
7.15
9.344
11.122
12.702
14.349
15.979
17.642
19.425
20.926
23.437
28.23
33.641
39.186
41.744
37.56
30.82
24.317
22.191
30.119
43.057
56.726
68.191
72.615
73.435
74.128
75.447
79.498
85.014
90.377
95.861
101.232
106.566
112.154
117.755
123.17
128.423
133.493
138.324
142.886
147.157
151.108
154.738
158.05
161
163.546
165.667
167.342
168.55
169.278
169.506
169.22
168.413
167.082
165.225
162.842
159.938
156.519
152.597
148.185
143.298
137.956
132.18
125.995
119.427
112.504
105.258
97.72
89.926
81.91
73.709
65.36
56.903
48.375
39.813
31.258
22.745
14.312
5.994
-2.176
-10.165
-17.941
-25.477
-32.746
-39.722
-46.384
-52.712
-58.688
-64.296
-69.525
-74.365
-78.808
-82.85
-86.487
-89.721
-92.554
-94.992
-97.042
-98.714
-100.021
-100.975
-101.594
-101.895
-101.897
-101.621
-101.087
-100.318
-99.336
-98.166
-96.83
-95.352
-93.755
-92.064
-90.3
-88.487
-86.645
-84.796
-82.959
-81.153
-79.396
-77.704
-76.091
-74.573
-73.16
-71.866
-70.698
-69.665
-68.774
-68.03
-67.435
-66.992
-66.701
-66.559
-66.566
-66.715
-67.004
-67.424
-67.969
-68.631
-69.401
-70.27
-71.227
-72.263
-73.365
-74.523
-75.725
-76.96
-78.217
-79.484
-80.75
-82.004
-83.236
-84.434
-85.59
-86.691
-87.73
-88.697
-89.583
-90.38
-91.08
-91.678
-92.166
-92.54
-92.795
-92.928
-92.936
-92.816
-92.568
-92.189
-91.68
-91.042
-90.277
-89.384
-88.369
-87.232
-85.979
-84.612
-83.136
-81.556
-79.877
-78.103
-76.241
-74.296
-72.275
-70.185
-68.032
-65.824
-63.569
-61.274
-58.949
-56.6
-54.238
-51.869
-49.504
-47.15
-44.816
-42.511
-40.243
-38.02
-35.852
-33.745
-31.708
-29.748
-27.872
-26.087
-24.399
-22.814
-21.338
-19.977
-18.735
-17.616
-16.627
-15.769
-15.047
-14.463
-14.019
-13.717
-13.558
-13.541
-13.667
-13.933
-14.339
-14.881
-15.557
-16.362
-17.293
-18.343
-19.507
-20.777
-22.147
-23.608
-25.152
-26.769
-28.449
-30.184
-31.962
-33.774
-35.607
-37.453
-39.298
-41.133
-42.945
-44.722
-46.454
-48.127
-49.732
-51.256
-52.688
-54.017
-55.235
-56.331
-57.297
-58.124
-58.803
-59.327
-59.691
-59.888
-59.913
-59.762
-59.432
-58.921
-58.229
-57.358
-56.31
-55.086
-53.691
-52.129
-50.405
-48.527
-46.502
-44.337
-42.043
-39.63
-37.109
-34.497
-31.807
-29.055
-26.259
-23.435
-20.602
-17.78
-14.993
-12.263
-9.613
-7.062
-4.627
-2.328
-0.182
1.792
3.58
5.174
6.566
7.746
8.702
9.42
9.891
10.122
10.125
9.916
9.503
8.881
8.042
6.983
5.708
4.223
2.527
0.61
-1.527
-3.863
-6.344
-8.895
-11.469
-14.038
-16.609
-19.215
-21.833
-24.386
-26.783
-28.909
-30.709
-32.209
-33.351
-34.016
-34.207
-33.997
-33.728
-34.026
-35.211
-37.281
-40.166
-43.66
-47.608
-52.038
-56.379
-59.393
-60.272
-58.606
-54.546
-48.999
-42.556
-35.316
-28.118
-22.654
-20.671
-23.928
-33.091
-47.428
-66.231
-89.057
-114.939
-141.913
-166.754
-185.329
-194.19
-190.964
-174.022
-141.925
-92.857
-26.281
55.814
150.093
252.408
357.758
462.52
561.835
646.677
711.454
754.672
776.87
786.347
786.894
769.73
725.561
642.421
514.853
359.769
200.238
58.308
-47.845
-121.457
-176.154
-222.783
-271.305
-319.94
-359.83
-387.03
-398.929
-396.96
-386.115
-368.221
-344.488
-316.535
-284.438
-248.959
-211.703
-173.879
-137.47
-104.854
-77.164
-54.821
-38.268
-27.396
-21.724
-20.411
-21.567
-23.153
-24.07
-23.767
-21.973
-18.807
-14.457
-9.497
-5.156
-2.442
-1.772
-3.176
-6.322
-10.833
-16.44
-22.427
-27.803
-32.158
-35.198
-36.771
-37.444
-36.047
-31.378
-25.299
-18.51
-14.391
-16.951
-22.01
-26.767
-27.055
-17.164
-2.417
12.661
24.979
29.531
29.844
29.498
29.277
31.375
34.549
37.207
39.701
41.858
43.812
45.924
48.021
49.984
51.939
53.949
56.027
58.2
60.494
62.927
65.539
68.368
71.387
74.567
77.909
81.403
85.052
88.851
92.782
96.825
100.963
105.179
109.46
113.794
118.166
122.558
126.953
131.331
135.678
139.989
144.237
148.379
152.377
156.19
159.796
163.207
166.406
169.338
172.01
174.481
176.793
178.998
181.086
182.946
184.541
185.964
187.096
187.55
187.25
186.299
184.647
182.71
179.7
173.278
164.02
154.056
146.998
149.541
161.108
175.049
184.678
180.503
162.183
138.677
116.896
104.383
102.274
103.893
105.213
103.417
97.753
90.982
84.322
77.713
71.264
64.579
57.588
50.676
43.971
37.427
31.073
24.942
19.036
13.354
7.875
2.55
-2.628
-7.619
-12.405
-16.979
-21.335
-25.468
-29.374
-33.039
-36.459
-39.639
-42.579
-45.282
-47.751
-49.987
-51.995
-53.778
-55.343
-56.695
-57.839
-58.783
-59.533
-60.097
-60.482
-60.696
-60.747
-60.645
-60.398
-60.016
-59.506
-58.881
-58.148
-57.319
-56.403
-55.412
-54.356
-53.246
-52.091
-50.903
-49.691
-48.465
-47.234
-46.006
-44.789
-43.592
-42.421
-41.286
-40.191
-39.145
-38.155
-37.227
-36.368
-35.584
-34.881
-34.266
-33.744
-33.32
-32.999
-32.785
-32.682
-32.694
-32.823
-33.072
-33.442
-33.932
-34.543
-35.272
-36.118
-37.076
-38.144
-39.316
-40.587
-41.952
-43.405
-44.938
-46.546
-48.221
-49.954
-51.738
-53.563
-55.421
-57.301
-59.192
-61.085
-62.968
-64.83
-66.658
-68.443
-70.17
-71.83
-73.41
-74.898
-76.284
-77.556
-78.703
-79.718
-80.59
-81.313
-81.879
-82.285
-82.524
-82.593
-82.491
-82.216
-81.767
-81.143
-80.348
-79.381
-78.247
-76.948
-75.491
-73.879
-72.12
-70.221
-68.19
-66.036
-63.767
-61.393
-58.926
-56.376
-53.755
-51.075
-48.347
-45.585
-42.8
-40.007
-37.216
-34.439
-31.689
-28.975
-26.307
-23.695
-21.148
-18.672
-16.275
-13.962
-11.738
-9.609
-7.577
-5.645
-3.814
-2.085
-0.459
1.066
2.49
3.818
5.05
6.193
7.249
8.225
9.125
9.956
10.726
11.441
12.111
12.742
13.344
13.925
14.494
15.06
15.632
16.218
16.827
17.466
18.143
18.866
19.641
20.474
21.371
22.334
23.37
24.482
25.67
26.939
28.288
29.718
31.229
32.821
34.492
36.238
38.057
39.944
41.896
43.906
45.967
48.073
50.216
52.386
54.576
56.775
58.972
61.156
63.316
65.439
67.511
69.518
71.442
73.267
74.978
76.557
77.99
79.26
80.354
81.26
81.969
82.473
82.764
82.829
82.658
82.245
81.581
80.662
79.485
78.046
76.347
74.396
72.205
69.783
67.132
64.246
61.12
57.756
54.16
50.341
46.321
42.125
37.792
33.382
28.956
24.572
20.284
16.13
12.149
8.396
4.932
1.825
-0.85
-3.049
-4.731
-5.863
-6.46
-6.566
-6.261
-5.665
-4.885
-4.028
-3.219
-2.571
-2.198
-2.249
-2.85
-4.187
-6.55
-10.043
-14.642
-20.248
-26.441
-32.682
-38.503
-43.213
-45.96
-46.463
-44.722
-40.823
-35.926
-31.593
-28.991
-29.604
-33.254
-37.045
-38.581
-37.072
-35.833
-41.041
-54.565
-70.134
-68.742
-28.837
60.545
197.652
358.731
513.066
640.608
727.95
779.343
808.275
820.814
822.116
810.626
778.362
722.479
643.36
544.58
433.897
317.835
200.627
85.731
-23.434
-122.614
-207.943
-276.91
-328.949
-364.982
-385.879
-392.629
-387.173
-372.55
-352.123
-328.613
-303.392
-277.085
-250.414
-224.345
-199.968
-177.516
-156.681
-137.611
-120.835
-106.922
-96.319
-88.7
-82.878
-78.16
-74.179
-70.277
-66.079
-61.344
-55.794
-49.775
-44.191
-39.559
-36.165
-34.308
-33.86
-34.57
-36.242
-38.409
-40.479
-42.11
-43.073
-43.183
-42.428
-40.828
-38.394
-35.248
-31.547
-27.381
-22.837
-18.014
-13.018
-8.01
-3.17
1.388
5.59
9.378
12.72
15.58
17.92
19.746
21.086
21.963
22.399
22.415
22.026
21.276
20.235
18.981
17.596
16.151
14.694
13.275
11.934
10.706
9.623
8.704
7.958
7.401
7.055
6.939
7.076
7.479
8.155
9.105
10.331
11.831
13.603
15.643
17.944
20.5
23.303
26.347
29.621
33.113
36.806
40.678
44.705
48.863
53.124
57.46
61.84
66.234
70.61
74.938
79.189
83.332
87.336
91.172
94.81
98.224
101.386
104.271
106.855
109.116
111.035
112.595
113.779
114.576
114.974
114.966
114.547
113.713
112.463
110.8
108.728
106.253
103.387
100.14
96.527
92.565
88.272
83.668
78.775
73.616
68.215
62.598
56.79
50.818
44.71
38.493
32.195
25.843
19.467
13.091
6.744
0.451
-5.765
-11.879
-17.869
-23.714
-29.395
-34.893
-40.193
-45.279
-50.138
-54.759
-59.132
-63.25
-67.107
-70.698
-74.021
-77.075
-79.861
-82.381
-84.637
-86.635
-88.381
-89.883
-91.149
-92.19
-93.016
-93.64
-94.074
-94.333
-94.43
-94.381
-94.201
-93.905
-93.509
-93.028
-92.478
-91.875
-91.233
-90.568
-89.893
-89.224
-88.573
-87.954
-87.38
-86.861
-86.41
-86.038
-85.755
-85.57
-85.493
-85.533
-85.697
-85.993
-86.426
-87.002
-87.726
-88.602
-89.632
-90.818
-92.161
-93.661
-95.315
-97.123
-99.081
-101.186
-103.431
-105.813
-108.324
-110.957
-113.705
-116.56
-119.512
-122.552
-125.67
-128.855
-132.095
-135.379
-138.695
-142.029
-145.369
-148.701
-152.011
-155.287
-158.513
-161.677
-164.764
-167.761
-170.656
-173.435
-176.087
-178.601
-180.965
-183.171
-185.211
-187.076
-188.76
-190.258
-191.566
-192.68
-193.599
-194.321
-194.848
-195.179
-195.318
-195.27
-195.038
-194.63
-194.053
-193.316
-192.429
-191.402
-190.248
-188.979
-187.607
-186.148
-184.615
-183.022
-181.385
-179.719
-178.039
-176.359
-174.694
-173.058
-171.464
-169.926
-168.455
-167.061
-165.756
-164.548
-163.446
-162.457
-161.587
-160.841
-160.223
-159.736
-159.382
-159.159
-159.066
-159.101
-159.258
-159.532
-159.916
-160.402
-160.98
-161.641
-162.374
-163.166
-164.006
-164.88
-165.775
-166.677
-167.572
-168.448
-169.289
-170.083
-170.817
-171.479
-172.056
-172.537
-172.911
-173.168
-173.298
-173.29
-173.137
-172.83
-172.36
-171.723
-170.912
-169.923
-168.754
-167.401
-165.866
-164.148
-162.249
-160.172
-157.92
-155.497
-152.911
-150.166
-147.271
-144.233
-141.06
-137.763
-134.351
-130.833
-127.219
-123.52
-119.746
-115.906
-112.012
-108.075
-104.107
-100.119
-96.125
-92.139
-88.176
-84.251
-80.381
-76.583
-72.874
-69.269
-65.786
-62.441
-59.249
-56.221
-53.373
-50.716
-48.262
-46.026
-44.016
-42.245
-40.724
-39.464
-38.475
-37.766
-37.342
-37.205
-37.358
-37.802
-38.54
-39.583
-40.934
-42.59
-44.548
-46.797
-49.318
-52.093
-55.08
-58.223
-61.464
-64.747
-68.02
-71.246
-74.378
-77.37
-80.171
-82.716
-84.952
-86.845
-88.356
-89.466
-90.181
-90.509
-90.509
-90.313
-90.038
-89.807
-89.727
-89.836
-90.208
-90.954
-92.172
-93.991
-96.515
-99.773
-103.847
-108.856
-114.759
-121.387
-128.348
-134.949
-140.557
-144.689
-146.79
-146.274
-142.793
-136.355
-127.462
-117.163
-106.48
-95.99
-86.202
-77.832
-71.12
-65.431
-59.329
-50.351
-35.762
-13.678
17.705
60.73
116.848
186.177
267.558
357.757
452.534
548.112
639.939
722.165
789.333
836.462
859.651
857.409
829.365
775.529
697.621
599.288
485.353
362.068
235.921
112.369
-3.026
-104.978
-189.4
-253.462
-296.287
-319.19
-324.493
-314.891
-294.088
-266.024
-234.526
-203.322
-174.626
-149.191
-127.212
-108.341
-91.645
-76.072
-60.327
-42.982
-23.59
-2.436
20.011
42.96
65.608
87.231
106.888
123.672
137.189
147.407
154.523
158.927
160.924
160.777
158.875
155.641
151.476
146.728
141.609
136.293
130.996
125.985
121.582
118.027
115.441
113.876
113.332
113.796
115.257
117.66
120.888
124.813
129.298
134.228
139.535
145.138
150.933
156.791
162.545
168.073
173.314
178.232
182.812
187.052
190.948
194.528
197.857
200.997
204.003
206.922
209.776
212.599
215.432
218.325
221.34
224.529
227.93
231.568
235.452
239.587
243.969
248.581
253.379
258.312
263.313
268.323
273.302
278.229
283.091
287.877
292.572
297.161
301.633
305.998
310.275
314.472
318.59
322.636
326.641
330.669
334.824
339.185
343.791
348.635
353.679
358.882
364.187
369.52
374.778
379.815
384.5
388.735
392.448
395.568
397.998
399.595
400.18
399.612
397.811
394.745
390.418
384.846
378.077
370.207
361.388
351.823
341.686
331.103
320.173
308.994
297.686
286.408
275.337
264.61
254.328
244.568
235.387
226.839
218.945
211.678
204.961
198.687
192.78
187.201
181.931
176.956
172.248
167.767
163.47
159.342
155.371
151.545
147.851
144.272
140.807
137.48
134.335
131.421
128.771
126.396
124.296
122.467
120.903
119.599
118.537
117.688
117.03
116.544
116.214
116.029
115.97
116.012
116.128
116.288
116.469
116.65
116.812
116.936
117.007
117.012
116.944
116.798
116.566
116.241
115.815
115.28
114.629
113.856
112.959
111.932
110.774
109.487
108.072
106.536
104.882
103.119
101.252
99.29
97.242
95.117
92.924
90.674
88.378
86.047
83.693
81.33
78.973
76.634
74.32
72.043
69.81
67.63
65.521
63.496
61.556
59.72
58.021
56.48
55.127
53.986
53.019
52.205
51.564
51.044
50.567
50.113
49.62
49.039
48.503
48.128
47.871
47.938
48.735
50.192
52.156
54.801
57.529
60.758
66.835
75.167
83.492
88.386
81.862
61.917
36.068
14.148
10.616
33.747
73.799
115.118
141.34
139.761
116.44
86.782
62.547
53.744
59.286
69.576
79.449
85.325
86.506
86.486
86.473
86.237
85.969
85.145
83.61
81.848
80.024
78.103
76.169
74.27
72.368
70.443
68.467
66.37
64.141
61.826
59.44
56.988
54.488
51.951
49.39
46.83
44.284
41.758
39.262
36.805
34.397
32.048
29.768
27.563
25.442
23.412
21.478
19.647
17.924
16.313
14.819
13.444
12.189
11.057
10.047
9.159
8.393
7.745
7.215
6.799
6.493
6.295
6.199
6.201
6.295
6.477
6.739
7.075
7.48
7.945
8.465
9.032
9.639
10.278
10.941
11.62
12.306
12.989
13.66
14.306
14.918
15.484
15.992
16.429
16.782
17.036
17.177
17.192
17.065
16.783
16.331
15.696
14.869
13.838
12.594
11.127
9.427
7.483
5.286
2.826
0.096
-2.91
-6.198
-9.769
-13.616
-17.731
-22.107
-26.739
-31.629
-36.777
-42.175
-47.814
-53.679
-59.752
-66.004
-72.395
-78.868
-85.366
-91.839
-98.245
-104.555
-110.738
-116.755
-122.558
-128.084
-133.279
-138.099
-142.504
-146.458
-149.941
-152.97
-155.601
-157.939
-160.069
-162.043
-163.917
-165.727
-167.528
-169.414
-171.489
-173.858
-176.684
-180.162
-184.347
-189.218
-194.61
-200.042
-204.934
-208.722
-210.735
-210.318
-207.312
-201.897
-194.484
-186.494
-179.714
-175.214
-174.304
-177.088
-181.064
-185.456
-190.236
-195.475
-204.23
-213.098
-212.12
-191.148
-138.323
-53.255
52.2
165.964
274.128
370.408
457.132
532.551
594.285
639.022
660.51
656.866
629.096
577.268
503.265
410.861
303.948
187.741
68.253
-50.115
-163.036
-265.089
-351.85
-420.42
-469.342
-499.403
-512.711
-511.168
-497.583
-475.984
-450.322
-424.31
-400.416
-379.376
-361.251
-345.973
-332.934
-321.05
-309.014
-295.335
-279.385
-261.516
-242.3
-222.48
-202.794
-183.861
-166.456
-151.456
-139.301
-130.03
-123.485
-119.282
-117.082
-116.637
-117.591
-119.542
-122.1
-124.872
-127.563
-129.963
-131.88
-133.156
-133.64
-133.181
-131.701
-129.191
-125.665
-121.183
-115.814
-109.626
-102.729
-95.259
-87.379
-79.268
-71.091
-62.998
-55.109
-47.514
-40.293
-33.517
-27.226
-21.436
-16.146
-11.339
-6.996
-3.105
0.366
3.455
6.213
8.698
10.971
13.093
15.116
17.076
19.008
20.935
22.876
24.84
26.834
28.852
30.896
32.97
35.076
37.216
39.388
41.587
43.807
46.04
48.276
50.509
52.732
54.938
57.122
59.278
61.401
63.487
65.531
67.522
69.452
71.309
73.081
74.756
76.322
77.766
79.076
80.241
81.25
82.096
82.77
83.265
83.575
83.694
83.619
83.347
82.876
82.205
81.336
80.27
79.009
77.559
75.923
74.109
72.123
69.97
67.659
65.199
62.597
59.864
57.007
54.038
50.966
47.803
44.559
41.245
37.872
34.452
30.994
27.508
24.004
20.489
16.973
13.46
9.958
6.471
3.003
-0.444
-3.868
-7.267
-10.642
-13.994
-17.325
-20.638
-23.936
-27.225
-30.507
-33.79
-37.078
-40.378
-43.696
-47.039
-50.415
-53.829
-57.291
-60.807
-64.385
-68.032
-71.756
-75.566
-79.466
-83.465
-87.569
-91.782
-96.11
-100.558
-105.128
-109.822
-114.643
-119.591
-124.666
-129.866
-135.189
-140.632
-146.191
-151.861
-157.635
-163.509
-169.474
-175.522
-181.646
-187.837
-194.085
-200.382
-206.718
-213.082
-219.464
-225.856
-232.245
-238.621
-244.975
-251.296
-257.574
-263.798
-269.961
-276.052
-282.064
-287.989
-293.819
-299.55
-305.174
-310.688
-316.086
-321.366
-326.525
-331.562
-336.475
-341.265
-345.932
-350.477
-354.903
-359.211
-363.404
-367.485
-371.457
-375.324
-379.089
-382.755
-386.326
-389.806
-393.199
-396.507
-399.736
-402.887
-405.963
-408.967
-411.901
-414.765
-417.56
-420.287
-422.944
-425.53
-428.044
-430.483
-432.843
-435.12
-437.31
-439.408
-441.405
-443.296
-445.073
-446.727
-448.249
-449.632
-450.865
-451.939
-452.845
-453.574
-454.115
-454.46
-454.6
-454.524
-454.225
-453.694
-452.922
-451.904
-450.633
-449.103
-447.311
-445.252
-442.924
-440.327
-437.46
-434.323
-430.918
-427.248
-423.318
-419.132
-414.699
-410.026
-405.122
-400
-394.674
-389.155
-383.455
-377.59
-371.574
-365.427
-359.171
-352.819
-346.386
-339.904
-333.404
-326.915
-320.472
-314.086
-307.758
-301.528
-295.433
-289.454
-283.581
-277.807
-272.113
-266.551
-261.201
-256.047
-251.039
-246.362
-242.228
-238.531
-235.292
-232.559
-229.911
-228.511
-229.489
-231.24
-233.278
-232.645
-225.799
-216.653
-207.81
-203.15
-208.004
-217.636
-228.029
-236.424
-238.272
-236.8
-235.275
-234.408
-236.18
-239.407
-242.575
-245.947
-249.312
-252.742
-256.516
-260.407
-264.229
-268.014
-271.745
-275.37
-278.858
-282.181
-285.319
-288.29
-291.109
-293.738
-296.141
-298.299
-300.201
-301.854
-303.248
-304.361
-305.166
-305.631
-305.75
-305.531
-304.973
-304.072
-302.792
-301.054
-298.802
-295.997
-292.584
-288.505
-283.68
-278.003
-271.427
-263.958
-255.613
-246.442
-236.464
-225.677
-214.119
-201.845
-188.977
-175.733
-162.317
-148.928
-135.807
-123.185
-111.378
-100.804
-91.673
-83.977
-77.546
-71.992
-67.024
-62.541
-58.27
-53.736
-48.629
-42.913
-37.107
-32.315
-29.307
-28.274
-29.239
-32.296
-37.49
-44.263
-50.884
-54.479
-52.252
-42.209
-22.994
6.753
48.702
103.58
170.434
246.626
328.473
412.544
495.971
575.241
645.511
702.242
741.868
762.06
762.359
742.536
701.938
641.251
563.212
471.608
371.107
266.546
161.558
60.124
-32.839
-113.225
-178.17
-226.383
-258.501
-276.042
-280.381
-273.758
-259.501
-241.111
-222.051
-204.588
-189.445
-176.755
-166.433
-157.967
-150.463
-142.66
-133.096
-121.065
-106.686
-90.386
-72.827
-54.625
-36.281
-18.433
-1.744
13.46
27.146
39.469
50.743
61.23
71.121
80.642
90.026
99.484
109.199
119.311
129.926
141.11
152.897
165.297
178.281
191.794
205.758
220.071
234.615
249.283
263.974
278.595
293.059
307.273
321.14
334.566
347.467
359.78
371.468
382.503
392.872
402.578
411.629
420.051
427.878
435.136
441.85
448.043
453.737
458.958
463.736
468.102
472.086
475.717
479.021
482.025
484.757
487.239
489.494
491.541
493.401
495.092
496.636
498.054
499.368
500.596
501.755
502.862
503.933
504.979
506.01
507.034
508.055
509.076
510.097
511.118
512.136
513.145
514.138
515.107
516.042
516.932
517.765
518.526
519.202
519.776
520.232
520.554
520.726
520.729
520.548
520.166
519.566
518.733
517.652
516.308
514.688
512.776
510.563
508.036
505.185
502.003
498.483
494.619
490.408
485.85
480.945
475.695
470.105
464.179
457.926
451.354
444.474
437.296
429.835
422.104
414.118
405.893
397.445
388.792
379.952
370.943
361.783
352.49
343.083
333.58
324.001
314.364
304.688
294.991
285.292
275.608
265.958
256.357
246.824
237.372
228.016
218.77
209.647
200.656
191.81
183.115
174.58
166.212
158.017
149.998
142.16
134.505
127.036
119.754
112.661
105.756
99.04
92.513
86.176
80.026
74.065
68.291
62.704
57.303
52.087
47.055
42.205
37.537
33.048
28.738
24.604
20.646
16.862
13.251
9.814
6.549
3.458
0.54
-2.204
-4.772
-7.164
-9.377
-11.41
-13.262
-14.931
-16.416
-17.715
-18.828
-19.756
-20.499
-21.058
-21.437
-21.637
-21.662
-21.519
-21.211
-20.746
-20.131
-19.373
-18.48
-17.462
-16.328
-15.089
-13.755
-12.339
-10.852
-9.307
-7.719
-6.101
-4.469
-2.837
-1.223
0.356
1.885
3.346
4.721
5.993
7.143
8.154
9.012
9.699
10.2
10.496
10.574
10.419
10.021
9.374
8.462
7.271
5.806
4.072
2.07
-0.189
-2.719
-5.543
-8.641
-11.994
-15.641
-19.609
-23.917
-28.597
-33.607
-38.872
-44.417
-50.293
-56.315
-62.266
-68.249
-74.236
-80.168
-86.459
-91.92
-95.387
-98.468
-101.634
-107.852
-120.68
-136.135
-151.555
-162.987
-165.01
-162.381
-159.13
-158.011
-163.593
-172.578
-181.628
-189.987
-195.616
-199.677
-203.667
-207.286
-210.717
-213.847
-216.362
-218.455
-220.28
-221.778
-222.935
-223.767
-224.271
-224.434
-224.253
-223.702
-222.752
-221.422
-219.733
-217.687
-215.295
-212.567
-209.509
-206.14
-202.476
-198.529
-194.312
-189.84
-185.13
-180.2
-175.068
-169.753
-164.274
-158.653
-152.911
-147.071
-141.157
-135.191
-129.2
-123.207
-117.239
-111.321
-105.48
-99.741
-94.131
-88.676
-83.401
-78.333
-73.496
-68.914
-64.612
-60.615
-56.947
-53.634
-50.698
-48.161
-46.045
-44.367
-43.147
-42.397
-42.125
-42.338
-43.043
-44.244
-45.946
-48.151
-50.854
-54.05
-57.728
-61.876
-66.476
-71.503
-76.923
-82.706
-88.824
-95.255
-101.985
-108.991
-116.244
-123.705
-131.332
-139.073
-146.875
-154.67
-162.373
-169.912
-177.218
-184.234
-190.915
-197.198
-203.006
-208.253
-212.841
-216.694
-219.749
-221.951
-223.282
-223.748
-223.373
-222.223
-220.364
-217.84
-214.727
-211.102
-207.053
-202.746
-198.316
-193.926
-189.851
-186.233
-183.055
-180.12
-176.882
-172.736
-167.299
-160.086
-150.583
-138.696
-124.648
-109.608
-95.553
-83.905
-75.841
-70.986
-68.572
-69.449
-72.517
-77.953
-84.933
-85.675
-74.905
-45.94
8.507
83.409
173.329
271.961
368.754
461.969
550.639
630.737
700.065
753.671
786.806
798.526
789.644
761.57
715.669
653.099
575.484
485.58
387.254
284.257
179.375
75.192
-25.07
-117.399
-197.748
-263.146
-312.588
-346.2
-364.095
-366.354
-353.753
-328.782
-295.256
-257.007
-216.639
-175.993
-136.939
-101.85
-73.403
-52.762
-39.383
-32.178
-30.323
-33.143
-39.928
-49.166
-58.309
-65.721
-70.969
-74.021
-75.066
-74.21
-71.369
-67.012
-62.418
-58.391
-55.14
-52.624
-50.462
-48.381
-46.325
-44.009
-40.87
-36.524
-30.786
-23.636
-15.302
-5.991
4.158
14.932
26.114
37.52
48.98
60.378
71.677
82.844
93.847
104.669
115.265
125.583
135.594
145.281
154.642
163.691
172.451
180.956
189.24
197.339
205.285
213.098
220.791
228.364
235.814
243.132
250.316
257.37
264.295
271.094
277.765
284.308
290.721
297.001
303.143
309.14
314.987
320.678
326.211
331.582
336.788
341.83
346.703
351.405
355.93
360.271
364.421
368.371
372.111
375.629
378.916
381.96
384.75
387.277
389.529
391.497
393.171
394.541
395.599
396.336
396.745
396.818
396.549
395.932
394.961
393.633
391.943
389.89
387.471
384.688
381.539
378.028
374.158
369.933
365.357
360.438
355.182
349.597
343.694
337.482
330.976
324.187
317.13
309.821
302.276
294.512
286.547
278.398
270.083
261.622
253.034
244.337
235.552
226.697
217.793
208.86
199.917
190.985
182.083
173.23
164.445
155.747
147.156
138.687
130.36
122.191
114.197
106.394
98.798
91.424
84.286
77.396
70.768
64.413
58.34
52.559
47.078
41.904
37.042
32.498
28.276
24.377
20.804
17.556
14.634
12.035
9.756
7.792
6.14
4.792
3.742
2.982
2.503
2.296
2.351
2.656
3.2
3.971
4.956
6.14
7.51
9.051
10.748
12.585
14.546
16.615
18.776
21.014
23.31
25.651
28.019
30.4
32.777
35.136
37.464
39.747
41.972
44.127
46.203
48.188
50.074
51.853
53.517
55.059
56.475
57.759
58.908
59.917
60.787
61.513
62.098
62.54
62.842
63.004
63.031
62.926
62.694
62.341
61.872
61.295
60.617
59.847
58.993
58.065
57.072
56.023
54.928
53.797
52.637
51.458
50.269
49.078
47.891
46.716
45.559
44.427
43.323
42.254
41.222
40.233
39.287
38.388
37.537
36.736
35.985
35.283
34.63
34.024
33.463
32.943
32.46
32.01
31.587
31.184
30.795
30.413
30.028
29.634
29.222
28.782
28.306
27.786
27.213
26.579
25.877
25.099
24.239
23.29
22.247
21.106
19.861
18.509
17.047
15.474
13.786
11.985
10.068
8.038
5.895
3.641
1.281
-1.183
-3.745
-6.398
-9.136
-11.951
-14.833
-17.771
-20.755
-23.773
-26.811
-29.855
-32.892
-35.906
-38.884
-41.809
-44.667
-47.443
-50.12
-52.685
-55.123
-57.419
-59.56
-61.531
-63.321
-64.916
-66.305
-67.478
-68.425
-69.136
-69.603
-69.818
-69.775
-69.469
-68.896
-68.052
-66.937
-65.55
-63.894
-61.974
-59.793
-57.36
-54.684
-51.774
-48.645
-45.309
-41.782
-38.08
-34.222
-30.228
-26.117
-21.912
-17.635
-13.31
-8.964
-4.624
-0.317
3.928
8.085
12.124
16.017
19.738
23.263
26.569
29.632
32.431
34.94
37.137
39.002
40.516
41.665
42.434
42.813
42.795
42.386
41.589
40.409
38.846
36.89
34.535
31.786
28.651
25.142
21.284
17.102
12.635
7.943
3.082
-1.892
-6.931
-12.005
-17.074
-22.084
-26.966
-31.636
-36.013
-40.046
-43.683
-46.874
-49.611
-51.903
-53.801
-55.399
-56.764
-57.957
-59.056
-60.145
-61.339
-62.781
-64.598
-66.966
-70.142
-74.226
-79.15
-84.669
-90.234
-95.262
-99.298
-101.772
-101.988
-99.659
-95.058
-89.041
-83.196
-79.087
-77.609
-79.505
-85.611
-95.928
-109.211
-123
-133.373
-136.139
-128.276
-107.06
-69.548
-14.078
59.268
148.556
249.371
356.186
464.055
567.376
659.381
733.934
785.776
811.116
808.675
778.398
720.679
637.739
534.133
415.573
288.838
160.608
36.485
-77.598
-175.807
-254.072
-310.28
-345.702
-364.863
-370.136
-362.82
-343.419
-309.621
-266.561
-224.072
-190.428
-175.895
-180.092
-192.582
-204.7
-206.565
-195.303
-177.137
-156.361
-136.559
-119.306
-102.428
-85.385
-69.147
-54.602
-42.832
-34.178
-28.201
-24.516
-22.912
-23.16
-24.99
-28.102
-32.222
-37.117
-42.608
-48.561
-54.829
-61.267
-67.722
-74.004
-79.884
-85.157
-89.699
-93.435
-96.337
-98.405
-99.632
-100.05
-99.735
-98.776
-97.264
-95.266
-92.812
-89.928
-86.674
-83.131
-79.411
-75.635
-71.874
-68.173
-64.568
-61.071
-57.694
-54.433
-51.248
-48.092
-44.926
-41.719
-38.458
-35.135
-31.726
-28.197
-24.509
-20.613
-16.479
-12.087
-7.422
-2.475
2.754
8.261
14.026
20.02
26.218
32.599
39.144
45.835
52.65
59.563
66.546
73.571
80.608
87.631
94.609
101.514
108.316
114.988
121.502
127.837
133.966
139.863
145.499
150.847
155.883
160.585
164.931
168.898
172.467
175.616
178.336
180.621
182.45
183.805
184.674
185.044
184.924
184.34
183.279
181.731
179.747
177.371
174.641
171.612
168.269
164.563
160.552
156.322
151.725
146.583
141.041
135.115
128.794
122.541
115.209
105.681
95.621
85.554
78.513
78.123
80.429
82.805
81.325
70.584
55.407
39.882
26.818
20.839
18.667
16.979
15.045
10.841
5.559
0.727
-3.937
-8.234
-12.261
-16.322
-20.215
-23.778
-27.065
-30.09
-32.839
-35.319
-37.551
-39.546
-41.344
-42.988
-44.475
-45.803
-46.989
-48.045
-48.983
-49.819
-50.561
-51.218
-51.805
-52.336
-52.823
-53.278
-53.714
-54.139
-54.567
-55.007
-55.469
-55.963
-56.498
-57.084
-57.728
-58.439
-59.224
-60.091
-61.047
-62.098
-63.249
-64.505
-65.871
-67.351
-68.946
-70.66
-72.494
-74.449
-76.527
-78.728
-81.051
-83.496
-86.062
-88.749
-91.553
-94.473
-97.506
-100.648
-103.896
-107.245
-110.69
-114.227
-117.848
-121.548
-125.32
-129.157
-133.05
-136.991
-140.972
-144.983
-149.014
-153.056
-157.099
-161.133
-165.149
-169.137
-173.087
-176.989
-180.836
-184.617
-188.323
-191.947
-195.48
-198.915
-202.245
-205.463
-208.565
-211.545
-214.4
-217.128
-219.727
-222.196
-224.538
-226.752
-228.844
-230.817
-232.677
-234.431
-236.088
-237.657
-239.15
-240.577
-241.953
-243.29
-244.603
-245.907
-247.218
-248.553
-249.927
-251.357
-252.862
-254.458
-256.164
-257.996
-259.971
-262.107
-264.417
-266.918
-269.624
-272.546
-275.696
-279.084
-282.719
-286.607
-290.753
-295.161
-299.832
-304.765
-309.957
-315.403
-321.095
-327.026
-333.182
-339.552
-346.12
-352.87
-359.783
-366.842
-374.023
-381.305
-388.663
-396.072
-403.507
-410.939
-418.341
-425.684
-432.94
-440.081
-447.08
-453.91
-460.546
-466.961
-473.132
-479.038
-484.657
-489.97
-494.96
-499.612
-503.914
-507.856
-511.431
-514.634
-517.464
-519.922
-522.011
-523.737
-525.109
-526.138
-526.837
-527.223
-527.315
-527.136
-526.71
-526.064
-525.228
-524.236
-523.123
-521.926
-520.683
-519.432
-518.213
-517.064
-516.027
-515.137
-514.431
-513.944
-513.71
-513.763
-514.135
-514.856
-515.956
-517.459
-519.391
-521.771
-524.616
-527.936
-531.734
-536.012
-540.769
-546.004
-551.722
-557.92
-564.585
-571.702
-579.244
-587.179
-595.461
-604.025
-612.788
-621.667
-630.579
-639.45
-648.217
-656.812
-665.16
-673.182
-680.786
-687.886
-694.411
-700.29
-705.467
-709.908
-713.609
-716.628
-719.071
-721.045
-722.639
-723.912
-724.911
-725.714
-726.415
-727.117
-727.927
-728.913
-730.175
-731.891
-734.111
-736.701
-739.321
-741.338
-742.062
-740.965
-737.457
-730.812
-720.637
-707.026
-690.589
-672.63
-654.497
-636.987
-620.867
-607.12
-596.074
-586.974
-577.998
-565.95
-547.315
-519.503
-479.856
-425.284
-353.751
-264.842
-160.148
-43.787
79.044
203.454
323.414
431.669
521.418
586.677
623.744
631.767
610.916
562.154
488.638
395.391
288.715
176.014
63.432
-44.211
-141.707
-224.662
-290.188
-336.579
-364.395
-376.079
-373.779
-359.907
-338.032
-311.471
-283.435
-256.97
-233.279
-212.368
-194.326
-178.759
-164.774
-151.612
-138.176
-123.319
-106.91
-89.37
-71.172
-52.998
-35.453
-18.998
-4.287
8.001
17.575
24.448
28.831
31.102
31.615
30.677
28.698
26.164
23.504
21.07
19.095
17.683
16.917
16.891
17.688
19.379
22.023
25.613
30.115
35.495
41.675
48.558
56
63.802
71.775
79.771
87.685
95.463
103.08
110.504
117.72
124.724
131.507
138.079
144.449
150.612
156.584
162.393
168.084
173.727
179.387
185.112
190.936
196.879
202.95
209.16
215.508
221.981
228.574
235.278
242.089
249.009
256.032
263.149
270.345
277.598
284.885
292.183
299.471
306.725
313.923
321.047
328.075
334.992
341.78
348.418
354.882
361.144
367.174
372.942
378.42
383.578
388.39
392.834
396.885
400.526
403.743
406.52
408.84
410.687
412.035
412.865
413.175
412.968
412.258
411.071
409.432
407.367
404.92
402.123
398.997
395.557
391.793
387.695
383.274
378.551
373.572
368.38
362.996
357.435
351.711
345.813
339.74
333.484
327.003
320.284
313.358
306.282
299.169
292.155
285.336
278.789
272.574
266.734
261.341
256.467
252.166
248.519
245.603
243.508
242.369
242.285
243.285
245.356
248.416
252.336
257.029
262.423
268.442
275.034
282.13
289.659
297.575
305.821
314.317
322.969
331.635
340.194
348.578
356.75
364.719
372.532
380.203
387.737
395.149
402.43
409.569
416.556
423.347
429.904
436.205
442.243
448.035
453.6
458.929
464.002
468.785
473.229
477.301
480.971
484.204
486.98
489.287
491.122
492.497
493.434
493.947
494.048
493.743
493.041
491.953
490.5
488.701
486.58
484.162
481.473
478.541
475.396
472.063
468.563
464.918
461.143
457.258
453.279
449.225
445.114
440.963
436.789
432.609
428.438
424.293
420.185
416.126
412.126
408.192
404.332
400.553
396.859
393.255
389.743
386.327
383.008
379.786
376.663
373.636
370.705
367.866
365.118
362.457
359.879
357.381
354.959
352.609
350.327
348.111
345.955
343.858
341.815
339.824
337.88
335.981
334.123
332.303
330.518
328.767
327.046
325.354
323.689
322.049
320.431
318.834
317.254
315.69
314.138
312.595
311.059
309.526
307.993
306.457
304.915
303.363
301.797
300.213
298.606
296.973
295.308
293.607
291.864
290.076
288.236
286.34
284.383
282.36
280.265
278.094
275.84
273.498
271.063
268.529
265.892
263.148
260.292
257.322
254.236
251.031
247.708
244.266
240.707
237.03
233.239
229.335
225.323
221.206
216.988
212.677
208.278
203.797
199.243
194.623
189.945
185.217
180.448
175.644
170.815
165.97
161.116
156.263
151.42
146.597
141.803
137.048
132.342
127.692
123.106
118.592
114.154
109.796
105.52
101.325
97.212
93.18
89.228
85.355
81.561
77.845
74.208
70.649
67.165
63.753
60.407
57.125
53.903
50.739
47.632
44.582
41.589
38.653
35.775
32.951
30.172
27.431
24.707
21.972
19.23
16.495
13.781
11.11
8.494
5.921
3.428
1.085
-1.108
-3.204
-5.24
-7.243
-9.174
-10.886
-12.304
-13.506
-14.372
-14.509
-13.846
-12.513
-10.484
-8.261
-5.197
0.936
9.431
17.991
22.876
17.15
1.097
-18.695
-35.47
-39.467
-29.879
-15.429
-2.93
0.306
-6.482
-16.263
-24.967
-30.308
-32.612
-35.499
-40.459
-47.459
-56.668
-67.626
-79.591
-91.221
-99.836
-102.684
-98.001
-84.734
-61.872
-28.151
16.999
72.751
136.75
205.691
276.641
347.38
415.206
476.119
526.109
561.733
580.358
581.022
563.126
525.486
468.075
392.93
303.115
202.946
97.628
-8.689
-111.94
-207.023
-289.675
-357.043
-407.091
-439.664
-456.271
-458.177
-446.927
-425.372
-396.18
-361.609
-324.208
-285.693
-246.851
-208.869
-173.049
-139.764
-109.472
-82.943
-60.186
-41.116
-25.827
-13.64
-3.394
5.4
13.268
21.103
29.175
37.613
46.583
55.516
63.464
69.996
74.808
77.579
78.442
77.527
74.921
71.143
66.881
62.65
58.891
55.872
53.616
52.154
51.515
51.631
52.407
53.735
55.494
57.6
59.999
62.648
65.501
68.477
71.467
74.334
76.938
79.192
81.054
82.495
83.506
84.085
84.238
84.011
83.467
82.655
81.624
80.407
79.033
77.552
76.024
74.518
73.105
71.841
70.76
69.899
69.285
68.94
68.88
69.105
69.604
70.376
71.419
72.733
74.32
76.175
78.287
80.645
83.234
86.04
89.048
92.241
95.599
99.104
102.735
106.475
110.304
114.202
118.143
122.104
126.054
129.968
133.816
137.568
141.196
144.67
147.961
151.043
153.89
156.476
158.776
160.768
162.43
163.742
164.683
165.237
165.389
165.125
164.434
163.306
161.734
159.712
157.238
154.309
150.929
147.098
142.824
138.112
132.974
127.419
121.462
115.118
108.404
101.338
93.942
86.235
78.242
69.986
61.492
52.785
43.893
34.841
25.658
16.372
7.011
-2.396
-11.82
-21.233
-30.605
-39.909
-49.117
-58.201
-67.135
-75.894
-84.451
-92.785
-100.871
-108.69
-116.22
-123.443
-130.343
-136.904
-143.113
-148.957
-154.427
-159.512
-164.207
-168.504
-172.402
-175.896
-178.987
-181.674
-183.962
-185.854
-187.356
-188.477
-189.224
-189.61
-189.646
-189.346
-188.726
-187.801
-186.589
-185.109
-183.38
-181.423
-179.258
-176.908
-174.393
-171.737
-168.961
-166.088
-163.139
-160.138
-157.104
-154.061
-151.029
-148.028
-145.08
-142.202
-139.415
-136.736
-134.182
-131.77
-129.514
-127.428
-125.526
-123.818
-122.316
-121.027
-119.961
-119.121
-118.514
-118.142
-118.008
-118.111
-118.451
-119.026
-119.833
-120.869
-122.127
-123.603
-125.289
-127.18
-129.267
-131.541
-133.993
-136.615
-139.395
-142.325
-145.392
-148.587
-151.898
-155.314
-158.824
-162.418
-166.084
-169.812
-173.591
-177.411
-181.262
-185.134
-189.019
-192.909
-196.796
-200.674
-204.535
-208.374
-212.187
-215.967
-219.711
-223.415
-227.074
-230.685
-234.245
-237.752
-241.202
-244.594
-247.926
-251.196
-254.403
-257.547
-260.625
-263.637
-266.582
-269.459
-272.268
-275.008
-277.68
-280.281
-282.814
-285.277
-287.671
-289.995
-292.25
-294.434
-296.548
-298.591
-300.561
-302.458
-304.282
-306.032
-307.709
-309.312
-310.843
-312.302
-313.693
-315.015
-316.271
-317.459
-318.583
-319.65
-320.667
-321.639
-322.571
-323.461
-324.319
-325.162
-325.992
-326.792
-327.554
-328.265
-328.933
-329.6
-330.28
-330.946
-331.635
-332.436
-333.42
-334.666
-336.195
-337.919
-339.822
-342.026
-344.432
-346.665
-348.654
-350.526
-352.239
-354.217
-355.697
-354.268
-350.446
-346.46
-345.965
-355.846
-375.711
-398.647
-417.775
-423.321
-414.627
-400.928
-389.364
-387.635
-397.104
-410.858
-424.639
-435.541
-442.661
-448.798
-455.213
-461.776
-468.537
-475.003
-480.999
-486.839
-492.578
-498.104
-503.377
-508.357
-512.977
-517.151
-520.786
-523.779
-526.077
-527.68
-528.599
-528.857
-528.534
-527.777
-526.74
-525.559
-524.348
-523.202
-522.218
-521.526
-521.27
-521.523
-522.335
-523.81
-526.072
-529.127
-532.938
-537.243
-541.425
-545.089
-547.97
-549.227
-548.176
-544.773
-538.52
-530.703
-523.649
-516.762
-510.049
-501.763
-488.136
-470.481
-451.171
-434.633
-426.835
-427.12
-428.866
-419.592
-385.754
-320.713
-227.837
-119.653
-10.126
90.091
176.673
249.956
308.776
351.339
374.235
373.604
349.186
301.512
232.338
146.133
47.173
-59.936
-169.649
-278.11
-382.244
-478.11
-562.976
-635.179
-693.107
-736.829
-767.634
-785.992
-792.69
-789.514
-777.729
-759.065
-735.975
-709.849
-681.562
-652.689
-624.702
-598.667
-575.932
-557.01
-541.45
-529.055
-519.551
-511.981
-505.102
-497.768
-488.721
-477.273
-463.492
-447.518
-429.672
-410.759
-391.823
-373.715
-357.191
-342.628
-329.905
-318.841
-309.151
-300.316
-291.775
-283.098
-273.926
-264.099
-253.659
-242.62
-231.024
-218.933
-206.355
-193.309
-179.822
-165.904
-151.59
-136.944
-122.038
-106.991
-91.943
-77.02
-62.366
-48.076
-34.196
-20.77
-7.823
4.619
16.506
27.809
38.527
48.654
58.199
67.178
75.604
83.515
90.976
98.05
104.81
111.311
117.586
123.67
129.593
135.381
141.064
146.662
152.185
157.65
163.076
168.48
173.883
179.299
184.73
190.178
195.646
201.133
206.645
212.183
217.748
223.34
228.963
234.618
240.306
246.027
251.773
257.537
263.307
269.073
274.82
280.536
286.203
291.808
297.335
302.77
308.1
313.31
318.387
323.318
328.09
332.692
337.112
341.342
345.372
349.195
352.806
356.2
359.374
362.325
365.052
367.553
369.829
371.88
373.708
375.314
376.702
377.877
378.845
379.612
380.187
380.576
380.79
380.836
380.725
380.465
380.064
379.532
378.876
378.103
377.222
376.237
375.156
373.982
372.72
371.371
369.938
368.42
366.818
365.129
363.352
361.484
359.521
357.461
355.3
353.033
350.657
348.168
345.56
342.829
339.97
336.978
333.851
330.583
327.172
323.618
319.918
316.074
312.087
307.959
303.696
299.301
294.782
290.148
285.407
280.574
275.66
270.682
265.657
260.603
255.543
250.496
245.487
240.539
235.676
230.923
226.307
221.854
217.59
213.541
209.736
206.199
202.956
200.032
197.451
195.236
193.406
191.98
190.976
190.408
190.289
190.63
191.44
192.723
194.483
196.721
199.433
202.616
206.26
210.354
214.886
219.838
225.192
230.927
237.019
243.442
250.17
257.173
264.42
271.878
279.513
287.291
295.174
303.127
311.112
319.093
327.033
334.897
342.649
350.256
357.684
364.903
371.884
378.596
385.017
391.12
396.886
402.296
407.332
411.982
416.234
420.08
423.513
426.531
429.131
431.316
433.088
434.455
435.424
436.007
436.216
436.067
435.576
434.764
433.65
432.258
430.61
428.729
426.642
424.374
421.951
419.399
416.744
414.011
411.227
408.416
405.603
402.81
400.058
397.368
394.76
392.249
389.853
387.585
385.457
383.482
381.669
380.027
378.561
377.277
376.176
375.26
374.527
373.975
373.597
373.387
373.334
373.43
373.664
374.022
374.49
375.051
375.688
376.383
377.116
377.864
378.601
379.303
379.945
380.505
380.959
381.285
381.459
381.458
381.263
380.856
380.22
379.336
378.181
376.741
375.003
372.961
370.615
367.96
364.992
361.709
358.115
354.217
350.025
345.546
340.773
335.704
330.351
324.732
318.874
312.805
306.544
300.11
293.557
286.94
280.314
273.737
267.244
260.858
254.638
248.635
242.836
237.249
231.899
226.801
222.025
217.629
213.521
209.627
206.159
203.257
200.566
197.672
194.161
189.393
184.697
181.344
177.545
172.905
164.897
151.027
136.876
125.913
122.091
130.573
146.059
163.817
179.577
186.015
183.747
174.529
159.02
140.285
117.995
91.743
64.435
40.002
23.265
18.636
28.09
52.304
92.501
149.263
221.236
305.437
397.315
491.627
584.465
672.136
749.323
810.983
853.173
872.835
869.206
842.708
793
720.97
629.999
524.401
409.499
291.162
173.757
61.601
-39.915
-126.46
-195.342
-245.446
-277.815
-294.569
-297.504
-289.255
-273.628
-254.359
-234.927
-217.536
-202.677
-190.303
-180.317
-172.145
-164.791
-157.015
-147.406
-135.415
-121.449
-106.103
-90.112
-74.224
-59.053
-45.39
-34.13
-25.717
-20.22
-17.514
-17.26
-19.177
-23.06
-28.568
-35.299
-42.878
-50.912
-59.112
-67.273
-75.13
-82.462
-89.073
-94.757
-99.418
-103.021
-105.54
-106.995
-107.428
-106.882
-105.454
-103.277
-100.475
-97.206
-93.61
-89.81
-85.963
-82.189
-78.581
-75.23
-72.181
-69.448
-67.052
-64.99
-63.24
-61.787
-60.596
-59.623
-58.834
-58.184
-57.622
-57.099
-56.553
-55.934
-55.211
-54.355
-53.351
-52.193
-50.872
-49.39
-47.76
-45.991
-44.09
-42.07
-39.934
-37.694
-35.364
-32.962
-30.507
-28.017
-25.509
-22.999
-20.504
-18.042
-15.628
-13.278
-11.006
-8.828
-6.762
-4.827
-3.044
-1.432
-0.01
1.202
2.182
2.916
3.39
3.59
3.506
3.126
2.438
1.438
0.128
-1.507
-3.477
-5.791
-8.457
-11.46
-14.772
-18.402
-22.357
-26.582
-31.033
-35.669
-40.434
-45.344
-50.444
-55.678
-60.96
-66.439
-72.292
-78.377
-84.679
-91.214
-97.524
-104.752
-114.008
-123.648
-133.159
-139.543
-139.214
-136.099
-132.809
-133.244
-142.765
-156.604
-170.717
-182.332
-186.874
-187.604
-187.826
-188.274
-190.963
-194.725
-198.057
-201.251
-204.119
-206.771
-209.52
-212.176
-214.589
-216.826
-218.911
-220.838
-222.626
-224.303
-225.888
-227.428
-228.971
-230.519
-232.073
-233.654
-235.273
-236.944
-238.683
-240.494
-242.384
-244.363
-246.438
-248.613
-250.894
-253.279
-255.768
-258.358
-261.045
-263.824
-266.686
-269.622
-272.622
-275.674
-278.764
-281.877
-284.997
-288.108
-291.192
-294.229
-297.202
-300.089
-302.873
-305.533
-308.049
-310.403
-312.576
-314.551
-316.31
-317.838
-319.121
-320.145
-320.899
-321.372
-321.558
-321.45
-321.043
-320.337
-319.332
-318.028
-316.432
-314.549
-312.388
-309.957
-307.27
-304.34
-301.182
-297.813
-294.251
-290.518
-286.635
-282.624
-278.509
-274.314
-270.065
-265.787
-261.505
-257.244
-253.03
-248.888
-244.842
-240.914
-237.128
-233.505
-230.064
-226.824
-223.8
-221.007
-218.456
-216.159
-214.122
-212.351
-210.851
-209.622
-208.666
-207.979
-207.558
-207.397
-207.487
-207.818
-208.379
-209.155
-210.13
-211.287
-212.605
-214.065
-215.644
-217.321
-219.073
-220.875
-222.704
-224.533
-226.341
-228.101
-229.79
-231.384
-232.861
-234.199
-235.379
-236.382
-237.193
-237.797
-238.179
-238.331
-238.241
-237.904
-237.313
-236.464
-235.354
-233.983
-232.353
-230.467
-228.332
-225.957
-223.353
-220.536
-217.523
-214.334
-210.988
-207.508
-203.915
-200.231
-196.479
-192.678
-188.848
-185.012
-181.196
-177.424
-173.718
-170.099
-166.586
-163.196
-159.945
-156.849
-153.914
-151.143
-148.543
-146.124
-143.907
-141.92
-140.18
-138.693
-137.459
-136.474
-135.735
-135.228
-134.926
-134.778
-134.735
-134.753
-134.8
-134.854
-134.869
-134.779
-134.504
-133.956
-133.075
-131.837
-130.225
-128.219
-125.827
-123.067
-119.984
-116.704
-113.358
-110.066
-106.977
-104.221
-101.921
-100.305
-99.676
-100.195
-101.863
-104.435
-107.399
-110.352
-113.031
-115.038
-115.858
-115.155
-112.908
-109.861
-107.469
-106.859
-108.699
-113.389
-121.053
-131.661
-144.652
-157.906
-168.023
-171.705
-165.939
-148.577
-118.111
-72.711
-11.396
64.624
152.454
248.012
346.417
443.63
535.52
616.408
681.107
725.753
747.5
745.72
721.168
673.972
605.382
518.913
418.541
309.109
196.034
83.145
-26.127
-127.28
-216.555
-291.252
-349.154
-390.03
-414.814
-423.83
-418.033
-399.606
-371.059
-335.636
-296.931
-257.159
-218.185
-182.359
-151.393
-126.473
-108.125
-95.54
-87.298
-82.5
-79.951
-78
-75.426
-71.014
-64.084
-54.977
-44.363
-32.832
-21.23
-10.577
-1.565
5.135
9.168
10.729
10.16
7.893
4.469
0.46
-3.712
-7.683
-11.132
-13.909
-15.914
-17.111
-17.54
-17.263
-16.303
-14.667
-12.39
-9.521
-6.145
-2.366
1.748
6.129
10.692
15.336
19.919
24.32
28.469
32.329
35.879
39.103
41.982
44.514
46.732
48.684
50.413
51.958
53.344
54.605
55.787
56.945
58.142
59.428
60.835
62.386
64.102
66.001
68.098
70.395
72.881
75.546
78.384
81.39
84.563
87.894
91.37
94.976
98.694
102.51
106.408
110.373
114.385
118.427
122.479
126.525
130.548
134.53
138.45
142.286
146.017
149.62
153.073
156.356
159.445
162.322
164.965
167.359
169.486
171.331
172.88
174.121
175.044
175.641
175.904
175.828
175.41
174.651
173.549
172.108
170.332
168.227
165.801
163.062
160.022
156.695
153.094
149.236
145.137
140.816
136.292
131.586
126.717
121.707
116.577
111.349
106.047
100.692
95.308
89.916
84.541
79.202
73.923
68.724
63.625
58.644
53.801
49.111
44.592
40.259
36.125
32.204
28.506
25.042
21.822
18.851
16.136
13.681
11.489
9.561
7.898
6.497
5.358
4.477
3.848
3.468
3.328
3.422
3.74
4.272
5.008
5.934
7.038
8.307
9.727
11.282
12.959
14.741
16.613
18.561
20.567
22.617
24.695
26.786
28.874
30.946
32.988
34.985
36.925
38.798
40.59
42.292
43.894
45.387
46.762
48.011
49.129
50.108
50.944
51.633
52.171
52.558
52.792
52.874
52.806
52.589
52.227
51.725
51.087
50.318
49.425
48.414
47.293
46.071
44.755
43.353
41.876
40.332
38.73
37.081
35.392
33.673
31.934
30.184
28.432
26.687
24.959
23.257
21.589
19.964
18.391
16.877
15.428
14.051
12.751
11.533
10.401
9.358
8.409
7.554
6.795
6.135
5.575
5.115
4.754
4.493
4.328
4.259
4.284
4.401
4.605
4.894
5.264
5.712
6.232
6.819
7.468
8.172
8.922
9.712
10.533
11.376
12.232
13.092
13.945
14.785
15.6
16.383
17.122
17.809
18.434
18.987
19.456
19.829
20.09
20.228
20.228
20.079
19.768
19.283
18.615
17.758
16.709
15.461
14.01
12.349
10.47
8.371
6.053
3.515
0.762
-2.203
-5.368
-8.717
-12.235
-15.91
-19.737
-23.729
-27.888
-32.213
-36.697
-41.324
-46.069
-50.908
-55.8
-60.684
-65.506
-70.209
-74.746
-79.088
-83.192
-87.007
-90.477
-93.517
-96.057
-98.049
-99.461
-100.296
-100.589
-100.383
-99.748
-98.787
-97.608
-96.352
-95.145
-94.086
-93.327
-92.981
-93.239
-94.435
-96.687
-99.968
-104.142
-108.73
-113.175
-117.114
-119.923
-120.794
-119.663
-116.648
-112.099
-107.558
-104.564
-104.209
-107.978
-115.644
-124.178
-130.819
-133.927
-135.02
-138.92
-148.303
-158.631
-154.83
-119.214
-37.906
91.633
251.086
413.814
551.339
640.807
679.344
677.313
652.528
621.807
591.014
556.406
508.581
442.165
358.377
262.402
162.221
62.733
-34.419
-126.746
-211.415
-285.849
-347.193
-394.336
-428.072
-448.799
-456.769
-453.253
-439.918
-418.759
-392.577
-363.167
-331.08
-297.248
-262.839
-229.041
-197.597
-169.811
-145.781
-125.871
-110.765
-100.63
-95.39
-94.203
-95.108
-96.618
-98.247
-99.297
-99.364
-98.459
-96.091
-93.872
-94.134
-96.149
-99.712
-101.898
-98.873
-94.146
-90.092
-90.174
-99.036
-111.467
-123.188
-131.334
-131.478
-126.986
-121.192
-114.935
-110.376
-106.466
-101.851
-96.95
-91.655
-86.191
-80.973
-75.885
-70.863
-66.015
-61.373
-56.927
-52.671
-48.587
-44.661
-40.897
-37.292
-33.805
-30.381
-26.976
-23.539
-20.012
-16.35
-12.515
-8.473
-4.213
0.274
4.989
9.923
15.064
20.396
25.9
31.561
37.369
43.295
49.314
55.397
61.498
67.602
73.724
79.858
85.992
92.162
98.357
104.56
110.807
117.044
123.116
128.922
134.401
139.304
143.463
147.064
150.037
152.37
154.844
156.55
156.372
155.913
155.305
158.327
170.837
189.825
211.274
225.619
219.306
193.402
155.733
120.954
107.217
117.571
144.574
174.173
191.584
192.417
180.547
164.326
150.691
141.758
136.512
132.23
127.556
122.632
117.678
113.029
108.627
104.098
99.348
94.413
89.266
83.927
78.449
72.887
67.331
61.853
56.468
51.162
45.941
40.814
35.793
30.885
26.092
21.413
16.856
12.432
8.148
4.011
0.024
-3.809
-7.486
-11.003
-14.359
-17.553
-20.582
-23.448
-26.15
-28.691
-31.07
-33.291
-35.356
-37.268
-39.031
-40.648
-42.123
-43.461
-44.666
-45.743
-46.697
-47.535
-48.261
-48.883
-49.407
-49.839
-50.187
-50.459
-50.66
-50.798
-50.881
-50.915
-50.907
-50.864
-50.793
-50.699
-50.59
-50.47
-50.346
-50.222
-50.103
-49.991
-49.891
-49.806
-49.736
-49.684
-49.65
-49.635
-49.64
-49.664
-49.705
-49.763
-49.834
-49.916
-50.006
-50.098
-50.188
-50.271
-50.343
-50.397
-50.428
-50.431
-50.401
-50.334
-50.223
-50.058
-49.835
-49.546
-49.188
-48.758
-48.248
-47.646
-46.962
-46.204
-45.376
-44.49
-43.534
-42.485
-41.361
-40.181
-38.903
-37.494
-35.932
-34.179
-32.274
-30.288
-28.191
-25.92
-23.66
-21.626
-19.7
-17.902
-16.276
-14.381
-13.436
-14.629
-16.282
-17.892
-16.369
-8.016
3.058
14.111
21.064
18.32
10.819
2.75
-3.02
-1.745
3.174
8.293
12.842
14.717
15.13
15.641
15.946
16.243
16.422
16.163
15.675
15.124
14.46
13.673
12.786
11.794
10.683
9.45
8.067
6.499
4.766
2.885
0.857
-1.301
-3.576
-5.959
-8.442
-11.026
-13.721
-16.524
-19.434
-22.443
-25.535
-28.691
-31.878
-35.048
-38.148
-41.133
-43.96
-46.602
-49.034
-51.215
-53.096
-54.617
-55.72
-56.376
-56.556
-56.236
-55.439
-54.209
-52.629
-50.819
-48.878
-46.909
-45.047
-43.425
-42.171
-41.418
-41.265
-41.875
-43.526
-46.32
-50.174
-54.87
-59.925
-64.887
-69.428
-72.972
-74.728
-74.365
-72.047
-68.326
-64.367
-61.24
-59.715
-60.906
-66.008
-74.074
-82.114
-87.222
-86.618
-81.6
-76.257
-69.612
-56.329
-26.488
31.428
120.146
235.37
368.839
507.078
637.607
746.679
818.169
844.282
824.713
768.24
692.094
607.368
519.496
429.083
331.283
226.511
118.885
13.088
-83.742
-167.216
-236.022
-288.98
-326.5
-350.065
-360.544
-359.564
-350.093
-334.832
-316.47
-297.738
-279.918
-263.375
-248.566
-235.409
-223.209
-211.327
-198.807
-184.551
-168.415
-150.809
-132.155
-113.127
-94.391
-76.451
-60.02
-45.863
-34.307
-25.41
-19.035
-14.836
-12.608
-12.198
-13.302
-15.597
-18.715
-22.235
-25.942
-29.726
-33.182
-35.912
-37.868
-38.858
-38.766
-38.009
-35.413
-29.875
-23.057
-15.494
-10.254
-11.018
-13.973
-16.646
-15.266
-4.585
10.505
25.869
38.667
44.263
45.871
46.778
47.7
50.651
54.488
57.725
60.682
63.212
65.449
67.742
69.945
71.946
73.857
75.737
77.6
79.478
81.407
83.402
85.488
87.709
90.063
92.549
95.189
97.977
100.879
103.885
107.017
110.235
113.449
116.583
119.558
122.35
125.043
127.661
130.082
132.391
134.964
137.891
141.031
144.418
147.644
151.364
157.985
167.143
176.527
182.62
178.553
164.254
146.71
132.72
131.968
145.718
164.665
181.571
188.823
184.568
175.721
166.695
160.31
157.653
155.93
153.752
151.251
148.319
145.376
142.572
139.535
136.147
132.49
128.568
124.377
119.947
115.31
110.517
105.648
100.744
95.79
90.793
85.773
80.742
75.718
70.715
65.736
60.791
55.897
51.065
46.308
41.634
37.051
32.568
28.191
23.929
19.786
15.768
11.882
8.132
4.523
1.059
-2.255
-5.418
-8.425
-11.276
-13.969
-16.503
-18.879
-21.097
-23.157
-25.061
-26.81
-28.405
-29.848
-31.141
-32.287
-33.287
-34.145
-34.864
-35.446
-35.894
-36.213
-36.405
-36.474
-36.423
-36.256
-35.978
-35.593
-35.108
-34.528
-33.86
-33.112
-32.292
-31.407
-30.465
-29.474
-28.444
-27.382
-26.296
-25.194
-24.085
-22.978
-21.884
-20.813
-19.768
-18.752
-17.766
-16.817
-15.914
-15.064
-14.263
-13.511
-12.829
-12.257
-11.829
-11.562
-11.435
-11.423
-11.538
-11.782
-12.085
-12.322
-12.374
-12.183
-11.8
-11.311
-10.673
-9.914
-9.371
-9.399
-10.086
-11.324
-12.739
-14.938
-20.064
-29.489
-41.947
-51.78
-50.811
-34.404
-6.014
22.001
35.746
27.793
1.836
-27.981
-48.345
-52.865
-43.503
-29.534
-18.089
-11.642
-9.644
-8.881
-7.665
-6.196
-4.674
-3.441
-2.454
-1.306
0.114
1.738
3.562
5.583
7.762
10.03
12.292
14.46
16.506
18.444
20.265
21.945
23.468
24.819
25.993
26.984
27.777
28.35
28.686
28.773
28.601
28.164
27.455
26.468
25.208
23.686
21.909
19.882
17.602
15.055
12.237
9.153
5.812
2.234
-1.558
-5.537
-9.658
-13.858
-18.08
-22.268
-26.38
-30.391
-34.256
-37.915
-41.299
-44.319
-46.914
-49.044
-50.671
-51.783
-52.399
-52.551
-52.31
-51.773
-51.028
-50.179
-49.345
-48.638
-48.203
-48.173
-48.724
-50.134
-52.522
-55.81
-59.749
-63.809
-67.441
-70.29
-71.892
-71.596
-69.167
-64.885
-59.565
-54.77
-51.898
-51.603
-54.38
-60.75
-70.492
-82.328
-93.817
-101.18
-100.585
-89.433
-65.655
-27.081
27.491
97.664
181.298
274.003
370.263
465.509
555.43
634.681
698.309
742.331
763.905
762.802
740.59
698.213
636.653
558.493
466.917
365.879
259.945
152.123
44.452
-59.788
-156.538
-242.083
-313.08
-367.706
-405.634
-426.243
-428.958
-414.888
-386.782
-348.648
-305.203
-260.366
-217.129
-178.281
-146.361
-122.772
-107.54
-99.293
-95.67
-94.383
-93.423
-91.198
-86.441
-78.388
-67.032
-53.099
-37.876
-22.811
-9.313
1.68
9.612
14.155
15.341
13.474
9.079
2.888
-4.282
-11.844
-19.411
-26.636
-33.254
-39.045
-43.836
-47.577
-50.319
-52.075
-52.832
-52.595
-51.374
-49.239
-46.312
-42.708
-38.533
-33.902
-28.931
-23.768
-18.598
-13.557
-8.736
-4.196
0.038
3.943
7.495
10.699
13.592
16.212
18.601
20.797
22.822
24.715
26.521
28.294
30.098
31.978
33.959
36.062
38.296
40.668
43.181
45.826
48.581
51.428
54.353
57.346
60.4
63.504
66.639
69.788
72.934
76.061
79.156
82.202
85.185
88.092
90.91
93.628
96.238
98.731
101.094
103.313
105.377
107.273
108.989
110.514
111.835
112.944
113.831
114.49
114.917
115.108
115.058
114.768
114.235
113.462
112.45
111.202
109.72
108.011
106.079
103.932
101.577
99.022
96.274
93.344
90.241
86.975
83.555
79.994
76.301
72.488
68.566
64.548
60.445
56.269
52.032
47.747
43.425
39.079
34.718
30.356
26.001
21.664
17.355
13.083
8.857
4.685
0.576
-3.462
-7.422
-11.296
-15.079
-18.762
-22.341
-25.809
-29.161
-32.391
-35.493
-38.464
-41.299
-43.992
-46.541
-48.942
-51.191
-53.286
-55.225
-57.006
-58.628
-60.09
-61.391
-62.531
-63.511
-64.332
-64.995
-65.503
-65.857
-66.061
-66.118
-66.033
-65.811
-65.456
-64.974
-64.372
-63.656
-62.834
-61.913
-60.901
-59.806
-58.638
-57.405
-56.116
-54.78
-53.408
-52.008
-50.589
-49.162
-47.735
-46.317
-44.918
-43.545
-42.207
-40.912
-39.667
-38.48
-37.357
-36.3
-35.316
-34.414
-33.603
-32.89
-32.278
-31.756
-31.325
-30.997
-30.763
-30.604
-30.498
-30.406
-30.331
-30.33
-30.419
-30.576
-30.828
-31.215
-31.782
-32.634
-33.745
-34.91
-36.031
-37.142
-38.09
-38.564
-38.529
-37.978
-36.947
-36.321
-35.291
-31.172
-24.742
-17.842
-15.181
-26.669
-51.039
-78.599
-98.261
-92.209
-60.267
-19.744
14.546
23.852
5.714
-22.481
-48.564
-61.174
-57.464
-47.949
-38.707
-32.724
-31.329
-31.042
-30.25
-29.515
-28.825
-28.577
-28.96
-29.589
-30.315
-31.204
-32.22
-33.282
-34.4
-35.64
-37.051
-38.701
-40.637
-42.837
-45.303
-48.061
-51.09
-54.358
-57.872
-61.636
-65.61
-69.766
-74.075
-78.485
-83.016
-87.709
-92.491
-97.246
-102.078
-107.126
-112.195
-117.242
-122.261
-126.759
-131.881
-138.733
-145.571
-151.827
-154.399
-149.579
-141.401
-132.587
-127.223
-130.944
-139.018
-147.434
-153.463
-152.548
-148.163
-143.82
-140.412
-140.148
-141.934
-144.402
-148.037
-152.603
-158.117
-164.685
-171.54
-177.956
-183.476
-187.305
-188.671
-187.556
-183.95
-177.933
-170.855
-163.968
-157.753
-153.644
-151.184
-146.589
-139.476
-130.645
-121.321
-117.77
-117.114
-107.348
-77.487
-14.301
82.246
197.081
315.792
423.389
512.868
586.938
645.542
687.389
709.451
706.212
675.543
619.311
540.868
443.739
332.935
211.074
80.726
-48.574
-169.087
-272.055
-348.549
-402.192
-437.484
-459.085
-474.495
-483.193
-484.821
-481.889
-475.216
-467.56
-460.802
-453.83
-445.085
-433.247
-417.385
-397.209
-372.814
-344.735
-313.973
-282.477
-253.03
-227.422
-206.434
-190.188
-177.946
-169.089
-163.276
-159.516
-156.301
-152.708
-148.311
-143.297
-138.615
-134.738
-131.604
-129.276
-127.805
-127.123
-127.156
-127.514
-127.443
-126.465
-124.369
-121.045
-116.561
-110.971
-104.278
-96.593
-88.115
-79.035
-69.555
-59.857
-50.082
-40.395
-30.941
-21.831
-13.18
-5.069
2.452
9.356
15.65
21.355
26.48
31.042
35.063
38.573
41.624
44.275
46.581
48.608
50.406
52.016
53.48
54.825
56.071
57.229
58.299
59.276
60.162
60.963
61.685
62.332
62.906
63.405
63.828
64.172
64.432
64.606
64.689
64.678
64.573
64.374
64.079
63.692
63.21
62.631
61.95
61.161
60.259
59.239
58.095
56.821
55.414
53.869
52.185
50.363
48.401
46.301
44.063
41.691
39.186
36.553
33.795
30.918
27.927
24.831
21.635
18.349
14.983
11.546
8.048
4.501
0.915
-2.699
-6.329
-9.962
-13.587
-17.19
-20.759
-24.281
-27.741
-31.127
-34.426
-37.625
-40.713
-43.68
-46.515
-49.209
-51.754
-54.143
-56.368
-58.425
-60.308
-62.014
-63.54
-64.884
-66.045
-67.024
-67.823
-68.442
-68.886
-69.158
-69.262
-69.203
-68.986
-68.617
-68.102
-67.45
-66.666
-65.761
-64.741
-63.617
-62.399
-61.096
-59.719
-58.278
-56.784
-55.247
-53.678
-52.087
-50.484
-48.881
-47.285
-45.708
-44.157
-42.642
-41.169
-39.746
-38.378
-37.072
-35.831
-34.659
-33.56
-32.536
-31.589
-30.718
-29.926
-29.212
-28.575
-28.014
-27.528
-27.114
-26.769
-26.49
-26.273
-26.115
-26.011
-25.956
-25.945
-25.972
-26.03
-26.115
-26.219
-26.336
-26.459
-26.581
-26.695
-26.795
-26.875
-26.927
-26.947
-26.928
-26.867
-26.757
-26.597
-26.381
-26.107
-25.775
-25.381
-24.925
-24.406
-23.824
-23.178
-22.469
-21.697
-20.862
-19.965
-19.006
-17.986
-16.906
-15.769
-14.576
-13.329
-12.03
-10.682
-9.289
-7.853
-6.378
-4.868
-3.327
-1.761
-0.175
1.425
3.033
4.644
6.252
7.85
9.432
10.992
12.525
14.025
15.488
16.907
18.276
19.59
20.842
22.024
23.125
24.136
25.046
25.845
26.522
27.066
27.467
27.717
27.812
27.747
27.516
27.115
26.535
25.773
24.826
23.693
22.376
20.875
19.196
17.35
15.351
13.213
10.946
8.555
6.031
3.373
0.585
-2.324
-5.339
-8.44
-11.601
-14.785
-17.935
-20.999
-23.924
-26.672
-29.214
-31.509
-33.51
-35.157
-36.374
-37.106
-37.311
-36.957
-36.041
-34.582
-32.618
-30.227
-27.506
-24.561
-21.521
-18.515
-15.675
-13.152
-11.078
-9.636
-9.086
-9.551
-10.993
-13.195
-15.681
-17.942
-19.591
-20.128
-18.894
-15.579
-10.365
-3.975
2.216
6.856
9.138
8.394
3.861
-4.451
-15.333
-26.497
-34.41
-35.298
-26.442
-5.451
30.347
82.379
150.151
231.573
322.286
416.832
510.731
599.142
675.948
735.859
774.802
789.829
780.716
748.688
694.237
619
526.606
420.972
306.892
189.611
72.655
-40.875
-146.758
-241.375
-321.964
-386.067
-433.176
-463.961
-478.45
-477.263
-462.243
-435.597
-400.427
-360.487
-318.271
-275.883
-235.947
-200.415
-170.718
-147.796
-131.231
-119.72
-112.356
-107.879
-104.523
-101.083
-96.433
-89.783
-81.29
-71.537
-61.063
