Name,John Breau
Date of Birth,"Dec 20, 1971"
Recorded Date,2023-05-18 21:50:07 -0500
Classification,Sinus Rhythm
Symptoms,
Software Version,1.90
Device,"Watch6,3"
Sample Rate,512 hertz


Lead,Lead I
Unit,µV

140.039
149.752
133.773
96.528
42.408
-23.498
-92.281
-165.464
-248.77
-345.634
-465.998
-612.59
-774.119
-936.608
-1077.063
-1172.375
-1217.685
-1216.37
-1181.033
-1131.671
-1076.927
-1019.687
-960.188
-893.268
-818.577
-739.223
-657.708
-577.969
-502.582
-431.716
-365.153
-302.54
-243.786
-189.34
-139.848
-95.83
-57.106
-23.118
6.365
31.782
53.892
73.016
89.947
106.098
122.073
138.017
154.346
170.996
187.824
205.549
224.192
242.926
261.576
280.107
298.37
316.669
335.048
352.854
369.996
386.944
403.853
420.85
437.959
455.054
472.337
490.391
509.662
530.259
552.188
575.603
600.867
628.085
657
686.899
716.664
745.682
773.891
800.967
826.396
850.356
873.682
898.119
926.284
960.131
1000.882
1050.14
1109.906
1180.115
1258.447
1341.818
1425.789
1510.118
1599.055
1691.895
1784.948
1867.821
1921.659
1937.266
1912.361
1852.403
1777.721
1701.641
1632.011
1573.36
1515.489
1451.658
1379.695
1296.581
1207.383
1115.479
1020.071
921.651
818.52
709.684
596.809
481.3
364.768
248.241
131.201
13.958
-101.526
-210.748
-307.651
-389.947
-461.403
-531.838
-612.612
-708.019
-812.551
-913.094
-996.03
-1054.865
-1091.109
-1110.851
-1119.024
-1117.193
-1104.981
-1082.277
-1051.335
-1015.266
-977.052
-939.529
-905.171
-876.699
-856.407
-845.368
-843.674
-851.07
-867.12
-891.159
-921.952
-957.607
-996.444
-1037.181
-1079.096
-1121.986
-1165.258
-1208.247
-1250.886
-1291.578
-1328.415
-1361.252
-1388.176
-1409.71
-1427.692
-1437.749
-1437.113
-1422.687
-1390.556
-1346.565
-1296.95
-1246.26
-1199.922
-1156.388
-1113.534
-1071.094
-1027.578
-983.524
-939.146
-893.69
-847.229
-799.745
-751.395
-702.698
-654.051
-605.982
-559.231
-514.31
-471.48
-430.774
-392.012
-355.07
-319.879
-286.35
-254.355
-223.73
-194.372
-166.289
-139.576
-114.326
-90.583
-68.319
-47.462
-27.959
-9.787
7.046
22.512
36.602
49.314
60.614
70.436
78.714
85.404
90.563
94.337
96.863
98.26
98.611
97.96
96.382
93.982
90.866
87.153
82.97
78.445
73.771
69.198
64.962
61.289
58.321
56.103
54.693
54.147
54.52
55.88
58.253
61.62
65.973
71.304
77.573
84.728
92.641
101.118
109.98
119.06
128.238
137.457
146.65
155.744
164.68
173.405
181.887
190.126
198.104
205.786
213.159
220.213
226.984
233.546
239.94
246.18
252.242
258.071
263.628
268.886
273.809
278.36
282.495
286.163
289.344
292.017
294.157
295.733
296.686
296.957
296.531
295.424
293.699
291.448
288.724
285.575
282.05
278.173
273.976
269.475
264.642
259.463
253.937
248.046
241.825
235.335
228.601
221.65
214.459
206.892
198.872
190.419
181.447
171.822
161.309
149.428
135.825
120.528
103.617
85.121
65.315
44.559
23.539
3.783
-13.133
-26.487
-36.067
-41.877
-44.484
-44.711
-43.581
-43.38
-47.25
-55.983
-69.408
-88.617
-112.467
-141.797
-177.868
-214.045
-243.474
-258.648
-251.475
-223.243
-176.401
-112.659
-34.907
58.877
168.635
291.395
424.364
561.38
696.881
826.518
944.262
1044.663
1123.566
1177.258
1203.33
1202.255
1176.016
1125.221
1051.349
955.417
835.867
698.595
555.114
415.987
294.695
195.833
113.105
41.578
-24.622
-87.265
-141.12
-183.201
-212.702
-230.677
-240.713
-245.622
-247.521
-247.733
-246.906
-246.314
-246.785
-248.861
-253.574
-261.102
-270.796
-282.385
-295.245
-308.292
-321.154
-333.514
-344.689
-354.658
-363.844
-372.514
-381.337
-391.23
-402.587
-415.702
-430.969
-448.331
-467.509
-488.223
-509.949
-532.133
-554.414
-576.309
-597.126
-616.205
-632.993
-647.145
-658.463
-666.589
-671.198
-672.249
-670.096
-665.622
-659.649
-652.323
-643.373
-632.55
-619.365
-603.078
-582.54
-555.546
-519.769
-473.871
-417.256
-349.571
-270.798
-181.136
-81.176
26.963
140.439
257.043
374.765
491.223
603.866
709.915
807.702
898.118
982.041
1058.421
1122.685
1168.453
1193.953
1204.441
1212.43
1231.506
1267.435
1315.955
1364.673
1401.206
1419.911
1422.89
1417.56
1409.97
1402.469
1394.712
1384.776
1372.278
1358.336
1343.932
1329.912
1316.594
1303.923
1292.103
1281.439
1272.127
1264.341
1258.275
1254.144
1252.199
1252.639
1255.546
1260.924
1268.706
1278.784
1291.081
1305.515
1322.014
1340.5
1360.851
1382.909
1406.479
1431.314
1457.156
1483.738
1510.762
1537.934
1564.964
1591.547
1617.467
1642.563
1666.641
1689.501
1710.894
1730.521
1748.151
1763.607
1776.742
1787.479
1795.753
1801.508
1804.766
1805.579
1804.003
1800.111
1793.899
1785.31
1774.345
1761.048
1745.532
1727.988
1708.562
1687.373
1664.546
1640.169
1614.332
1587.12
1558.534
1528.561
1497.222
1464.559
1430.716
1395.907
1360.308
1324.074
1287.331
1250.17
1212.724
1175.15
1137.595
1100.242
1063.297
1026.995
991.668
957.658
925.266
894.775
866.369
840.156
816.256
794.768
775.776
759.366
745.586
734.462
726.02
720.243
717.076
716.419
718.084
721.865
727.564
734.977
743.96
754.416
766.243
779.37
793.733
809.256
825.869
843.496
862.05
881.465
901.697
922.726
944.578
967.286
990.882
1015.403
1040.856
1067.229
1094.505
1122.654
1151.645
1181.468
1212.133
1243.68
1276.15
1309.564
1343.909
1379.126
1415.126
1451.794
1489
1526.596
1564.42
1602.294
1640.024
1677.399
1714.181
1750.104
1784.847
1818.033
1849.289
1878.256
1904.634
1928.2
1948.769
1966.205
1980.41
1991.317
1998.904
2003.191
2004.233
2002.12
1996.99
1989.015
1978.443
1965.591
1950.793
1934.403
1916.727
1898.012
1878.475
1858.31
1837.682
1816.747
1795.64
1774.46
1753.291
1732.2
1711.229
1690.412
1669.748
1649.186
1628.658
1608.069
1587.336
1566.417
1545.278
1523.888
1502.214
1480.225
1457.889
1435.219
1412.249
1389.011
1365.557
1341.924
1318.151
1294.308
1270.482
1246.783
1223.34
1200.286
1177.765
1155.964
1135.098
1115.374
1096.994
1080.11
1064.829
1051.264
1039.506
1029.65
1021.793
1016.013
1012.372
1010.913
1011.639
1014.489
1019.337
1025.978
1034.136
1043.544
1053.931
1065.042
1076.652
1088.508
1100.359
1111.957
1123.046
1133.338
1142.531
1150.313
1156.395
1160.591
1162.789
1162.949
1161.112
1157.298
1151.54
1143.897
1134.421
1123.191
1110.308
1095.859
1079.928
1062.686
1044.321
1025.045
1005.117
984.684
963.799
942.509
920.826
898.778
876.461
853.967
831.289
808.415
785.532
762.884
740.486
718.392
696.649
674.906
654.146
635.418
617.465
599.956
580.459
556.018
529.997
504.66
483.377
470.708
462.639
455.755
447.639
434.372
418.664
403.222
388.564
376.231
365.047
353.567
341.899
329.777
317.216
304.436
291.221
277.423
263.073
248.15
232.666
216.668
200.217
183.408
166.408
149.406
132.581
116.134
100.206
84.873
70.173
56.062
42.465
29.317
16.536
4.043
-8.238
-20.434
-32.663
-45.041
-57.821
-71.318
-85.768
-101.346
-118.003
-135.411
-153.218
-171
-188.073
-203.69
-217.321
-228.669
-237.984
-246.186
-254.358
-263.613
-275.296
-289.579
-304.884
-319.693
-332.005
-342.596
-356.009
-373.022
-390.253
-396.605
-373.859
-311.807
-210.556
-81.451
54.132
180.579
290.407
381.406
456.184
513.933
550.22
560.846
542.58
495.318
421.48
324.784
210.032
82.175
-53.406
-191.135
-326.466
-455.433
-574.779
-682.507
-777.226
-857.903
-924.56
-978.181
-1019.775
-1050.626
-1071.747
-1083.554
-1087.004
-1083.729
-1075.262
-1062.645
-1046.935
-1029.229
-1011.243
-995.455
-983.518
-975.924
-972.661
-973.69
-978.814
-987.611
-998.872
-1010.431
-1020.741
-1029.27
-1035.978
-1041.12
-1045.026
-1047.964
-1050.643
-1054.402
-1060.122
-1068.071
-1078.217
-1090.123
-1103.313
-1117.499
-1132.221
-1146.789
-1160.757
-1173.845
-1185.873
-1196.917
-1207.047
-1216.257
-1224.614
-1232.203
-1239.091
-1245.397
-1251.233
-1256.677
-1261.847
-1266.843
-1271.785
-1276.835
-1282.063
-1287.508
-1293.22
-1299.188
-1305.435
-1312.021
-1318.904
-1325.995
-1333.408
-1341.26
-1349.39
-1357.755
-1366.32
-1374.656
-1383.642
-1394.118
-1404.676
-1414.855
-1422.161
-1423.628
-1422.457
-1420.764
-1421.731
-1429.748
-1440.898
-1451.857
-1460.347
-1462.606
-1461.297
-1459.129
-1456.701
-1455.671
-1455.085
-1453.715
-1451.801
-1449.197
-1445.998
-1442.467
-1438.456
-1433.852
-1428.716
-1423.084
-1416.969
-1410.406
-1403.438
-1396.103
-1388.461
-1380.579
-1372.484
-1364.201
-1355.772
-1347.234
-1338.622
-1329.976
-1321.327
-1312.706
-1304.148
-1295.687
-1287.351
-1279.17
-1271.169
-1263.372
-1255.801
-1248.473
-1241.406
-1234.614
-1228.108
-1221.899
-1215.992
-1210.392
-1205.1
-1200.116
-1195.436
-1191.054
-1186.963
-1183.152
-1179.609
-1176.319
-1173.266
-1170.433
-1167.8
-1165.347
-1163.05
-1160.887
-1158.835
-1156.871
-1154.973
-1153.119
-1151.285
-1149.444
-1147.573
-1145.647
-1143.644
-1141.544
-1139.324
-1136.962
-1134.441
-1131.749
-1128.881
-1125.833
-1122.599
-1119.167
-1115.527
-1111.674
-1107.611
-1103.347
-1098.891
-1094.249
-1089.429
-1084.446
-1079.321
-1074.078
-1068.733
-1063.289
-1057.739
-1052.083
-1046.326
-1040.491
-1034.612
-1028.706
-1022.787
-1016.838
-1010.799
-1004.641
-998.363
-991.985
-985.567
-979.135
-972.656
-966.212
-960.064
-954.435
-949.427
-944.871
-940.268
-935.311
-930.119
-924.784
-919.089
-912.913
-906.48
-900.657
-897.266
-896.799
-897.63
-898.453
-899.518
-904.982
-920.992
-950.101
-988.178
-1022.455
-1039.664
-1031.154
-994.238
-939.014
-877.306
-820.764
-785.363
-776.689
-796.68
-843.288
-900.511
-954.479
-992.561
-1004.625
-994.715
-971.478
-945.633
-928.105
-920.675
-918.106
-915.124
-908.965
-901.695
-902.505
-915.452
-933.83
-948.26
-944.31
-914.417
-869.315
-823.089
-790.448
-782.011
-790.344
-802.685
-809.706
-803.304
-785.818
-764.835
-743.826
-725.613
-710.258
-695.035
-679.286
-663.091
-646.184
-628.759
-610.682
-591.416
-570.69
-548.445
-524.557
-498.957
-471.72
-442.933
-412.692
-381.134
-348.304
-314.153
-278.717
-242.084
-204.394
-165.903
-126.841
-87.416
-47.885
-8.448
30.756
69.598
108.083
146.325
184.24
221.634
258.201
293.331
326.414
356.972
384.32
407.779
427.297
442.995
455.176
465.023
473.702
482.039
491.322
501.139
508.585
511.777
509.745
504.149
499.538
495.46
485.591
458.767
402.377
312.751
193.806
54.395
-91.821
-235.41
-366.575
-471.152
-541.959
-573.895
-567.743
-538.782
-501.107
-468.318
-454.009
-458.896
-478.243
-505.189
-526.46
-533.431
-525.428
-501.06
-464.11
-420.854
-370.707
-319.449
-274.879
-238.984
-217.837
-209.521
-204.436
-198.004
-184.347
-161.978
-136.076
-109.277
-83.855
-61.265
-40.367
-20.883
-3.151
12.636
25.913
36.525
44.738
50.914
55.594
59.147
61.796
63.74
65.047
65.835
66.327
66.723
67.261
68.239
69.848
72.255
75.639
80.08
85.664
92.491
100.619
110.129
121.126
133.663
147.776
163.47
180.621
199.036
218.45
238.507
258.925
279.468
299.876
319.933
339.495
358.396
376.501
393.676
409.614
423.958
436.546
447.339
456.332
463.722
470.044
475.844
481.837
489.179
497.473
506.055
516.059
527.083
540.471
557.873
574.441
587.698
596.121
596.879
596.007
595.389
590.822
584.119
574.782
570.825
593.937
656.65
763.797
909.77
1068.262
1215.374
1335.793
1417.606
1465.726
1489.38
1491.276
1475.541
1439.908
1377.988
1291.092
1183.094
1058.204
925.058
788.484
650.787
520.302
403.047
304.81
231.633
179.914
145.048
122.676
106.903
97.985
96.262
100.57
111.115
125.569
142.138
160.876
181.29
203.064
225.705
248.025
268.917
287.826
304.115
317.205
326.914
333.529
337.955
341.208
344.176
347.346
350.911
354.965
359.42
363.865
367.541
369.84
370.356
368.976
365.963
361.654
356.413
350.747
345.227
340.267
336.187
333.148
331.114
330.038
329.849
330.421
331.623
333.325
335.382
337.663
340.032
342.321
344.368
346.003
347.084
347.506
347.176
346.049
344.111
341.36
337.819
333.508
328.432
322.64
316.198
309.109
301.405
293.134
284.334
275.119
265.629
255.889
245.893
235.847
225.977
216.205
206.568
197.123
187.482
178.78
172.117
165.984
159.936
151.165
136.304
119.108
102.085
88.96
84.85
85.244
86.322
85.463
78.336
68.041
57.72
48.064
40.979
35.341
29.707
24.334
19.022
13.846
9.077
4.505
-0.044
-4.539
-8.992
-13.443
-17.911
-22.408
-26.951
-31.534
-36.149
-40.83
-45.61
-50.502
-55.526
-60.705
-66.053
-71.592
-77.339
-83.299
-89.48
-95.905
-102.572
-109.466
-116.572
-123.872
-131.364
-139.08
-147.022
-155.148
-163.477
-172.079
-181.005
-190.311
-199.998
-209.955
-220.139
-230.645
-241.354
-251.872
-262.097
-272.13
-281.907
-291.813
-301.104
-307.388
-311.105
-314.446
-320.938
-337.31
-363.291
-392.052
-416.841
-428.078
-424.929
-416.468
-409.738
-412.292
-425.626
-442.961
-460.068
-474.089
-484.083
-492.838
-501.619
-510.242
-518.747
-526.649
-533.817
-540.711
-547.47
-553.921
-560.16
-566.557
-573.173
-579.871
-586.653
-593.069
-599.761
-608.993
-620.359
-631.746
-639.817
-638.177
-626.98
-612.677
-601.611
-602.802
-617.106
-635.898
-652.483
-659.73
-656.139
-648.114
-639.658
-633.41
-630.267
-627.609
-624.185
-620.089
-615.215
-609.948
-604.398
-598.211
-591.275
-583.655
-575.348
-566.345
-556.669
-546.344
-535.418
-523.965
-512.022
-499.579
-486.647
-473.251
-459.414
-445.164
-430.524
-415.514
-400.16
-384.495
-368.549
-352.354
-335.941
-319.338
-302.575
-285.682
-268.688
-251.62
-234.506
-217.369
-200.234
-183.123
-166.056
-149.052
-132.128
-115.3
-98.583
-81.987
-65.526
-49.208
-33.041
-17.034
-1.192
14.48
29.978
45.298
60.438
75.396
90.171
104.761
119.167
133.388
147.424
161.276
174.943
188.424
201.718
214.824
227.74
240.46
252.98
265.295
277.4
289.288
300.951
312.379
323.556
334.477
345.133
355.503
365.565
375.301
384.685
393.714
402.391
410.689
418.581
426.089
433.227
440.007
446.451
452.524
458.166
463.402
468.28
472.659
476.371
479.518
482.092
484.066
485.804
486.354
484.793
482.468
479.8
479.257
483.793
490.179
496.271
498.869
493.567
484.307
474.436
466.256
463.553
463.666
463.897
463.669
461.344
457.911
454.633
451.294
448.073
444.901
441.542
438.172
434.933
431.786
428.725
425.762
422.889
420.091
417.354
414.648
411.933
409.208
406.472
403.71
400.911
398.061
395.14
392.133
389.025
385.804
382.466
379.009
375.43
371.722
367.864
363.838
359.631
355.225
350.6
345.737
340.614
335.234
329.634
323.852
317.922
311.857
305.628
299.225
292.659
285.959
279.208
272.495
265.868
259.434
253.339
247.618
242.238
237.017
231.514
225.353
218.258
209.889
200.098
189.11
177.376
165.723
155.339
147.135
141.897
140.574
143.52
150.266
159.762
170.137
179.159
185.195
186.599
181.206
167.701
145.92
116.658
82.358
46.075
10.156
-22.481
-47.64
-61.556
-60.975
-43.227
-7.732
45.374
116.677
205.63
309.814
426.253
550.844
678.571
805.53
927.556
1039.074
1134.948
1211.058
1263.788
1291.194
1293.052
1269.198
1220.678
1150.568
1062.691
961.45
851.985
739.181
627.229
520.442
422.399
335.375
261.153
200.93
154.882
122.329
102.348
93.589
94.853
105.421
124.044
148.83
178.037
210.5
245.015
280.367
314.846
346.004
372.307
393.46
409.485
420.371
426.4
428.032
426.521
424.145
422.314
421.387
421.444
422.284
423.688
425.557
427.176
427.135
424.598
419.325
411.379
401.232
389.209
375.431
360.319
344.588
328.866
313.666
299.272
285.71
273.038
261.382
250.859
241.552
233.461
226.528
220.713
216.023
212.525
210.318
209.421
209.755
211.169
213.475
216.544
220.269
224.515
229.112
233.841
238.524
243.072
247.451
251.626
255.536
259.08
262.14
264.679
266.713
268.277
269.418
270.141
270.461
270.426
270.125
269.671
269.139
268.585
268.041
267.525
267.043
266.572
266.067
265.474
264.765
263.839
262.566
260.933
259.026
257.118
255.521
254.255
253.093
251.965
251.023
250.115
248.988
247.108
243.462
238.865
234.828
230.97
227.471
222.334
213.219
204.151
198.388
199.627
211.636
229.428
248.856
267.102
280
289.461
297.027
302.488
307.508
311.781
314.676
316.73
317.848
318.147
318.147
317.896
317.21
315.843
313.505
310.052
305.539
300.135
293.988
287.274
280.168
272.823
265.384
257.945
250.585
243.357
236.313
229.529
223.057
216.937
211.218
205.931
201.079
196.642
192.558
188.723
185.074
181.576
178.199
174.942
171.786
168.705
165.686
162.716
159.781
156.871
153.968
151.054
148.129
145.206
142.314
139.5
136.795
134.211
131.757
129.43
127.228
125.152
123.19
121.326
119.542
117.825
116.167
114.562
113.006
111.481
109.962
108.434
106.897
105.355
103.813
102.265
100.681
99.056
97.421
95.763
94.028
92.174
90.155
87.97
85.705
83.39
80.948
78.475
76.285
74.446
72.88
71.637
70.393
69.791
71.724
75.749
80.162
82.08
76.131
62.779
47.396
35.381
34.388
44.735
59.229
72.322
77.968
75.246
69.546
64.131
61.276
61.606
62.909
64.212
65.57
66.904
68.538
70.537
72.593
74.61
76.628
78.628
80.584
82.499
84.374
86.227
88.1
89.998
91.889
93.757
95.597
97.401
99.164
100.878
102.53
104.112
105.623
107.06
108.421
109.703
110.904
112.024
113.06
114.015
114.889
115.682
116.395
117.03
117.588
118.07
118.478
118.813
119.074
119.263
119.379
119.42
119.386
119.273
119.078
118.798
118.43
117.967
117.406
116.742
115.969
115.082
114.074
112.941
111.674
110.268
108.714
107.006
105.137
103.099
100.885
98.489
95.904
93.125
90.145
86.96
83.566
79.958
76.133
72.087
67.82
63.329
58.616
53.681
48.526
43.153
37.568
31.775
25.778
19.582
13.194
6.619
-0.137
-7.071
-14.176
-21.448
-28.882
-36.474
-44.218
-52.111
-60.145
-68.315
-76.615
-85.038
-93.581
-102.237
-111.005
-119.879
-128.859
-137.942
-147.127
-156.41
-165.786
-175.245
-184.782
-194.389
-204.059
-213.797
-223.602
-233.47
-243.397
-253.378
-263.398
-273.442
-283.475
-293.446
-303.309
-313.013
-322.516
-331.787
-340.788
-349.477
-357.815
-365.745
-373.22
-380.206
-386.659
-392.546
-397.86
-402.611
-406.864
-410.739
-414.354
-417.817
-421.223
-424.652
-428.215
-432.046
-436.289
-441.089
-446.554
-452.816
-460.074
-468.438
-477.86
-488.081
-498.533
-508.556
-517.603
-525.073
-530.312
-532.916
-532.781
-530.37
-526.843
-523.431
-521.126
-520.747
-522.904
-527.725
-534.664
-541.99
-546.809
-545.83
-535.85
-514.149
-478.355
-426.668
-358.541
-275.113
-179.283
-75.474
31.187
135.548
231.874
314.214
377.396
417.04
430.248
416.19
374.97
307.47
216.297
105.303
-20.743
-155.816
-293.954
-430.062
-558.754
-675.027
-775.074
-855.99
-916.756
-958.476
-982.977
-992.473
-990.278
-979.925
-965.011
-949.193
-934.526
-921.603
-910.55
-900.978
-892.032
-882.841
-872.162
-858.536
-841.51
-821.384
-798.755
-774.575
-749.677
-724.74
-700.628
-678.256
-658.177
-640.636
-625.642
-612.982
-602.502
-594.061
-587.427
-582.325
-578.446
-575.504
-573.257
-571.504
-570.098
-568.898
-567.755
-566.529
-565.081
-563.282
-561.049
-558.301
-554.934
-550.896
-546.173
-540.784
-534.821
-528.38
-521.546
-514.413
-507.047
-499.504
-491.848
-484.136
-476.415
-468.747
-461.181
-453.78
-446.639
-439.819
-433.351
-427.246
-421.476
-416.006
-410.81
-405.845
-401.064
-396.425
-391.884
-387.407
-382.972
-378.546
-374.088
-369.554
-364.884
-360.029
-354.961
-349.654
-344.096
-338.281
-332.202
-325.865
-319.287
-312.481
-305.46
-298.236
-290.814
-283.207
-275.435
-267.518
-259.48
-251.346
-243.141
-234.889
-226.618
-218.356
-210.129
-201.962
-193.879
-185.906
-178.068
-170.396
-162.916
-155.658
-148.648
-141.913
-135.48
-129.376
-123.622
-118.241
-113.251
-108.67
-104.515
-100.799
-97.533
-94.727
-92.387
-90.519
-89.124
-88.204
-87.756
-87.777
-88.258
-89.192
-90.567
-92.37
-94.586
-97.197
-100.185
-103.528
-107.204
-111.188
-115.456
-119.979
-124.73
-129.678
-134.793
-140.042
-145.395
-150.816
-156.275
-161.737
-167.17
-172.541
-177.82
-182.974
-187.974
-192.79
-197.395
-201.764
-205.869
-209.69
-213.203
-216.39
-219.233
-221.716
-223.825
-225.546
-226.871
-227.791
-228.299
-228.391
-228.064
-227.319
-226.156
-224.581
-222.598
-220.215
-217.441
-214.288
-210.768
-206.896
-202.688
-198.16
-193.33
-188.218
-182.843
-177.226
-171.388
-165.348
-159.129
-152.749
-146.23
-139.591
-132.851
-126.03
-119.144
-112.213
-105.254
-98.283
-91.317
-84.372
-77.463
-70.603
-63.807
-57.086
-50.454
-43.921
-37.498
-31.194
-25.018
-18.978
-13.08
-7.33
-1.733
3.707
8.988
14.107
19.064
23.857
28.487
32.953
37.256
41.397
45.375
49.192
52.849
56.348
59.689
62.876
65.911
68.797
71.538
74.138
76.602
78.935
81.143
83.232
85.21
87.084
88.862
90.552
92.164
93.708
95.191
96.625
98.016
99.375
100.71
102.028
103.339
104.65
105.968
107.301
108.656
110.041
111.462
112.925
114.436
116
117.622
119.305
121.051
122.863
124.741
126.685
128.692
130.762
132.89
135.071
137.298
139.565
141.861
144.178
146.504
148.826
151.134
153.415
155.655
157.841
159.961
162.001
163.95
165.793
167.52
169.118
170.576
171.882
173.028
174.004
174.801
175.415
175.838
176.066
176.098
175.931
175.566
175.004
174.248
173.303
172.176
170.874
169.41
167.793
166.039
164.163
162.182
160.115
157.979
155.796
153.584
151.365
149.16
146.989
144.873
142.834
140.891
139.065
137.374
135.836
134.47
133.288
132.305
131.533
130.982
130.661
130.575
130.729
131.126
131.767
132.648
133.766
135.113
136.68
138.453
140.417
142.554
144.841
147.252
149.761
152.34
154.956
157.578
160.173
162.707
165.15
167.47
169.634
171.609
173.363
174.863
176.075
176.968
177.513
177.682
177.451
176.801
175.722
174.202
172.234
169.808
166.905
163.511
159.621
155.233
150.351
144.992
139.187
132.983
126.448
119.655
112.673
105.567
98.39
91.198
84.055
77.029
70.214
63.696
57.55
51.854
46.664
42.003
37.862
34.18
30.839
27.729
24.753
21.821
18.872
15.833
12.594
9.027
4.987
0.296
-5.236
-11.735
-19.23
-27.539
-36.153
-44.391
-51.51
-56.73
-59.352
-58.91
-55.164
-48.574
-40.517
-32.649
-26.58
-22.719
-20.138
-18.094
-16.545
-17.673
-23.793
-33.086
-38.994
-28.665
10.217
82.508
186.247
309.314
439.797
570.987
695.101
810.358
912.457
992.426
1049.114
1080.774
1087.239
1073.387
1038.599
982.417
907.602
816.307
713.211
603.573
490.883
377.888
267.146
161.431
62.962
-26.25
-104.306
-170.072
-222.585
-260.798
-284.529
-294.172
-290.11
-273.789
-247.314
-212.83
-173.059
-130.73
-88.241
-48.272
-13.286
15.542
37.866
53.99
65.07
72.245
76.85
80.975
86.496
94.405
105.075
118.202
132.955
148.655
164.494
179.223
191.863
201.907
209.176
213.95
216.757
218.032
218.245
217.98
217.646
217.518
217.831
218.658
219.988
221.811
224.051
226.605
229.423
232.455
235.62
238.832
241.976
244.926
247.609
249.958
251.895
253.333
254.153
254.254
253.59
252.146
249.925
246.931
243.175
238.682
233.518
227.763
221.498
214.795
207.714
200.322
192.697
184.927
177.111
169.332
161.658
154.151
146.869
139.868
133.199
126.904
121.007
115.531
110.502
105.945
101.888
98.347
95.335
92.856
90.914
89.509
88.641
88.302
88.484
89.172
90.35
92.003
94.111
96.651
99.596
102.914
106.572
110.534
114.763
119.22
123.863
128.651
133.544
138.5
143.479
148.441
153.345
158.155
162.832
167.341
171.65
175.726
179.54
183.066
186.279
189.159
191.687
193.846
195.623
197.007
197.991
198.568
198.737
198.496
197.85
196.803
195.362
193.536
191.338
188.781
185.879
182.65
179.112
175.284
171.187
166.843
162.272
157.498
152.545
147.433
142.187
136.828
131.378
125.859
120.292
114.696
109.09
103.493
97.922
92.395
86.924
81.523
76.203
70.976
65.851
60.844
55.956
51.189
46.561
42.083
37.767
33.626
29.654
25.833
22.179
18.708
15.383
12.177
9.068
6.021
3.062
0.242
-2.47
-5.129
-7.597
-9.704
-11.554
-13.137
-14.424
-15.775
-16.216
-14.794
-12.869
-10.851
-11.235
-17.007
-24.861
-32.593
-36.923
-33.343
-25.841
-17.795
-11.521
-10.846
-13.034
-15.315
-17.073
-16.62
-14.939
-13.295
-11.45
-9.57
-7.573
-5.211
-2.656
-0.05
2.646
5.435
8.292
11.206
14.176
17.194
20.273
23.435
26.654
29.896
33.158
36.447
39.763
43.115
46.488
49.833
53.139
56.427
59.66
62.76
65.665
68.302
70.659
72.815
74.784
76.464
77.951
79.579
81.405
83.329
85.392
87.216
89.521
94.412
101.353
108.447
112.44
107.325
93.7
77.544
64.892
64.305
76.024
92.033
106.157
111.635
107.535
99.883
92.302
87.357
85.722
84.94
83.963
82.867
81.586
80.502
79.692
78.83
77.836
76.764
75.591
74.294
72.867
71.318
69.716
68.13
66.552
64.983
63.466
62.032
60.742
59.619
58.543
57.45
56.399
55.276
53.8
51.947
49.779
47.2
44.662
41.755
36.478
29.18
21.664
16.398
19.725
32.416
47.697
59.788
58.63
40.607
16.206
-6.789
-19.178
-15.351
-4.584
6.469
13.335
11.562
6.011
0.42
-4.689
-7.588
-9.542
-11.853
-13.976
-15.962
-17.77
-19.137
-20.202
-21.097
-21.785
-22.278
-22.637
-22.87
-22.941
-22.836
-22.533
-22.004
-21.266
-20.332
-19.195
-17.861
-16.341
-14.643
-12.781
-10.77
-8.623
-6.353
-3.977
-1.512
1.021
3.599
6.196
8.787
11.344
13.839
16.244
18.531
20.672
22.64
24.414
25.971
27.288
28.346
29.121
29.589
29.73
29.527
28.963
28.025
26.699
24.98
22.869
20.37
17.484
14.21
10.531
6.437
1.928
-2.993
-8.315
-14.012
-20.053
-26.394
-32.963
-39.691
-46.509
-53.352
-60.176
-66.932
-73.559
-79.984
-86.114
-91.862
-97.163
-101.964
-106.226
-109.958
-113.194
-116.015
-118.556
-120.929
-123.256
-125.67
-128.306
-131.314
-134.839
-139.007
-144.01
-150.118
-157.488
-166.106
-175.692
-185.685
-195.553
-204.825
-212.872
-218.968
-222.61
-223.727
-223.083
-222.025
-221.574
-222.656
-226.227
-232.795
-242.619
-254.221
-263.165
-266.014
-260.891
-247.598
-229.242
-204.198
-165.259
-104.53
-14.318
105.052
242.589
382.428
509.503
612.724
687.894
738.083
765.394
770.821
755.464
716.154
651.656
564.241
456.493
333.807
202.513
67.726
-65.905
-194.118
-312.987
-419.033
-509.079
-580.88
-634.285
-670.129
-689.385
-693.61
-684.496
-664.199
-636.046
-603.306
-567.867
-531.177
-494.597
-459.566
-428.12
-401.434
-379.155
-360.579
-345.43
-333.5
-324.617
-317.998
-311.808
-304.923
-297.316
-289.291
-281.276
-273.577
-266.237
-259.735
-255.251
-253.508
-254.64
-258.5
-264.556
-272.327
-281.565
-291.837
-302.44
-312.806
-322.503
-331.217
-338.915
-345.595
-351.203
-355.766
-359.347
-362.011
-363.875
-365.055
-365.634
-365.71
-365.375
-364.701
-363.802
-362.803
-361.833
-361.028
-360.469
-360.193
-360.224
-360.551
-361.169
-362.07
-363.211
-364.534
-365.973
-367.44
-368.877
-370.273
-371.542
-372.548
-373.166
-373.264
-372.781
-371.766
-370.207
-367.992
-365.203
-362.178
-359.031
-355.67
-352.12
-348.056
-344.075
-342.257
-342.295
-342.164
-338.842
-326.438
-304.899
-280.338
-258.562
-248.039
-250.345
-257.532
-263.278
-261.107
-249.014
-233.622
-220.71
-212.313
-207.713
-201.659
-187.557
-165.919
-142.088
-121.853
-113.046
-115.814
-122.828
-128.577
-127.024
-117.148
-104.401
-92.136
-82.673
-76.759
-72.218
-68.036
-64.285
-60.899
-58.212
-56.31
-54.89
-53.852
-53.236
-53.029
-53.207
-53.768
-54.711
-56.044
-57.799
-59.972
-62.518
-65.406
-68.615
-72.12
-75.895
-79.915
-84.145
-88.556
-93.125
-97.825
-102.63
-107.514
-112.448
-117.407
-122.365
-127.296
-132.175
-136.976
-141.677
-146.254
-150.685
-154.948
-159.023
-162.892
-166.536
-169.94
-173.087
-175.965
-178.559
-180.86
-182.858
-184.542
-185.908
-186.948
-187.658
-188.036
-188.08
-187.789
-187.164
-186.207
-184.92
-183.308
-181.375
-179.126
-176.569
-173.712
-170.564
-167.135
-163.436
-159.481
-155.283
-150.857
-146.219
-141.384
-136.369
-131.193
-125.873
-120.428
-114.877
-109.24
-103.536
-97.787
-92.011
-86.23
-80.462
-74.727
-69.045
-63.434
-57.912
-52.497
-47.206
-42.055
-37.061
-32.239
-27.603
-23.167
-18.943
-14.943
-11.176
-7.651
-4.373
-1.349
1.418
3.927
6.178
8.17
9.909
11.397
12.641
13.65
14.431
14.996
15.356
15.525
15.517
15.346
15.03
14.582
14.02
13.362
12.623
11.821
10.974
10.1
9.216
8.339
7.486
6.674
5.919
5.234
4.634
4.131
3.736
3.46
3.31
3.295
3.419
3.687
4.102
4.665
5.375
6.23
7.226
8.359
9.622
11.007
12.505
14.107
15.801
17.578
19.424
21.328
23.277
25.257
27.255
29.259
31.255
33.229
35.17
37.064
38.902
40.671
42.363
43.968
45.478
46.886
48.186
49.372
50.44
51.389
52.214
52.916
53.495
53.952
54.29
54.511
54.62
54.621
54.521
54.326
54.044
53.682
53.247
52.749
52.195
51.595
50.956
50.285
49.587
48.869
48.136
47.392
46.637
45.873
45.1
44.319
43.529
42.728
41.913
41.083
40.235
39.368
38.476
37.554
36.594
35.587
34.527
33.405
32.211
30.936
29.565
28.089
26.502
24.795
22.953
20.961
18.796
16.445
13.91
11.194
8.309
5.272
2.104
-1.159
-4.465
-7.767
-11.026
-14.215
-17.318
-20.309
-23.149
-25.79
-28.185
-30.308
-32.156
-33.725
-35.019
-36.061
-36.89
-37.587
-38.262
-38.987
-39.799
-40.698
-41.651
-42.641
-43.659
-44.687
-45.687
-46.588
-47.294
-47.722
-47.786
-47.357
-46.26
-44.254
-41.069
-36.502
-30.411
-22.705
-13.336
-2.247
10.62
25.283
41.719
59.879
79.701
101.14
124.159
148.654
174.456
201.318
228.966
257.189
285.82
314.718
343.759
372.805
401.702
430.333
458.608
486.429
513.696
540.284
566.042
590.869
614.708
637.543
659.372
680.153
699.82
718.31
735.555
751.51
766.156
779.458
791.352
801.797
810.747
818.157
824.028
828.338
831.024
832.028
831.279
828.718
824.345
818.124
809.951
799.822
787.808
774.141
759.355
743.984
728.479
713.441
699.521
687.14
676.544
667.435
658.733
649.437
638.761
625.939
610.551
592.586
572.44
551.668
533.183
520.072
515.479
522.414
543.029
579.06
631.709
700.522
783.266
876.715
976.335
1076.927
1173.774
1261.802
1335.707
1391.229
1425.098
1434.904
1420.314
1382.295
1321.858
1241.177
1143.517
1032.207
911.282
785.439
658.259
532.893
413.006
301.539
200.987
114.043
42.297
-14.054
-54.726
-80.027
-91.266
-89.669
-77.175
-56.958
-32.032
-4.733
22.504
47.936
70.428
88.549
101.744
110.855
117.071
121.617
125.932
130.734
136.41
143.81
153.195
163.971
175.303
186.034
194.884
201.329
205.188
206.077
203.977
199.125
191.831
182.808
172.89
162.515
151.963
141.513
131.325
121.675
112.877
105.024
98.111
92.137
87.069
82.918
79.703
77.336
75.683
74.602
73.941
73.615
73.566
73.699
73.903
74.031
73.919
73.474
72.648
71.404
69.73
67.616
65.067
62.133
58.89
55.405
51.745
47.955
44.069
40.141
36.233
32.414
28.763
25.337
22.177
19.324
16.809
14.662
12.905
11.541
10.565
9.977
9.779
9.975
10.57
11.566
12.953
14.727
16.878
19.4
22.284
25.516
29.081
32.96
37.141
41.614
46.35
51.323
56.503
61.852
67.353
72.993
78.728
84.512
90.346
96.224
102.133
108.073
113.986
119.788
125.477
131.077
136.42
141.312
145.827
149.931
153.568
157.073
159.469
159.807
159.401
158.639
159.95
166.246
174.286
181.907
185.896
181.842
173.646
164.621
157.037
154.649
154.789
154.758
153.969
150.786
146.188
141.431
136.304
130.988
125.427
119.397
113.088
106.66
100.097
93.418
86.666
79.865
73.035
66.195
59.349
52.493
45.663
38.892
32.198
25.601
19.12
12.77
6.567
0.53
-5.332
-11.012
-16.502
-21.798
-26.898
-31.799
-36.504
-41.017
-45.344
-49.492
-53.471
-57.293
-60.972
-64.52
-67.955
-71.294
-74.553
-77.752
-80.909
-84.043
-87.175
-90.322
-93.504
-96.74
-100.048
-103.446
-106.951
-110.579
-114.345
-118.264
-122.348
-126.611
-131.061
-135.709
-140.561
-145.625
-150.904
-156.401
-162.118
-168.053
-174.205
-180.569
-187.139
-193.907
-200.865
-208.001
-215.304
-222.761
-230.357
-238.077
-245.905
-253.824
-261.817
-269.867
-277.954
-286.062
-294.171
-302.263
-310.32
-318.324
-326.256
-334.098
-341.834
-349.446
-356.917
-364.229
-371.368
-378.318
-385.063
-391.59
-397.886
-403.937
-409.732
-415.261
-420.515
-425.484
-430.162
-434.542
-438.62
-442.392
-445.854
-449.004
-451.843
-454.368
-456.582
-458.486
-460.082
-461.373
-462.364
-463.058
-463.461
-463.58
-463.42
-462.989
-462.296
-461.349
-460.158
-458.735
-457.091
-455.239
-453.192
-450.965
-448.571
-446.027
-443.348
-440.55
-437.649
-434.664
-431.609
-428.502
-425.36
-422.201
-419.04
-415.894
-412.78
-409.714
-406.712
-403.79
-400.964
-398.248
-395.658
-393.208
-390.911
-388.782
-386.834
-385.077
-383.523
-382.183
-381.065
-380.177
-379.526
-379.115
-378.95
-379.032
-379.362
-379.94
-380.762
-381.827
-383.13
-384.664
-386.423
-388.398
-390.58
-392.958
-395.52
-398.255
-401.146
-404.181
-407.342
-410.614
-413.978
-417.417
-420.91
-424.437
-427.979
-431.513
-435.018
-438.471
-441.851
-445.134
-448.299
-451.324
-454.188
-456.87
-459.349
-461.608
-463.626
-465.388
-466.877
-468.076
-468.973
-469.552
-469.804
-469.717
-469.282
-468.492
-467.34
-465.823
-463.937
-461.683
-459.06
-456.071
-452.72
-449.013
-444.959
-440.565
-435.842
-430.804
-425.464
-419.838
-413.944
-407.8
-401.426
-394.843
-388.072
-381.136
-374.058
-366.861
-359.569
-352.206
-344.798
-337.369
-329.947
-322.555
-315.221
-307.969
-300.826
-293.817
-286.965
-280.295
-273.829
-267.59
-261.597
-255.872
-250.434
-245.302
-240.494
-236.031
-231.931
-228.211
-224.888
-221.976
-219.49
-217.44
-215.837
-214.683
-213.984
-213.741
-213.959
-214.642
-215.792
-217.408
-219.487
-222.025
-225.015
-228.45
-232.315
-236.59
-241.253
-246.286
-251.679
-257.432
-263.543
-269.997
-276.78
-283.866
-291.226
-298.83
-306.63
-314.556
-322.537
-330.503
-338.39
-346.154
-353.737
-361.072
-368.079
-374.652
-380.705
-386.177
-391.016
-395.201
-398.718
-401.576
-403.825
-405.565
-406.909
-408.003
-408.992
-410.013
-411.249
-412.858
-415.059
-418.17
-422.359
-427.655
-433.912
-440.688
-447.548
-454.175
-460.063
-464.55
-467.255
-468.007
-467.206
-466.072
-465.592
-466.457
-469.38
-474.744
-482.564
-492.433
-502.661
-510.173
-511.9
-504.774
-485.813
-452.807
-403.714
-337.135
-253.601
-155.379
-45.69
71.044
189.856
305.791
413.039
505.63
578.616
627.821
650.185
645.452
615.264
561.512
486.517
390.046
270.537
131.175
-18.998
-164.439
-287.885
-379.618
-440.539
-480.731
-511.619
-539.679
-564.897
-582.238
-588.91
-585.714
-575.394
-562.137
-547.693
-531.604
-513.616
-493.337
-470.87
-447.174
-422.878
-398.62
-375.657
-355.195
-338.048
-324.687
-314.768
-307.283
-301.487
-296.715
-292.239
-287.602
-282.522
-276.901
-271.209
-266.323
-262.825
-261.052
-261.118
-262.79
-265.763
-269.728
-274.153
-278.339
-281.771
-284.065
-285.001
-284.59
-282.847
-279.775
-275.444
-269.952
-263.39
-255.885
-247.548
-238.463
-228.761
-218.573
-208.037
-197.316
-186.551
-175.862
-165.34
-155.035
-144.963
-135.115
-125.494
-116.12
-106.953
-97.893
-88.859
-79.773
-70.601
-61.399
-52.141
-42.672
-33.066
-23.645
-14.443
-5.368
3.532
12.655
21.194
27.006
30.737
34.234
40.874
56.732
80.859
107.27
129.802
139.742
137.281
130.457
125.426
129.076
141.986
158.077
173.805
186.525
195.691
203.787
211.782
219.611
227.321
234.509
241.104
247.426
253.55
259.42
265.054
270.467
275.651
280.591
285.251
289.578
293.574
297.276
300.715
303.915
306.917
309.776
312.555
315.312
318.086
320.904
323.772
326.708
329.725
332.834
336.059
339.42
342.928
346.611
350.49
354.569
358.83
363.216
367.647
372.087
376.512
380.92
385.342
389.804
394.349
399.062
404.005
409.234
414.812
420.767
427.13
433.961
441.342
449.408
458.329
468.227
479.197
491.313
504.601
519.087
534.75
551.483
569.186
587.756
607.081
627.067
647.612
668.576
689.782
711.008
731.979
752.435
772.143
790.878
808.451
824.677
839.421
852.633
864.282
874.35
882.836
889.737
895.063
898.865
901.23
902.272
902.161
901.083
899.21
896.704
893.722
890.413
886.9
883.261
879.545
875.787
872.014
868.252
864.519
860.815
857.121
853.405
849.609
845.655
841.482
837.039
832.28
827.167
821.674
815.788
809.52
802.895
795.94
788.678
781.138
773.346
765.343
757.17
748.875
740.513
732.129
723.759
715.434
707.18
699.016
690.96
683.018
675.186
667.461
659.844
652.333
644.928
637.625
630.414
623.288
616.237
609.253
602.329
595.458
588.633
581.85
575.104
568.39
561.707
555.05
548.413
541.79
535.174
528.558
521.934
515.297
508.638
501.952
495.23
488.468
481.661
474.802
467.885
460.904
453.855
446.732
439.531
432.248
424.88
417.423
409.875
402.235
394.501
386.672
378.749
370.731
362.62
354.417
346.124
337.745
329.283
320.743
312.13
303.451
294.711
285.918
277.08
268.205
259.303
250.382
241.453
232.527
223.614
214.727
205.878
197.08
188.345
179.687
171.121
162.659
154.317
146.107
138.044
130.141
122.411
114.867
107.522
100.388
93.474
86.791
80.348
74.154
68.215
62.537
57.127
51.989
47.124
42.537
38.227
34.195
30.439
26.957
23.746
20.8
18.114
15.681
13.492
11.539
9.81
8.294
6.979
5.853
4.9
4.106
3.455
2.932
2.52
2.205
1.969
1.797
1.673
1.584
1.515
1.453
1.385
1.299
1.184
1.03
0.827
0.566
0.241
-0.154
-0.626
-1.177
-1.811
-2.529
-3.332
-4.219
-5.19
-6.242
-7.371
-8.575
-9.847
-11.182
-12.573
-14.013
-15.493
-17.005
-18.54
-20.091
-21.649
-23.206
-24.758
-26.301
-27.832
-29.35
-30.854
-32.345
-33.823
-35.29
-36.749
-38.199
-39.64
-41.074
-42.506
-43.942
-45.391
-46.86
-48.357
-49.889
-51.464
-53.096
-54.791
-56.551
-58.375
-60.265
-62.236
-64.319
-66.524
-68.858
-71.325
-73.92
-76.647
-79.515
-82.488
-85.502
-88.543
-91.588
-94.612
-97.622
-100.556
-103.317
-105.879
-108.223
-110.14
-111.421
-112.129
-112.238
-111.733
-111.009
-109.174
-105.419
-101.232
-97.173
-95.901
-100.547
-107.973
-116.161
-121.967
-121.086
-117.762
-115.492
-116.589
-124.686
-136.56
-148.947
-160.801
-169.797
-176.219
-180.856
-183.257
-183.997
-184.018
-183.991
-184.761
-187.04
-191.256
-197.528
-205.403
-213.141
-217.824
-216.288
-205.503
-182.948
-146.444
-94.075
-24.958
59.937
157.791
264.257
374.125
482.376
583.561
671.547
740.83
787.087
807.394
801.134
769.172
712.562
633.724
536.644
425.733
305.955
182.476
59.16
-60.709
-173.485
-276.23
-366.707
-443.057
-504.47
-550.972
-582.486
-599.028
-601.161
-590.15
-568.083
-537.583
-501.299
-461.685
-421.186
-382.745
-349.59
-323.797
-306.168
-296.602
-294.113
-297.542
-305.656
-316.293
-326.559
-334.45
-338.945
-339.773
-337.545
-332.914
-326.418
-319.158
-312.639
-307.827
-305.118
-304.447
-305.254
-307.019
-309.403
-311.932
-314.045
-315.388
-315.781
-315.179
-313.707
-311.483
-308.573
-305.077
-301.132
-296.852
-292.386
-287.906
-283.548
-279.44
-275.686
-272.34
-269.438
-267.012
-265.066
-263.597
-262.61
-262.088
-262.021
-262.413
-263.246
-264.491
-266.097
-267.98
-270.062
-272.281
-274.566
-276.859
-279.109
-281.265
-283.301
-285.214
-286.967
-288.516
-289.866
-291.008
-291.928
-292.632
-293.07
-293.171
-292.95
-292.448
-291.512
-289.965
-287.901
-285.306
-282.144
-278.771
-274.213
-267.525
-260.068
-252.266
-246.619
-246.123
-247.502
-248.587
-246.133
-235.678
-221.225
-206.172
-192.858
-185.132
-180.302
-175.64
-170.567
-163.435
-155.259
-147.332
-139.451
-131.812
-124.366
-116.891
-109.587
-102.617
-95.968
-89.655
-83.72
-78.18
-73.046
-68.331
-64.026
-60.115
-56.619
-53.557
-50.929
-48.738
-46.982
-45.656
-44.757
-44.279
-44.209
-44.534
-45.239
-46.307
-47.72
-49.46
-51.506
-53.836
-56.429
-59.26
-62.306
-65.542
-68.943
-72.483
-76.137
-79.88
-83.687
-87.534
-91.396
-95.252
-99.079
-102.857
-106.565
-110.184
-113.697
-117.088
-120.341
-123.442
-126.381
-129.146
-131.73
-134.124
-136.323
-138.324
-140.123
-141.718
-143.109
-144.297
-145.282
-146.066
-146.653
-147.047
-147.251
-147.272
-147.116
-146.789
-146.298
-145.651
-144.856
-143.919
-142.85
-141.656
-140.346
-138.927
-137.408
-135.798
-134.105
-132.337
-130.503
-128.61
-126.666
-124.679
-122.655
-120.6
-118.522
-116.427
-114.32
-112.206
-110.094
-107.987
-105.892
-103.815
-101.761
-99.737
-97.748
-95.8
-93.898
-92.048
-90.256
-88.527
-86.867
-85.282
-83.778
-82.359
-81.031
-79.8
-78.669
-77.644
-76.727
-75.924
-75.237
-74.669
-74.225
-73.906
-73.715
-73.654
-73.726
-73.932
-74.272
-74.747
-75.358
-76.103
-76.982
-77.995
-79.137
-80.409
-81.806
-83.325
-84.962
-86.714
-88.574
-90.539
-92.601
-94.754
-96.993
-99.311
-101.7
-104.153
-106.664
-109.226
-111.831
-114.473
-117.143
-119.836
-122.542
-125.256
-127.969
-130.676
-133.368
-136.04
-138.684
-141.294
-143.864
-146.387
-148.857
-151.27
-153.618
-155.898
-158.105
-160.233
-162.279
-164.241
-166.114
-167.896
-169.586
-171.182
-172.682
-174.086
-175.394
-176.605
-177.719
-178.738
-179.663
-180.495
-181.236
-181.889
-182.456
-182.941
-183.347
-183.678
-183.939
-184.133
-184.266
-184.342
-184.368
-184.349
-184.292
-184.202
-184.087
-183.954
-183.808
-183.658
-183.507
-183.364
-183.234
-183.122
-183.033
-182.972
-182.943
-182.951
-182.999
-183.09
-183.226
-183.41
-183.643
-183.924
-184.255
-184.634
-185.059
-185.528
-186.037
-186.584
-187.165
-187.773
-188.404
-189.052
-189.71
-190.371
-191.026
-191.668
-192.288
-192.876
-193.423
-193.922
-194.364
-194.741
-195.046
-195.271
-195.411
-195.461
-195.416
-195.271
-195.024
-194.671
-194.214
-193.651
-192.985
-192.219
-191.358
-190.409
-189.382
-188.292
-187.15
-185.971
-184.771
-183.567
-182.376
-181.222
-180.123
-179.097
-178.163
-177.341
-176.654
-176.128
-175.783
-175.638
-175.71
-176.011
-176.559
-177.367
-178.444
-179.797
-181.43
-183.343
-185.549
-188.065
-190.898
-194.056
-197.535
-201.315
-205.382
-209.71
-214.258
-218.984
-223.835
-228.75
-233.68
-238.562
-243.344
-247.987
-252.417
-256.572
-260.373
-263.703
-266.495
-268.743
-270.445
-271.676
-272.494
-272.829
-272.817
-272.77
-272.947
-273.703
-275.165
-277.078
-279.528
-282.96
-287.38
-292.477
-297.639
-301.672
-304.071
-305.238
-305.005
-302.775
-298.436
-292.271
-285.49
-280.363
-278.301
-279.523
-284.356
-293.168
-304.784
-316.505
-324.755
-325.597
-319.197
-308.511
-293.9
-272.006
-231.409
-158.685
-48.3
97.464
262.294
423.907
566.875
679.86
763.457
826.104
871.771
903.638
919.924
914.35
884.319
829.004
750.285
653.283
543.327
426.904
308.504
190.156
73.114
-43.514
-155.154
-252.51
-327.281
-370.435
-382.008
-370.625
-343.954
-311.493
-277.836
-240.85
-200.738
-157.811
-113.423
-72.435
-37.873
-10.229
10.601
25.969
37.626
46.433
53.448
60.647
69.624
81.091
95.292
111.708
129.307
147.376
165.025
180.87
193.93
203.706
209.993
213.114
213.59
211.823
208.347
203.801
198.617
193.107
187.493
181.854
176.286
170.918
165.844
161.161
156.959
153.295
150.202
147.674
145.664
144.115
142.952
142.121
141.581
141.286
141.193
141.257
141.412
141.6
141.747
141.745
141.522
141.036
140.271
139.253
138.018
136.597
135.04
133.403
131.735
130.082
128.485
126.97
125.575
124.35
123.348
122.64
122.28
122.307
122.752
123.634
124.965
126.757
129.009
131.707
134.844
138.412
142.408
146.832
151.679
156.938
162.595
168.632
175.032
181.779
188.854
196.236
203.906
211.841
220.024
228.435
237.054
245.858
254.821
263.917
273.119
282.401
291.735
301.091
310.443
319.761
329.019
338.192
347.254
356.179
364.944
373.525
381.901
390.048
397.947
405.577
412.919
419.954
426.666
433.039
439.058
444.711
449.986
454.874
459.366
463.455
467.137
470.408
473.265
475.707
477.735
479.351
480.559
481.363
481.771
481.791
481.431
480.701
479.614
478.182
476.417
474.334
471.947
469.272
466.327
463.127
459.692
456.041
452.193
448.168
443.986
439.669
435.235
430.706
426.101
421.439
416.741
412.024
407.307
402.607
397.94
393.323
388.77
384.296
379.915
375.637
371.476
367.44
363.54
359.783
356.178
352.73
349.445
346.327
343.378
340.601
337.996
335.562
333.296
331.195
329.253
327.464
325.822
324.317
322.94
321.68
320.527
319.468
318.492
317.586
316.735
315.927
315.147
314.382
313.616
312.835
312.026
311.173
310.263
309.282
308.215
307.051
305.775
304.376
302.843
301.164
299.332
297.336
295.171
292.831
290.312
287.611
284.729
281.665
278.423
275.007
271.423
267.679
263.782
259.745
255.578
251.294
246.909
242.438
237.896
233.303
228.675
224.032
219.394
214.782
210.214
205.714
201.3
196.996
192.82
188.795
184.938
181.269
177.807
174.566
171.564
168.812
166.322
164.105
162.168
160.517
159.155
158.084
157.302
156.807
156.593
156.653
156.977
157.555
158.373
159.415
160.666
162.105
163.715
165.472
167.356
169.341
171.404
173.519
175.66
177.8
179.914
181.973
183.953
185.826
187.568
189.155
190.563
191.771
192.758
193.506
193.998
194.22
194.16
193.806
193.151
192.188
190.914
189.327
187.427
185.215
182.698
179.88
176.769
173.376
169.712
165.79
161.624
157.231
152.627
147.831
142.861
137.738
132.482
127.115
121.659
116.134
110.564
104.97
99.373
93.793
88.251
82.765
77.353
72.032
66.816
61.72
56.757
51.938
47.273
42.77
38.438
34.283
30.311
26.524
22.926
19.519
16.303
13.277
10.441
7.791
5.325
3.039
0.927
-1.017
-2.797
-4.423
-5.902
-7.243
-8.457
-9.552
-10.54
-11.43
-12.235
-12.965
-13.631
-14.244
-14.813
-15.352
-15.869
-16.375
-16.882
-17.4
-17.941
-18.521
-19.152
-19.85
-20.628
-21.5
-22.482
-23.586
-24.825
-26.205
-27.737
-29.428
-31.289
-33.331
-35.565
-37.996
-40.631
-43.475
-46.529
-49.795
-53.268
-56.936
-60.787
-64.814
-69.018
-73.412
-78.004
-82.789
-87.761
-92.904
-98.2
-103.625
-109.138
-114.678
-120.185
-125.603
-130.884
-136.001
-140.913
-145.564
-149.881
-153.77
-157.155
-159.982
-162.213
-163.824
-164.816
-165.21
-165.071
-164.502
-163.616
-162.544
-161.409
-160.345
-159.512
-159.052
-159.186
-160.216
-162.315
-165.507
-169.593
-174.085
-178.5
-182.468
-185.483
-186.928
-186.431
-183.939
-180.17
-176.604
-174.542
-174.903
-178.275
-184.913
-194.788
-207.209
-219.913
-229.307
-231.769
-223.945
-203.408
-168.523
-117.614
-50.019
32.775
127.601
230.253
335.764
439.803
538.091
625.13
695.971
747.009
775.209
779.119
758.741
713.652
645.803
559.216
456.334
341.079
216.07
83.023
-50.436
-177.446
-291.025
-384.126
-458.748
-517.336
-562.232
-597.654
-621.828
-633.344
-632.559
-619.179
-596.012
-565.949
-530.613
-492.117
-451.977
-411.854
-374.611
-342.201
-315.466
-295.461
-281.003
-269.077
-259.512
-252.035
-248.346
-255.354
-270.939
-286.602
-292.956
-274.805
-233.077
-184.053
-142.479
-126.267
-137.348
-160.122
-183.169
-195.443
-194.477
-189.381
-184.935
-183.579
-185.99
-188.623
-190.057
-190.748
-190.665
-190.257
-189.717
-188.708
-187.193
-185.322
-183.132
-180.659
-177.982
-175.201
-172.455
-169.907
-167.704
-165.953
-164.727
-164.077
-164.033
-164.602
-165.788
-167.575
-169.913
-172.736
-175.981
-179.583
-183.491
-187.663
-192.034
-196.532
-201.083
-205.603
-210.026
-214.304
-218.386
-222.228
-225.792
-229.045
-231.969
-234.556
-236.795
-238.669
-240.164
-241.262
-241.954
-242.235
-242.103
-241.556
-240.595
-239.224
-237.447
-235.273
-232.711
-229.771
-226.466
-222.804
-218.803
-214.48
-209.856
-204.954
-199.799
-194.418
-188.837
-183.087
-177.198
-171.198
-165.119
-158.989
-152.839
-146.698
-140.597
-134.564
-128.627
-122.816
-117.157
-111.677
-106.401
-101.352
-96.554
-92.029
-87.795
-83.872
-80.274
-77.018
-74.115
-71.577
-69.414
-67.632
-66.239
-65.237
-64.63
-64.417
-64.597
-65.166
-66.119
-67.448
-69.144
-71.198
-73.597
-76.329
-79.379
-82.732
-86.371
-90.28
-94.44
-98.832
-103.435
-108.229
-113.193
-118.306
-123.547
-128.893
-134.324
-139.818
-145.354
-150.913
-156.472
-162.014
-167.517
-172.964
-178.336
-183.616
-188.789
-193.838
-198.751
-203.513
-208.115
-212.545
-216.794
-220.855
-224.721
-228.387
-231.847
-235.1
-238.142
-240.972
-243.592
-246.001
-248.202
-250.198
-251.992
-253.589
-254.992
-256.208
-257.241
-258.099
-258.787
-259.314
-259.685
-259.91
-259.996
-259.951
-259.784
-259.504
-259.119
-258.636
-258.065
-257.412
-256.687
-255.894
-255.043
-254.139
-253.189
-252.198
-251.172
-250.115
-249.033
-247.929
-246.806
-245.669
-244.519
-243.36
-242.193
-241.022
-239.847
-238.671
-237.495
-236.321
-235.149
-233.98
-232.815
-231.653
-230.496
-229.341
-228.189
-227.039
-225.89
-224.741
-223.591
-222.439
-221.283
-220.123
-218.956
-217.783
-216.6
-215.409
-214.208
-212.997
-211.775
-210.543
-209.301
-208.049
-206.788
-205.519
-204.242
-202.959
-201.671
-200.377
-199.081
-197.783
-196.485
-195.188
-193.895
-192.608
-191.329
-190.061
-188.806
-187.567
-186.347
-185.149
-183.977
-182.833
-181.72
-180.644
-179.606
-178.61
-177.66
-176.757
-175.905
-175.106
-174.361
-173.672
-173.041
-172.467
-171.952
-171.496
-171.098
-170.759
-170.476
-170.25
-170.078
-169.958
-169.888
-169.864
-169.884
-169.944
-170.04
-170.168
-170.324
-170.502
-170.698
-170.906
-171.121
-171.335
-171.543
-171.737
-171.912
-172.061
-172.176
-172.251
-172.281
-172.259
-172.178
-172.034
-171.82
-171.531
-171.161
-170.707
-170.162
-169.523
-168.786
-167.948
-167.004
-165.954
-164.794
-163.522
-162.138
-160.639
-159.025
-157.294
-155.446
-153.48
-151.395
-149.191
-146.871
-144.434
-141.881
-139.216
-136.438
-133.55
-130.554
-127.452
-124.245
-120.936
-117.526
-114.017
-110.414
-106.718
-102.934
-99.064
-95.114
-91.086
-86.984
-82.813
-78.576
-74.276
-69.92
-65.512
-61.059
-56.566
-52.043
-47.501
-42.951
-38.408
-33.88
-29.382
-24.928
-20.535
-16.22
-11.998
-7.884
-3.89
-0.032
3.672
7.206
10.556
13.716
16.676
19.427
21.958
24.252
26.303
28.115
29.692
31.041
32.16
33.032
33.651
34.019
34.142
34.024
33.667
33.066
32.236
31.219
30.067
28.849
27.614
26.382
25.173
23.989
22.862
21.877
21.101
20.598
20.429
20.596
21.133
22.147
23.6
25.309
26.995
28.151
28.351
27.522
25.614
22.573
18.584
13.87
8.914
4.867
2.846
3.282
6.261
11.517
18.321
26.093
34.044
40.377
42.955
40.371
31.932
17.759
-0.933
-22.839
-46.688
-69.959
-89.013
-100.375
-100.809
-87.607
-59.624
-16.07
44.223
121.133
212.817
316.708
429.061
545.281
661.548
773.599
875.949
963.625
1032.286
1077.886
1098.127
1092.072
1059.904
1004.472
928.355
833.624
721.916
593.014
452.644
311.476
180.22
71.171
-12.453
-76.705
-126.565
-168.606
-205.146
-231.582
-245.982
-247.344
-235.573
-214.239
-186.298
-153.38
-116.809
-77.545
-36.777
3.303
39.856
71.117
96.522
115.964
129.534
137.677
141.034
141.076
140.231
140.074
141.183
143.754
147.588
152.379
157.862
163.219
167.047
168.515
167.405
163.819
158.258
151.173
142.892
133.993
125.277
117.35
110.576
105.114
100.88
97.801
95.878
95.045
95.196
96.212
97.959
100.327
103.25
106.663
110.466
114.539
118.718
122.834
126.775
130.473
133.892
137.016
139.828
142.323
144.524
146.48
148.24
149.847
151.337
152.732
154.075
155.418
156.825
158.366
160.088
162.022
164.19
166.612
169.301
172.268
175.507
179.004
182.75
186.74
190.971
195.445
200.156
205.093
210.245
215.599
221.143
226.868
232.76
238.805
244.99
251.303
257.733
264.267
270.894
277.596
284.356
291.156
297.976
304.797
311.599
318.361
325.064
331.686
338.211
344.619
350.892
357.013
362.963
368.727
374.288
379.631
384.739
389.599
394.198
398.522
402.56
406.301
409.734
412.85
415.642
418.102
420.225
422.005
423.439
424.524
425.259
425.643
425.677
425.363
424.704
423.703
422.367
420.7
418.711
416.406
413.794
410.885
407.687
404.213
400.472
396.478
392.242
387.779
383.101
378.222
373.158
367.923
362.531
356.999
351.342
345.575
339.715
333.775
327.773
321.722
315.638
309.535
303.426
297.325
291.244
285.196
279.191
273.24
267.354
261.542
255.811
250.171
244.627
239.185
233.851
228.628
223.52
218.53
213.658
208.907
204.277
199.767
195.376
191.102
186.944
182.897
178.959
175.123
171.387
167.743
164.186
160.71
157.308
153.974
150.702
147.483
144.312
141.181
138.082
135.009
131.953
128.907
125.866
122.822
119.768
116.7
113.611
110.496
107.352
104.172
100.954
97.69
94.379
91.02
87.614
84.16
80.657
77.1
73.49
69.84
66.144
62.387
58.559
54.645
50.65
46.603
42.512
38.353
34.152
29.976
25.878
21.918
18.107
14.372
10.699
7.179
3.729
0.051
-3.905
-8.045
-12.403
-16.637
-21.373
-28.49
-37.525
-46.76
-53.292
-51.735
-42.545
-31.08
-22.73
-25.14
-38.612
-55.944
-71.579
-79.466
-78.686
-74.631
-70.562
-68.76
-69.852
-71.635
-73.141
-74.439
-75.458
-76.535
-77.747
-78.8
-79.613
-80.24
-80.675
-80.912
-80.966
-80.856
-80.618
-80.307
-79.947
-79.52
-79.029
-78.482
-77.888
-77.257
-76.595
-75.904
-75.19
-74.464
-73.736
-73.013
-72.304
-71.616
-70.954
-70.325
-69.736
-69.192
-68.698
-68.259
-67.879
-67.559
-67.304
-67.115
-66.993
-66.939
-66.952
-67.031
-67.175
-67.381
-67.646
-67.966
-68.337
-68.752
-69.207
-69.695
-70.208
-70.74
-71.282
-71.826
-72.363
-72.886
-73.384
-73.85
-74.274
-74.647
-74.959
-75.203
-75.368
-75.446
-75.428
-75.306
-75.071
-74.716
-74.236
-73.622
-72.871
-71.976
-70.934
-69.741
-68.395
-66.894
-65.237
-63.423
-61.454
-59.332
-57.061
-54.645
-52.09
-49.403
-46.59
-43.661
-40.624
-37.489
-34.267
-30.969
-27.607
-24.196
-20.749
-17.28
-13.809
-10.355
-6.938
-3.58
-0.301
2.874
5.924
8.828
11.562
14.11
16.454
18.576
20.457
22.079
23.42
24.464
25.195
25.598
25.662
25.374
24.727
23.723
22.365
20.653
18.584
16.141
13.312
10.094
6.488
2.501
-1.847
-6.534
-11.518
-16.736
-22.123
-27.611
-33.139
-38.664
-44.137
-49.498
-54.675
-59.577
-64.119
-68.239
-71.88
-75.003
-77.607
-79.712
-81.391
-82.778
-83.984
-85.135
-86.374
-87.823
-89.645
-92
-95
-98.835
-103.751
-109.892
-117.293
-125.751
-134.781
-143.929
-152.819
-160.865
-167.392
-171.884
-174.063
-174.428
-174.072
-173.785
-174.209
-176.086
-180.024
-186.439
-194.165
-199.495
-198.385
-188.378
-171.15
-151.045
-129.617
-103.186
-59.494
14.638
124.744
267.566
424.335
572.167
694.753
780.149
830.954
856.823
862.648
853.618
828.501
780.858
709.458
615.665
503.404
380.017
251.801
122.946
-2.628
-120.821
-228.17
-321.787
-399.32
-460.104
-505.012
-534.694
-550.284
-553.778
-546.797
-531.473
-510.624
-486.255
-459.449
-431.48
-403.452
-376.582
-352.789
-333.038
-317.104
-304.774
-296.029
-290.667
-288.409
-288.221
-288.026
-286.515
-283.408
-278.705
-272.64
-265.457
-257.244
-248.625
-240.951
-235.077
-231.274
-229.548
-229.499
-230.776
-233.273
-236.715
-240.595
-244.583
-248.446
-252.025
-255.406
-258.641
-261.67
-264.452
-266.913
-268.984
-270.689
-272.093
-273.231
-274.117
-274.79
-275.31
-275.756
-276.208
-276.703
-277.202
-277.689
-278.265
-278.876
-279.278
-279.505
-279.713
-279.876
-280.326
-280.386
-278.111
-273.955
-269.633
-268.054
-274.66
-288.919
-305.333
-318.383
-320.234
-310.559
-296.634
-284.045
-278.912
-282.108
-288.109
-293.575
-296.158
-295.213
-292.985
-290.465
-287.595
-284.45
-280.689
-276.238
-271.406
-266.291
-260.86
-255.141
-249.169
-242.953
-236.504
-229.82
-222.877
-215.686
-208.299
-200.749
-193.06
-185.268
-177.401
-169.496
-161.596
-153.737
-145.952
-138.278
-130.749
-123.399
-116.262
-109.369
-102.752
-96.438
-90.456
-84.83
-79.584
-74.742
-70.324
-66.35
-62.836
-59.796
-57.243
-55.186
-53.633
-52.587
-52.05
-52.021
-52.495
-53.467
-54.928
-56.866
-59.268
-62.117
-65.395
-69.08
-73.15
-77.58
-82.342
-87.409
-92.749
-98.333
-104.129
-110.105
-116.228
-122.465
-128.782
-135.146
-141.523
-147.879
-154.181
-160.396
-166.491
-172.435
-178.198
-183.75
-189.064
-194.114
-198.876
-203.328
-207.449
-211.221
-214.628
-217.656
-220.292
-222.528
-224.356
-225.772
-226.773
-227.36
-227.535
-227.301
-226.666
-225.638
-224.226
-222.442
-220.299
-217.811
-214.994
-211.866
-208.446
-204.753
-200.808
-196.633
-192.252
-187.687
-182.962
-178.101
-173.129
-168.07
-162.948
-157.787
-152.61
-147.442
-142.305
-137.221
-132.212
-127.299
-122.502
-117.838
-113.326
-108.981
-104.819
-100.855
-97.102
-93.571
-90.275
-87.225
-84.429
-81.896
-79.635
-77.652
-75.952
-74.541
-73.421
-72.596
-72.068
-71.835
-71.899
-72.259
-72.911
-73.855
-75.086
-76.599
-78.39
-80.452
-82.778
-85.361
-88.191
-91.259
-94.556
-98.071
-101.793
-105.71
-109.811
-114.081
-118.508
-123.076
-127.77
-132.572
-137.466
-142.431
-147.449
-152.5
-157.561
-162.613
-167.631
-172.594
-177.479
-182.263
-186.922
-191.433
-195.772
-199.914
-203.835
-207.512
-210.921
-214.04
-216.846
-219.318
-221.435
-223.179
-224.531
-225.475
-225.994
-226.075
-225.704
-224.871
-223.567
-221.787
-219.526
-216.783
-213.561
-209.864
-205.702
-201.084
-196.024
-190.541
-184.653
-178.382
-171.749
-164.779
-157.499
-149.937
-142.126
-134.096
-125.882
-117.523
-109.06
-100.539
-92.003
-83.496
-75.062
-66.742
-58.58
-50.62
-42.9
-35.457
-28.328
-21.55
-15.166
-9.227
-3.768
1.19
5.633
9.56
12.968
15.853
18.224
20.1
21.492
22.404
22.826
22.723
22.086
20.922
19.254
17.132
14.584
11.62
8.25
4.48
0.317
-4.218
-9.131
-14.453
-20.17
-26.235
-32.554
-38.979
-45.392
-51.712
-57.864
-63.801
-69.456
-74.733
-79.555
-83.85
-87.537
-90.541
-92.753
-94.02
-94.257
-93.434
-91.577
-88.789
-85.135
-80.647
-75.362
-69.307
-62.518
-55.056
-46.959
-38.246
-28.961
-19.162
-8.945
1.546
12.219
23.023
33.939
45
56.209
67.535
78.962
90.467
102.024
113.609
125.17
136.632
147.936
159.038
169.911
180.553
190.941
201.027
210.759
220.072
228.911
237.24
245.008
252.159
258.641
264.419
269.473
273.802
277.408
280.298
282.494
284.034
284.974
285.374
285.284
284.763
283.891
282.746
281.419
280.006
278.573
277.204
276.014
275.043
274.239
273.537
272.821
271.972
270.983
269.799
268.208
266.23
264.14
261.848
259.129
255.916
251.543
246.373
242.238
238.391
232.971
223.443
204.984
178.865
151.799
130.01
120.329
123.253
132.504
143.516
154.861
166.733
179.053
187.906
183.024
157.911
117.186
72.867
45.44
51.691
94.454
168.655
261.777
362.201
466.397
574.742
689.856
811.187
933.055
1047.795
1147.692
1230.348
1297.194
1347.473
1377.818
1378.506
1336.79
1248.526
1118.186
959.463
793.271
634.23
490.335
364.343
252.13
152.542
66.439
-5.708
-60.424
-97.404
-118.469
-124.945
-120.997
-110.182
-94.44
-76.209
-56.583
-35.61
-13.982
7.587
28.996
49.9
69.749
88.539
106.097
121.931
136.128
149.221
161.345
172.719
183.775
194.395
204.406
213.786
222.035
228.419
232.607
234.365
233.459
230.083
224.536
217.131
208.49
199.296
190.014
181.055
172.798
165.478
159.28
154.329
150.594
147.993
146.475
145.978
146.431
147.748
149.792
152.402
155.435
158.771
162.284
165.844
169.293
172.461
175.233
177.543
179.358
180.662
181.44
181.688
181.431
180.72
179.608
178.147
176.377
174.333
172.06
169.613
167.055
164.453
161.858
159.303
156.817
154.423
152.142
149.99
147.971
146.079
144.311
142.672
141.166
139.803
138.582
137.503
136.562
135.754
135.077
134.528
134.101
133.792
133.594
133.503
133.517
133.631
133.842
134.141
134.52
134.967
135.473
136.026
136.615
137.225
137.846
138.465
139.07
139.651
140.196
140.695
141.136
141.508
141.802
142.007
142.114
142.114
142
141.763
141.399
140.9
140.264
139.484
138.56
137.489
136.269
134.901
133.383
131.719
129.91
127.958
125.869
123.647
121.299
118.832
116.253
113.572
110.799
107.943
105.017
102.032
99
95.935
92.85
89.761
86.682
83.63
80.62
77.669
74.793
72.009
69.334
66.782
64.372
62.118
60.036
58.139
56.442
54.958
53.703
52.687
51.916
51.397
51.135
51.137
51.411
51.958
52.77
53.85
55.213
56.87
58.831
61.092
63.614
66.384
69.419
72.685
76.106
79.615
83.143
86.66
90.229
93.855
97.431
101.017
104.9
109.134
113.601
118.317
122.94
128.012
135.449
144.91
154.555
161.524
160.307
150.957
139.037
130.003
131.617
144.724
161.884
177.322
184.916
183.303
178.014
172.536
169.143
168.652
168.821
168.567
167.988
167.003
165.955
164.955
163.71
162.131
160.287
158.184
155.822
153.229
150.434
147.481
144.438
141.341
138.181
134.966
131.716
128.443
125.165
121.895
118.637
115.402
112.204
109.054
105.962
102.937
99.984
97.109
94.318
91.616
89.005
86.488
84.066
81.74
79.51
77.374
75.331
73.379
71.514
69.732
68.028
66.398
64.837
63.338
61.895
60.504
59.158
57.851
56.578
55.334
54.114
52.914
51.729
50.556
49.39
48.23
47.072
45.914
44.754
43.591
42.421
41.244
40.059
38.864
37.657
36.437
35.203
33.954
32.689
31.406
30.105
28.784
27.441
26.077
24.69
23.278
21.84
20.374
18.879
17.352
15.792
14.196
12.561
10.884
9.163
7.392
5.569
3.689
1.749
-0.254
-2.326
-4.469
-6.686
-8.981
-11.354
-13.81
-16.347
-18.969
-21.674
-24.464
-27.337
-30.291
-33.326
-36.438
-39.625
-42.881
-46.204
-49.587
-53.026
-56.514
-60.045
-63.611
-67.204
-70.815
-74.435
-78.053
-81.658
-85.238
-88.78
-92.272
-95.701
-99.054
-102.316
-105.474
-108.516
-111.427
-114.194
-116.805
-119.246
-121.505
-123.569
-125.426
-127.066
-128.477
-129.651
-130.577
-131.248
-131.657
-131.796
-131.66
-131.244
-130.543
-129.555
-128.277
-126.71
-124.854
-122.713
-120.292
-117.597
-114.636
-111.419
-107.957
-104.263
-100.35
-96.233
-91.929
-87.455
-82.83
-78.075
-73.211
-68.262
-63.254
-58.216
-53.177
-48.167
-43.214
-38.349
-33.601
-29.003
-24.586
-20.378
-16.406
-12.696
-9.277
-6.178
-3.428
-1.049
0.943
2.535
3.715
4.472
4.795
4.684
4.141
3.172
1.78
-0.046
-2.316
-5.026
-8.169
-11.723
-15.661
-19.96
-24.59
-29.505
-34.647
-39.956
-45.367
-50.829
-56.299
-61.731
-67.07
-72.259
-77.239
-81.945
-86.317
-90.313
-93.908
-97.141
-100.066
-102.649
-104.899
-106.973
-109.174
-111.889
-115.417
-119.713
-124.623
-130.455
-137.6
-145.846
-154.274
-161.621
-166.627
-169.848
-173.561
-177.227
-178.999
-176.305
-164.535
-146.621
-131.134
-124.871
-136.519
-165.949
-202.218
-237.953
-265.097
-280.431
-291.187
-296.55
-290.874
-267.364
-211.897
-122.643
-8.369
122.397
252.694
372.877
480.903
570.352
641.757
694.414
724.157
731.589
714.352
670.595
601.863
510.031
399.908
277.178
147.052
14.889
-114.916
-238.192
-351.1
-450.804
-535.098
-602.532
-652.906
-686.955
-705.82
-711.018
-703.836
-685.702
-658.692
-625.161
-587.298
-546.745
-504.943
-463.518
-424.672
-390.584
-362.404
-340.365
-324.224
-313.715
-308.458
-307.63
-309.531
-312.071
-313.946
-314.648
-314.125
-312.513
-309.941
-306.699
-303.646
-301.915
-302.112
-304.314
-308.247
-313.431
-319.459
-325.933
-332.255
-337.742
-341.957
-344.711
-346.01
-345.994
-344.773
-342.428
-339.107
-335.012
-330.334
-325.239
-319.874
-314.349
-308.8
-303.407
-298.326
-293.674
-289.529
-285.927
-282.881
-280.407
-278.501
-277.134
-276.268
-275.856
-275.85
-276.215
-276.901
-277.854
-279.012
-280.298
-281.652
-283.028
-284.388
-285.705
-286.956
-288.12
-289.18
-290.133
-290.97
-291.681
-292.253
-292.668
-292.912
-292.975
-292.851
-292.534
-292.016
-291.288
-290.342
-289.17
-287.767
-286.124
-284.234
-282.087
-279.68
-277.011
-274.079
-270.888
-267.44
-263.739
-259.791
-255.604
-251.187
-246.547
-241.693
-236.636
-231.388
-225.96
-220.366
-214.619
-208.735
-202.727
-196.612
-190.403
-184.118
-177.771
-171.376
-164.95
-158.507
-152.062
-145.629
-139.224
-132.859
-126.548
-120.304
-114.139
-108.064
-102.091
-96.228
-90.485
-84.869
-79.39
-74.052
-68.862
-63.823
-58.94
-54.214
-49.647
-45.24
-40.991
-36.899
-32.961
-29.172
-25.529
-22.026
-18.655
-15.411
-12.286
-9.271
-6.357
-3.535
-0.795
1.874
4.482
7.041
9.561
12.053
14.529
16.999
19.475
21.966
24.482
27.034
29.632
32.283
34.996
37.78
40.641
43.585
46.618
49.746
52.972
56.298
59.729
63.265
66.907
70.655
74.509
78.467
82.526
86.683
90.934
95.274
99.698
104.197
108.766
113.395
118.077
122.802
127.56
132.341
137.133
141.927
146.71
151.471
156.196
160.874
165.492
170.036
174.493
178.85
183.092
187.206
191.178
194.993
198.638
202.098
205.36
208.409
211.233
213.817
216.15
218.219
220.013
221.52
222.732
223.639
224.234
224.508
224.457
224.074
223.357
222.302
220.908
219.173
217.098
214.685
211.937
208.858
205.453
201.731
197.699
193.367
188.747
183.852
178.696
173.296
167.669
161.833
155.808
149.615
143.276
136.815
130.254
123.618
116.932
110.219
103.506
96.816
90.173
83.602
77.126
70.768
64.548
58.49
52.612
46.935
41.476
36.253
31.281
26.573
22.142
17.999
14.152
10.608
7.371
4.444
1.828
-0.48
-2.483
-4.187
-5.601
-6.734
-7.599
-8.21
-8.582
-8.732
-8.679
-8.443
-8.043
-7.501
-6.838
-6.077
-5.24
-4.35
-3.428
-2.497
-1.581
-0.701
0.122
0.866
1.512
2.041
2.434
2.676
2.751
2.646
2.347
1.844
1.129
0.194
-0.966
-2.354
-3.972
-5.818
-7.89
-10.184
-12.693
-15.409
-18.324
-21.427
-24.707
-28.15
-31.744
-35.473
-39.323
-43.277
-47.319
-51.43
-55.593
-59.79
-64
-68.207
-72.391
-76.534
-80.618
-84.624
-88.537
-92.339
-96.013
-99.544
-102.918
-106.119
-109.136
-111.957
-114.572
-116.972
-119.149
-121.098
-122.812
-124.289
-125.527
-126.523
-127.277
-127.789
-128.064
-128.103
-127.912
-127.497
-126.867
-126.032
-125.007
-123.806
-122.445
-120.943
-119.317
-117.586
-115.772
-113.894
-111.969
-110.015
-108.052
-106.1
-104.182
-102.319
-100.534
-98.848
-97.281
-95.851
-94.578
-93.476
-92.552
-91.813
-91.266
-90.927
-90.818
-90.961
-91.366
-92.043
-92.992
-94.206
-95.671
-97.358
-99.215
-101.186
-103.22
-105.269
-107.304
-109.287
-111.173
-112.904
-114.408
-115.613
-116.475
-116.95
-117.008
-116.653
-115.91
-114.851
-113.611
-112.305
-111.05
-109.981
-109.208
-108.858
-109.089
-110.027
-111.838
-114.753
-118.898
-124.275
-130.737
-137.905
-145.325
-152.532
-158.883
-163.626
-166.22
-166.401
-164.461
-161.182
-157.329
-153.914
-151.91
-152.007
-154.931
-159.69
-164.165
-167.149
-166.211
-160.48
-149.594
-127.933
-90.856
-33.167
49.802
152.923
268.952
388.755
502.311
607.602
705.485
797.215
881.233
947.716
981.374
968.564
904.432
795.96
660.627
516.442
375.039
241.059
112.566
-11.395
-127.77
-231.943
-318.646
-385.113
-432.275
-462.225
-477.012
-478.889
-469.9
-452.346
-429.531
-404.468
-378.944
-354.469
-332.05
-312.231
-295.983
-283.635
-274.193
-266.443
-259.23
-251.268
-242.079
-231.428
-218.531
-203.146
-185.741
-167.038
-148.259
-130.762
-115.205
-101.961
-91.484
-83.885
-79.079
-76.844
-76.573
-77.525
-79.225
-81.401
-83.874
-86.571
-89.388
-92.176
-94.823
-97.281
-99.474
-101.278
-102.595
-103.338
-103.463
-103.013
-102.078
-100.767
-99.19
-97.43
-95.519
-93.48
-91.354
-89.207
-87.093
-85.014
-82.989
-81.065
-79.311
-77.844
-76.711
-75.812
-75.19
-75.116
-75.604
-76.506
-77.811
-79.145
-81.076
-85.479
-91.905
-98.553
-102.468
-98.155
-85.913
-71.163
-59.325
-58.096
-67.902
-81.424
-93.045
-96.645
-91.118
-81.888
-72.233
-64.422
-59.268
-54.602
-49.357
-43.76
-38.052
-32.588
-27.409
-22.334
-16.781
-11.396
-8.317
-6.963
-5.534
-1.221
12.669
36.233
62.388
84.892
93.039
83.918
68.407
54.527
51.984
65.829
86.398
106.983
122.832
129.666
132.484
134.923
137.505
141.911
146.814
150.924
154.779
158.302
161.515
164.669
167.614
170.207
172.477
174.406
175.928
177.037
177.774
178.16
178.225
178.008
177.509
176.73
175.699
174.431
172.94
171.242
169.349
167.274
165.037
162.655
160.145
157.522
154.804
152.006
149.144
146.234
143.293
140.334
137.374
134.424
131.499
128.612
125.773
122.993
120.283
117.652
115.107
112.657
110.308
108.064
105.931
103.912
102.008
100.223
98.556
97.009
95.581
94.273
93.083
92.012
91.058
90.22
89.496
88.886
88.386
87.994
87.709
87.527
87.446
87.462
87.574
87.777
88.07
88.448
88.908
89.447
90.06
90.744
91.496
92.31
93.184
94.113
95.094
96.123
97.197
98.312
99.465
100.653
101.87
103.114
104.378
105.658
106.949
108.246
109.543
110.834
112.115
113.378
114.618
115.828
117.004
118.137
119.222
120.253
121.224
122.129
122.963
123.721
124.4
124.995
125.504
125.922
126.248
126.478
126.612
126.647
126.581
126.413
126.144
125.772
125.298
124.723
124.049
123.277
122.41
121.45
120.4
119.264
118.044
116.745
115.371
113.927
112.418
110.85
109.226
107.553
105.836
104.081
102.29
100.47
98.625
96.756
94.87
92.968
91.053
89.129
87.198
85.263
83.324
81.384
79.445
77.507
75.571
73.637
71.706
69.778
67.852
65.929
64.007
62.087
60.168
58.248
56.326
54.401
52.471
50.533
48.587
46.629
44.66
42.676
40.676
38.66
36.627
34.575
32.504
30.414
28.304
26.174
24.025
21.858
19.674
17.473
15.258
13.03
10.792
8.545
6.293
4.038
1.782
-0.47
-2.714
-4.948
-7.167
-9.366
-11.54
-13.684
-15.792
-17.859
-19.878
-21.845
-23.751
-25.592
-27.359
-29.046
-30.646
-32.151
-33.552
-34.842
-36.013
-37.057
-37.968
-38.737
-39.357
-39.821
-40.123
-40.256
-40.213
-39.988
-39.576
-38.971
-38.167
-37.163
-35.953
-34.537
-32.911
-31.076
-29.03
-26.775
-24.313
-21.644
-18.771
-15.7
-12.436
-8.986
-5.357
-1.56
2.394
6.49
10.71
15.037
19.454
23.939
28.473
33.034
37.601
42.155
46.677
51.147
55.545
59.847
64.032
68.074
71.951
75.643
79.128
82.386
85.403
88.168
90.675
92.915
94.877
96.534
97.867
98.863
99.511
99.81
99.765
99.392
98.727
97.825
96.744
95.543
94.272
92.964
91.659
90.399
89.241
88.259
87.523
87.082
86.985
87.27
87.941
88.962
90.248
91.641
93.004
94.227
95.192
95.791
95.892
95.358
94.072
91.924
88.754
84.326
78.506
71.367
63.214
54.581
46.048
38.156
31.527
26.996
25.145
25.876
28.603
32.314
35.84
38.331
39.066
36.996
32.746
29.459
30.38
37.966
50.712
63.661
75.048
89.621
121.237
185.156
288.479
427.769
583.463
731.987
857.121
947.475
1005.494
1040.67
1057.175
1058.755
1043.738
1005.284
941.367
853.108
744.192
621.511
491.356
358.86
228.816
105.94
-5.334
-101.718
-181.031
-242.224
-285.903
-313.688
-327.625
-330.45
-324.936
-313.084
-296.577
-277.085
-255.374
-231.499
-205.617
-177.804
-148.471
-119.03
-90.903
-64.758
-41.479
-22.04
-6.82
4.016
11.005
15.841
20.014
24.21
29.008
34.716
41.261
48.611
56.225
62.863
67.621
70.119
70.225
68.172
64.25
58.623
51.695
44.116
36.401
28.915
21.869
15.297
9.275
3.911
-0.761
-4.764
-8.159
-11.012
-13.371
-15.265
-16.727
-17.798
-18.542
-19.025
-19.308
-19.466
-19.564
-19.678
-19.914
-20.348
-21.021
-21.96
-23.148
-24.561
-26.174
-27.947
-29.825
-31.762
-33.709
-35.618
-37.456
-39.179
-40.739
-42.083
-43.145
-43.875
-44.239
-44.21
-43.776
-42.93
-41.669
-39.997
-37.935
-35.499
-32.704
-29.563
-26.085
-22.283
-18.179
-13.794
-9.154
-4.283
0.795
6.054
11.468
17.011
22.655
28.377
34.154
39.959
45.764
51.541
57.26
62.889
68.402
73.769
78.959
83.945
88.701
93.202
97.426
101.351
104.957
108.225
111.138
113.682
115.842
117.606
118.964
119.907
120.426
120.517
120.176
119.401
118.191
116.548
114.475
111.978
109.063
105.741
102.021
97.916
93.441
88.613
83.451
77.974
72.205
66.167
59.886
53.388
46.699
39.848
32.863
25.771
18.604
11.388
4.155
-3.067
-10.249
-17.362
-24.377
-31.267
-38.003
-44.56
-50.911
-57.034
-62.903
-68.497
-73.796
-78.782
-83.436
-87.745
-91.694
-95.275
-98.478
-101.298
-103.731
-105.777
-107.439
-108.72
-109.627
-110.169
-110.358
-110.206
-109.729
-108.942
-107.863
-106.512
-104.909
-103.075
-101.033
-98.804
-96.413
-93.883
-91.237
-88.501
-85.698
-82.851
-79.984
-77.119
-74.279
-71.485
-68.757
-66.115
-63.576
-61.156
-58.871
-56.732
-54.751
-52.937
-51.295
-49.832
-48.549
-47.449
-46.529
-45.788
-45.222
-44.826
-44.593
-44.516
-44.586
-44.795
-45.133
-45.589
-46.152
-46.812
-47.558
-48.379
-49.263
-50.201
-51.181
-52.193
-53.228
-54.276
-55.328
-56.376
-57.414
-58.433
-59.429
-60.398
-61.336
-62.241
-63.112
-63.951
-64.758
-65.537
-66.29
-67.023
-67.74
-68.447
-69.151
-69.857
-70.572
-71.303
-72.055
-72.836
-73.65
-74.504
-75.401
-76.345
-77.34
-78.388
-79.49
-80.647
-81.858
-83.123
-84.44
-85.806
-87.218
-88.671
-90.159
-91.676
-93.215
-94.767
-96.322
-97.872
-99.403
-100.905
-102.366
-103.772
-105.111
-106.368
-107.532
-108.589
-109.526
-110.33
-110.99
-111.496
-111.835
-112.001
-111.985
-111.78
-111.38
-110.784
-109.987
-108.988
-107.789
-106.39
-104.794
-103.006
-101.032
-98.877
-96.55
-94.061
-91.418
-88.635
-85.723
-82.696
-79.568
-76.354
-73.07
-69.733
-66.359
-62.966
-59.571
-56.191
-52.844
-49.546
-46.313
-43.162
-40.107
-37.163
-34.343
-31.659
-29.121
-26.739
-24.521
-22.474
-20.602
-18.91
-17.4
-16.073
-14.93
-13.969
-13.188
-12.583
-12.151
-11.885
-11.779
-11.826
-12.017
-12.344
-12.796
-13.363
-14.033
-14.794
-15.636
-16.545
-17.51
-18.518
-19.559
-20.619
-21.689
-22.756
-23.812
-24.846
-25.851
-26.819
-27.744
-28.622
-29.448
-30.22
-30.937
-31.598
-32.205
-32.759
-33.264
-33.723
-34.141
-34.524
-34.88
-35.217
-35.545
-35.873
-36.215
-36.585
-37.001
-37.478
-38.033
-38.687
-39.457
-40.362
-41.42
-42.646
-44.053
-45.658
-47.473
-49.514
-51.796
-54.333
-57.137
-60.216
-63.579
-67.232
-71.176
-75.408
-79.919
-84.704
-89.763
-95.106
-100.742
-106.67
-112.888
-119.382
-126.132
-133.109
-140.276
-147.568
-154.923
-162.276
-169.568
-176.756
-183.796
-190.631
-197.191
-203.386
-209.129
-214.354
-219.008
-223.056
-226.506
-229.389
-231.781
-233.807
-235.58
-237.227
-238.893
-240.703
-242.797
-245.32
-248.396
-252.235
-257.143
-263.297
-270.685
-279.093
-288.04
-297.056
-305.734
-313.446
-319.384
-323.004
-324.24
-323.67
-322.391
-321.483
-321.89
-324.544
-330.395
-338.974
-347.804
-353.699
-354.101
-349.794
-343.8
-336.512
-322.438
-289.274
-224.719
-124.43
5.03
146.904
284.055
405.771
507.698
590.781
655.22
698.533
717.23
708.26
671.309
607.667
520.085
413.041
291.013
158.98
22.692
-113.346
-245.104
-367.953
-478.359
-573.724
-651.752
-711.702
-754.307
-780.185
-790.461
-787.107
-771.891
-747.086
-715.575
-679.628
-640.823
-600.759
-560.926
-522.882
-488.262
-457.724
-431.045
-407.833
-387.725
-370.364
-355.119
-340.681
-325.677
-309.532
-292.302
-274.431
-256.47
-238.761
-221.784
-206.464
-193.621
-183.598
-176.375
-171.559
-168.611
-167.127
-166.664
-166.634
-166.532
-165.962
-164.627
-162.401
-159.253
-155.153
-150.125
-144.246
-137.574
-130.211
-122.293
-113.917
-105.195
-96.295
-87.349
-78.473
-69.815
-61.476
-53.536
-46.164
-39.499
-33.439
-27.844
-22.823
-18.359
-14.397
-11.245
-7.862
-3.237
1.332
5.485
6.781
2.301
-4.601
-11.666
-15.558
-11.736
-4.127
3.945
10.207
10.875
8.69
6.42
4.676
5.144
6.853
8.555
10.498
12.524
14.716
17.327
20.185
23.15
26.258
29.509
32.877
36.353
39.934
43.613
47.401
51.314
55.322
59.394
63.516
67.663
71.817
75.957
80.057
84.091
88.038
91.879
95.594
99.162
102.563
105.778
108.787
111.572
114.118
116.407
118.424
120.157
121.593
122.721
123.534
124.023
124.186
124.018
123.52
122.692
121.538
120.064
118.275
116.181
113.793
111.122
108.184
104.993
101.567
97.923
94.081
90.063
85.889
81.581
77.163
72.657
68.089
63.484
58.866
54.262
49.698
45.2
40.793
36.504
32.358
28.379
24.59
21.014
17.67
14.58
11.761
9.229
6.998
5.083
3.493
2.238
1.325
0.758
0.542
0.676
1.161
1.993
3.168
4.681
6.522
8.684
11.154
13.921
16.97
20.286
23.852
27.65
31.66
35.863
40.236
44.759
49.409
54.163
58.999
63.895
68.827
73.774
78.714
83.625
88.488
93.283
97.99
102.593
107.074
111.419
115.614
119.645
123.501
127.172
130.649
133.924
136.989
139.84
142.473
144.884
147.072
149.036
150.778
152.298
153.601
154.691
155.572
156.25
156.733
157.028
157.142
157.085
156.864
156.491
155.973
155.322
154.547
153.658
152.665
151.577
150.405
149.156
147.839
146.464
145.036
143.564
142.054
140.514
138.948
137.362
135.762
134.15
132.532
130.909
129.285
127.66
126.036
124.413
122.791
121.17
119.547
117.922
116.293
114.656
113.01
111.351
109.675
107.978
106.257
104.507
102.725
100.905
99.045
97.141
95.189
93.186
91.129
89.016
86.846
84.615
82.324
79.97
77.555
75.078
72.54
69.944
67.291
64.584
61.827
59.025
56.182
53.303
50.394
47.462
44.514
41.556
38.598
35.647
32.712
29.802
26.928
24.098
21.323
18.613
15.977
13.426
10.969
8.616
6.375
4.256
2.267
0.417
-1.289
-2.841
-4.235
-5.463
-6.52
-7.403
-8.107
-8.63
-8.968
-9.121
-9.087
-8.865
-8.457
-7.862
-7.083
-6.12
-4.976
-3.655
-2.16
-0.495
1.335
3.326
5.471
7.764
10.199
12.771
15.472
18.296
21.236
24.286
27.438
30.687
34.026
37.448
40.945
44.511
48.139
51.821
55.551
59.322
63.127
66.958
70.809
74.672
78.54
82.404
86.257
90.089
93.891
97.654
101.368
105.023
108.608
112.112
115.525
118.836
122.031
125.099
128.027
130.801
133.408
135.83
138.052
140.055
141.823
143.337
144.581
145.537
146.19
146.524
146.529
146.194
145.509
144.465
143.051
141.256
139.073
136.499
133.529
130.164
126.405
122.258
117.738
112.863
107.647
102.101
96.227
90.028
83.519
76.721
69.658
62.37
54.897
47.292
39.635
32.001
24.467
17.104
9.964
3.097
-3.43
-9.542
-15.146
-20.148
-24.485
-28.106
-30.972
-33.081
-34.453
-35.15
-35.293
-34.991
-34.362
-33.535
-32.623
-31.768
-31.112
-30.776
-30.951
-31.895
-33.741
-36.515
-40.017
-43.75
-47.285
-50.242
-52.041
-52.051
-49.771
-44.893
-37.939
-30.158
-22.431
-15.456
-10.031
-6.564
-5.422
-6.918
-8.442
-6.206
1.403
17.173
41.044
71.906
115.567
175.9
255.81
357.816
474.225
596.582
717.766
828.827
926.025
1005.665
1062.577
1093.898
1096.094
1068.211
1012.792
931.087
825.573
698.568
550.389
389.016
227.335
77.75
-44.804
-135.815
-201.626
-247.78
-282.842
-310.75
-327.341
-331.609
-323.841
-305.451
-281.788
-256.534
-230.462
-203.969
-177.118
-150.05
-123.977
-100.219
-78.879
-59.8
-43.391
-29.904
-19.41
-11.699
-5.582
0.226
6.113
12.163
18.469
24.918
31.475
37.885
43.257
46.852
48.489
48.25
46.492
43.704
40.218
36.472
33.162
30.821
29.773
30.193
32.022
35.161
39.575
45.18
51.838
59.416
67.75
76.686
86.11
95.876
105.825
115.795
125.585
135.036
144.038
152.512
160.418
167.737
174.447
180.543
186.045
190.975
195.369
199.26
202.672
205.64
208.211
210.439
212.393
214.124
215.669
217.054
218.3
219.42
220.431
221.344
222.156
222.87
223.493
224.033
224.506
224.922
225.286
225.603
225.874
226.104
226.299
226.466
226.607
226.729
226.835
226.931
227.025
227.121
227.222
227.327
227.436
227.547
227.659
227.769
227.873
227.966
228.044
228.104
228.14
228.149
228.126
228.064
227.953
227.789
227.563
227.269
226.903
226.454
225.907
225.269
224.543
223.729
222.834
221.842
220.727
219.504
218.189
216.734
215.099
213.256
211.156
208.836
206.366
203.697
200.759
197.729
194.799
191.894
189.059
186.296
183.193
180.742
179.933
179.288
178.224
174.414
164.932
152.983
141.126
131.517
127.542
126.784
126.393
126.823
127.582
127.77
127.716
124.474
114.813
102.115
88.827
77.712
72.779
71.153
70.085
68.756
65.212
60.573
56.234
51.928
47.847
43.919
39.882
35.952
32.31
28.904
25.72
22.785
20.098
17.653
15.447
13.452
11.632
10.001
8.57
7.33
6.277
5.404
4.703
4.169
3.797
3.575
3.493
3.538
3.7
3.965
4.322
4.758
5.258
5.81
6.399
7.013
7.636
8.258
8.865
9.445
9.988
10.484
10.922
11.297
11.599
11.823
11.964
12.018
11.981
11.852
11.629
11.313
10.903
10.401
9.811
9.135
8.377
7.541
6.634
5.661
4.627
3.541
2.409
1.238
0.035
-1.19
-2.431
-3.68
-4.929
-6.172
-7.403
-8.614
-9.8
-10.958
-12.083
-13.171
-14.221
-15.231
-16.199
-17.127
-18.014
-18.862
-19.673
-20.451
-21.199
-21.922
-22.625
-23.313
-23.992
-24.67
-25.351
-26.045
-26.757
-27.496
-28.268
-29.081
-29.943
-30.862
-31.843
-32.896
-34.025
-35.238
-36.541
-37.938
-39.435
-41.036
-42.745
-44.565
-46.498
-48.548
-50.714
-53
-55.404
-57.927
-60.568
-63.325
-66.197
-69.18
-72.272
-75.468
-78.764
-82.156
-85.639
-89.207
-92.854
-96.575
-100.364
-104.214
-108.118
-112.07
-116.063
-120.089
-124.142
-128.214
-132.299
-136.388
-140.474
-144.551
-148.611
-152.646
-156.649
-160.611
-164.524
-168.38
-172.17
-175.887
-179.521
-183.066
-186.512
-189.852
-193.079
-196.186
-199.165
-202.009
-204.712
-207.267
-209.667
-211.908
-213.982
-215.886
-217.613
-219.161
-220.526
-221.704
-222.692
-223.489
-224.092
-224.499
-224.711
-224.727
-224.548
-224.175
-223.612
-222.862
-221.93
-220.822
-219.545
-218.106
-216.513
-214.774
-212.899
-210.898
-208.779
-206.554
-204.233
-201.828
-199.352
-196.815
-194.231
-191.612
-188.971
-186.32
-183.671
-181.036
-178.428
-175.857
-173.337
-170.878
-168.492
-166.19
-163.985
-161.887
-159.905
-158.05
-156.329
-154.751
-153.323
-152.05
-150.94
-149.997
-149.226
-148.632
-148.22
-147.996
-147.967
-148.14
-148.52
-149.112
-149.922
-150.954
-152.215
-153.708
-155.434
-157.394
-159.59
-162.02
-164.691
-167.603
-170.754
-174.143
-177.764
-181.61
-185.678
-189.959
-194.44
-199.108
-203.948
-208.95
-214.12
-219.458
-224.959
-230.614
-236.407
-242.316
-248.323
-254.396
-260.487
-266.552
-272.534
-278.387
-284.072
-289.544
-294.767
-299.689
-304.239
-308.361
-311.982
-315.041
-317.523
-319.422
-320.759
-321.615
-322.018
-322.001
-321.791
-321.58
-321.569
-322.017
-322.886
-324.153
-326.162
-329.165
-333.035
-337.55
-342.07
-345.874
-349.056
-351.609
-352.937
-352.663
-350.767
-347.735
-345.093
-344.203
-345.395
-349.141
-356.057
-366.512
-379.44
-391.458
-398.667
-398.596
-392.831
-385.165
-375.466
-358.037
-321.338
-253.985
-153.883
-28.738
105.812
233.673
345.766
438.825
513.504
570.228
606.43
619.252
607.72
572.312
513.696
431.122
322.816
189.987
40.938
-108.84
-243.313
-352.107
-434.527
-499.794
-557.415
-611.703
-661.668
-701.462
-727.065
-738.743
-739.126
-731.996
-719.731
-703.505
-683.754
-660.311
-633.606
-604.308
-573.221
-541.976
-512.167
-484.528
-459.926
-439.235
-422.682
-410.308
-401.549
-394.818
-388.767
-382.844
-376.575
-369.709
-362.318
-354.416
-346.486
-339.655
-334.732
-332.02
-331.552
-333.001
-335.988
-340.271
-345.392
-350.657
-355.461
-359.338
-362.038
-363.56
-363.931
-363.148
-361.242
-358.275
-354.345
-349.577
-344.092
-337.986
-331.332
-324.205
-316.714
-309
-301.231
-293.585
-286.176
-279.065
-272.304
-265.921
-259.944
-254.392
-249.24
-244.441
-239.956
-235.745
-231.786
-228.061
-224.531
-221.145
-217.844
-214.565
-211.266
-207.925
-204.519
-201.032
-197.454
-193.78
-190.017
-186.186
-182.299
-178.361
-174.376
-170.345
-166.274
-162.175
-158.055
-153.923
-149.787
-145.652
-141.523
-137.406
-133.304
-129.218
-125.147
-121.087
-117.037
-112.997
-108.967
-104.946
-100.934
-96.929
-92.931
-88.937
-84.946
-80.953
-76.955
-72.944
-68.916
-64.864
-60.782
-56.663
-52.5
-48.287
-44.016
-39.682
-35.279
-30.799
-26.238
-21.592
-16.856
-12.028
-7.104
-2.083
3.036
8.251
13.562
18.966
24.458
30.035
35.69
41.418
47.209
53.057
58.951
64.883
70.842
76.818
82.8
88.774
94.726
100.645
106.524
112.354
118.125
123.827
129.444
134.968
140.405
145.74
150.944
155.994
160.864
165.552
170.089
174.479
178.686
182.738
186.716
190.686
194.721
198.836
202.933
206.992
211.129
215.241
218.941
222.159
225.019
227.482
229.983
231.738
230.304
226.237
221.791
220.702
229.965
249.113
271.156
289.105
293.041
282.402
266.563
252.768
248.857
256.148
267.627
279.006
287.332
291.732
295.061
298.598
302.242
306.08
309.672
312.901
316.143
319.5
322.895
326.325
329.796
333.279
336.745
340.144
343.397
346.471
349.385
352.135
354.705
357.087
359.267
361.237
362.997
364.543
365.863
366.951
367.801
368.409
368.775
368.898
368.778
368.416
367.815
366.98
365.915
364.628
363.125
361.414
359.505
357.408
355.132
352.689
350.09
347.348
344.474
341.482
338.384
335.192
331.921
328.582
325.187
321.749
318.28
314.79
311.29
307.791
304.302
300.833
297.39
293.982
290.615
287.295
284.025
280.809
277.648
274.546
271.5
268.512
265.578
262.697
259.866
257.08
254.334
251.624
248.944
246.286
243.646
241.015
238.387
235.755
233.111
230.447
227.758
225.037
222.277
219.471
216.615
213.704
210.732
207.697
204.596
201.425
198.184
194.873
191.492
188.043
184.529
180.953
177.321
173.639
169.913
166.152
162.364
158.558
154.746
150.938
147.146
143.382
139.659
135.989
132.386
128.863
125.434
122.111
118.909
115.839
112.914
110.146
107.546
105.125
102.893
100.858
99.028
97.41
96.011
94.835
93.885
93.164
92.672
92.409
92.373
92.561
92.968
93.588
94.414
95.438
96.65
98.04
99.597
101.308
103.16
105.139
107.229
109.416
111.682
114.012
116.39
118.797
121.218
123.635
126.033
128.396
130.708
132.955
135.122
137.194
139.16
141.006
142.72
144.294
145.716
146.979
148.075
148.998
149.744
150.308
150.686
150.876
150.876
150.686
150.305
149.733
148.973
148.025
146.893
145.58
144.09
142.426
140.592
138.591
136.429
134.108
131.629
128.994
126.201
123.251
120.142
116.871
113.437
109.835
106.064
102.123
98.011
93.729
89.273
84.64
79.826
74.827
69.639
64.259
58.686
52.918
46.957
40.813
34.493
28.006
21.356
14.534
7.532
0.35
-7.013
-14.55
-22.245
-30.077
-38.012
-45.994
-53.969
-61.878
-69.668
-77.304
-84.743
-91.938
-98.832
-105.344
-111.397
-116.928
-121.875
-126.195
-129.88
-132.939
-135.432
-137.472
-139.152
-140.583
-141.89
-143.174
-144.58
-146.271
-148.382
-151.118
-154.74
-159.425
-165.261
-172.119
-179.552
-187.017
-193.963
-199.709
-203.563
-204.996
-203.778
-200.414
-196.145
-192.448
-190.735
-192.106
-197.348
-206.813
-219.995
-234.908
-248.16
-255.489
-252.48
-235.486
-201.381
-147.658
-73.316
20.583
130.802
251.931
377.469
501.156
616.333
716.189
795.088
848.511
873.507
869.965
838.95
782.649
706.233
613.932
508.693
393.08
265.66
129.426
-5.416
-129.348
-229.157
-299.474
-350.26
-389.299
-426.947
-469.78
-508.288
-536.558
-550.961
-547.499
-532.95
-513.046
-489.466
-465.259
-440.413
-414.697
-389.9
-367.253
-347.339
-330.335
-316.074
-304.303
-294.479
-285.71
-277.041
-267.503
-256.729
-245.007
-232.668
-220.14
-208.104
-197.386
-188.702
-182.661
-179.526
-179.129
-181.193
-185.348
-191.078
-197.875
-205.349
-213.184
-221.138
-229.062
-236.817
-244.289
-251.413
-258.114
-264.268
-269.769
-274.546
-278.575
-281.891
-284.553
-286.609
-288.097
-289.051
-289.508
-289.523
-289.156
-288.449
-287.444
-286.191
-284.762
-283.257
-281.745
-280.255
-278.785
-277.305
-275.784
-274.192
-272.49
-270.63
-268.573
-266.268
-263.674
-260.767
-257.508
-253.872
-249.836
-245.334
-240.315
-234.801
-228.814
-222.38
-215.542
-208.287
-200.585
-192.504
-184.135
-175.364
-166.051
-156.323
-146.203
-135.696
-125.209
-113.796
-100.536
-86.843
-73.174
-62.093
-56.659
-53.569
-50.633
-44.571
-30.863
-13.575
3.845
19.021
28.057
33.687
38.679
43.626
50.211
57.419
63.963
70.066
75.543
80.474
85.127
89.343
93.001
96.145
98.756
100.82
102.379
103.426
103.912
103.825
103.15
101.894
100.156
97.982
95.303
92.257
89.212
86.242
83.284
80.418
77.284
74.695
74.762
76.871
79.225
78.531
68.858
51.136
31.24
15.208
11.58
20.187
33.152
44.441
47.307
41.172
31.995
23.257
17.551
15.411
14.398
13.544
12.899
12.401
12.427
13.029
13.877
14.879
16.077
17.45
18.97
20.634
22.441
24.406
26.566
28.918
31.416
34.034
36.758
39.566
42.443
45.369
48.317
51.27
54.213
57.133
60.014
62.843
65.606
68.291
70.886
73.383
75.771
78.043
80.192
82.213
84.102
85.855
87.472
88.951
90.295
91.505
92.584
93.537
94.368
95.083
95.686
96.183
96.581
96.885
97.102
97.237
97.296
97.285
97.208
97.073
96.885
96.64
96.341
95.987
95.577
95.119
94.616
94.059
93.456
92.829
92.191
91.562
90.952
90.321
89.645
88.945
88.173
87.252
86.151
84.802
83.169
81.374
79.506
77.507
75.549
74.018
72.897
72.059
71.646
71.133
71.02
73.612
78.388
83.186
84.705
75.508
54.306
28.329
6.141
0.457
17.195
46.737
76.514
93.204
87.681
66.56
41.481
21.17
12.791
14.404
19.132
23.649
25.434
24.306
22.683
21.184
19.643
18.188
16.451
14.34
12.182
10.072
7.992
6.008
4.149
2.365
0.629
-1.091
-2.857
-4.685
-6.56
-8.489
-10.481
-12.537
-14.661
-16.856
-19.117
-21.447
-23.85
-26.329
-28.887
-31.522
-34.233
-37.02
-39.879
-42.808
-45.802
-48.856
-51.964
-55.121
-58.318
-61.547
-64.8
-68.067
-71.338
-74.602
-77.848
-81.063
-84.234
-87.348
-90.392
-93.352
-96.215
-98.966
-101.594
-104.083
-106.423
-108.6
-110.602
-112.417
-114.035
-115.444
-116.634
-117.597
-118.323
-118.805
-119.036
-119.012
-118.727
-118.178
-117.36
-116.273
-114.916
-113.287
-111.389
-109.224
-106.794
-104.105
-101.161
-97.971
-94.542
-90.882
-87.002
-82.913
-78.626
-74.155
-69.511
-64.712
-59.775
-54.716
-49.554
-44.307
-38.99
-33.624
-28.235
-22.831
-17.427
-12.043
-6.686
-1.383
3.816
8.891
13.828
18.556
23.033
27.229
31.069
34.54
37.705
40.544
43.005
45.239
47.365
49.215
50.818
52.249
53.005
53.837
55.75
57.426
58.443
56.795
48.634
36.173
22.923
12.451
11.641
19.733
30.116
38.324
37.344
25.217
8.723
-8.015
-20.92
-26.953
-30.071
-32.869
-36.118
-41.417
-47.419
-52.866
-58.028
-62.63
-66.728
-70.542
-73.784
-76.287
-78.242
-79.977
-81.845
-84.079
-86.599
-89.228
-92.029
-95.015
-98.049
-100.781
-102.603
-103.229
-102.975
-102.324
-101.504
-100.672
-99.837
-99.115
-99.143
-100.285
-102.38
-105.19
-108.628
-112.897
-118.502
-125.79
-133.444
-138.918
-140.303
-136.623
-130.037
-124.373
-119.274
-108.955
-81.943
-25.701
64.548
183.293
317.193
451.703
577.254
690.714
792.689
882.188
955.462
1007.036
1031.247
1025.396
990.249
929.003
844.807
740.337
617.559
477.024
325.241
173.677
33.504
-82.204
-169.002
-232.459
-277.374
-310.766
-336.214
-350.328
-352.484
-343.466
-324.531
-299.638
-271.434
-240.465
-206.931
-170.49
-130.808
-88.315
-44.154
-0.048
42.247
81.151
115.317
143.72
165.676
181.102
190.771
196.42
199.996
202.891
206.028
210.146
215.727
222.706
230.702
238.763
245.388
250.9
256.053
259.637
261.551
259.707
251.625
241.155
231.172
225.293
228.041
235.544
244.375
252.186
255.202
255.927
256.863
258.446
262.178
267.026
271.729
276.423
280.812
284.822
288.533
291.679
294.085
295.762
296.708
296.912
296.391
295.193
293.382
291.031
288.212
284.949
281.26
277.196
272.815
268.187
263.39
258.479
253.49
248.46
243.42
238.392
233.395
228.435
223.509
218.621
213.781
208.999
204.289
199.66
195.117
190.664
186.302
182.033
177.858
173.779
169.798
165.916
162.137
158.462
154.896
151.435
148.082
144.84
141.695
138.635
135.649
132.721
129.854
127.06
124.318
121.609
118.963
116.4
113.937
111.6
109.36
107.16
105.028
103.012
100.972
98.745
96.426
94.004
91.449
89.109
86.043
81.332
76.29
71.315
68.819
71.688
76.732
81.826
83.806
78.323
69.231
59.794
52.252
50.304
51.312
52.602
53.583
52.626
50.681
48.969
47.262
45.717
44.255
42.631
41.009
39.519
38.12
36.803
35.586
34.464
33.428
32.475
31.58
30.715
29.891
29.12
28.395
27.717
27.085
26.496
25.952
25.456
25.005
24.596
24.229
23.902
23.614
23.366
23.157
22.985
22.851
22.755
22.696
22.674
22.689
22.743
22.834
22.965
23.135
23.345
23.596
23.89
24.226
24.606
25.028
25.495
26.004
26.556
27.15
27.785
28.459
29.17
29.918
30.7
31.513
32.356
33.226
34.119
35.033
35.964
36.909
37.865
38.826
39.79
40.754
41.712
42.66
43.596
44.513
45.41
46.28
47.12
47.927
48.695
49.422
50.105
50.741
51.327
51.861
52.342
52.768
53.139
53.454
53.714
53.917
54.065
54.157
54.196
54.182
54.116
54
53.836
53.625
53.369
53.07
52.729
52.349
51.929
51.473
50.981
50.454
49.894
49.302
48.678
48.023
47.337
46.62
45.871
45.089
44.274
43.422
42.532
41.601
40.628
39.607
38.538
37.416
36.238
35.002
33.703
32.339
30.906
29.402
27.823
26.167
24.432
22.615
20.716
18.733
16.665
14.512
12.275
9.953
7.549
5.063
2.497
-0.145
-2.861
-5.647
-8.498
-11.409
-14.373
-17.386
-20.439
-23.526
-26.638
-29.769
-32.91
-36.053
-39.19
-42.314
-45.414
-48.485
-51.518
-54.505
-57.44
-60.315
-63.125
-65.862
-68.523
-71.102
-73.595
-75.998
-78.308
-80.522
-82.637
-84.651
-86.564
-88.375
-90.085
-91.694
-93.205
-94.62
-95.943
-97.179
-98.331
-99.402
-100.395
-101.316
-102.17
-102.966
-103.706
-104.388
-105.03
-105.643
-106.239
-106.834
-107.42
-107.982
-108.537
-109.104
-109.647
-110.138
-110.556
-110.867
-111.1
-111.31
-111.467
-111.509
-111.587
-111.874
-112.26
-112.752
-113.379
-113.751
-114.896
-117.808
-121.051
-124.182
-124.564
-119.042
-111.093
-103.036
-98.325
-101.706
-108.971
-116.55
-121.997
-121.277
-117.271
-112.904
-108.826
-106.822
-105.859
-104.61
-103.333
-101.863
-100.295
-98.906
-97.526
-96.023
-94.454
-92.842
-91.184
-89.501
-87.82
-86.167
-84.585
-83.127
-81.799
-80.611
-79.584
-78.735
-78.078
-77.633
-77.414
-77.434
-77.71
-78.256
-79.082
-80.199
-81.611
-83.323
-85.332
-87.628
-90.204
-93.055
-96.183
-99.6
-103.313
-107.314
-111.595
-116.141
-120.93
-125.937
-131.117
-136.403
-141.729
-147.029
-152.247
-157.341
-162.258
-166.925
-171.257
-175.155
-178.528
-181.327
-183.516
-185.065
-185.969
-186.242
-185.924
-185.142
-184.047
-182.771
-181.449
-180.194
-179.112
-178.412
-178.401
-179.291
-181.176
-183.987
-187.443
-191.291
-195.296
-198.99
-201.72
-202.969
-202.493
-200.511
-197.752
-195.01
-193.153
-193.242
-196.298
-201.951
-208.46
-213.971
-216.688
-217.734
-219.548
-220.902
-217.208
-198.946
-155.234
-81.036
23.193
150.654
289.935
428.75
553.747
654.303
724.5
764.604
781.374
780.631
765.17
733.592
680.05
602.121
501.939
384.131
256.383
125.597
-3.588
-126.453
-238.586
-336.684
-418.042
-481.173
-526.675
-556.108
-571.364
-575.283
-570.785
-560.253
-545.8
-528.675
-509.1
-487.045
-462.244
-434.072
-402.412
-367.633
-330.699
-293.59
-258.293
-226.36
-199.284
-178.201
-163.483
-155.045
-151.835
-151.722
-153.039
-154.665
-155.6
-155.328
-153.677
-150.618
-146.815
-143.559
-141.631
-141.342
-142.812
-145.783
-149.974
-155.131
-160.707
-165.941
-170.313
-173.561
-175.605
-176.575
-176.582
-175.678
-173.988
-171.676
-168.892
-165.762
-162.369
-158.739
-154.921
-151.018
-147.143
-143.425
-139.996
-136.926
-134.254
-132.007
-130.184
-128.768
-127.738
-127.055
-126.665
-126.524
-126.595
-126.845
-127.249
-127.765
-128.341
-128.92
-129.434
-129.837
-130.095
-130.178
-130.068
-129.753
-129.221
-128.475
-127.526
-126.377
-125.032
-123.492
-121.755
-119.824
-117.708
-115.416
-112.961
-110.356
-107.612
-104.742
-101.759
-98.678
-95.511
-92.272
-88.97
-85.619
-82.236
-78.836
-75.438
-72.061
-68.723
-65.444
-62.242
-59.137
-56.148
-53.292
-50.585
-48.044
-45.683
-43.517
-41.56
-39.823
-38.318
-37.053
-36.039
-35.282
-34.788
-34.562
-34.608
-34.926
-35.519
-36.386
-37.525
-38.933
-40.607
-42.541
-44.73
-47.165
-49.839
-52.743
-55.866
-59.196
-62.722
-66.43
-70.306
-74.336
-78.504
-82.796
-87.196
-91.689
-96.257
-100.886
-105.559
-110.262
-114.977
-119.69
-124.386
-129.051
-133.669
-138.228
-142.715
-147.117
-151.423
-155.62
-159.699
-163.65
-167.463
-171.129
-174.642
-177.993
-181.178
-184.191
-187.028
-189.685
-192.16
-194.451
-196.557
-198.478
-200.215
-201.768
-203.139
-204.329
-205.341
-206.178
-206.843
-207.34
-207.671
-207.84
-207.852
-207.71
-207.419
-206.982
-206.403
-205.687
-204.838
-203.86
-202.756
-201.532
-200.192
-198.739
-197.178
-195.513
-193.747
-191.885
-189.93
-187.885
-185.754
-183.54
-181.246
-178.876
-176.432
-173.918
-171.338
-168.694
-165.991
-163.232
-160.42
-157.56
-154.657
-151.713
-148.733
-145.723
-142.685
-139.626
-136.55
-133.461
-130.364
-127.263
-124.163
-121.068
-117.982
-114.908
-111.851
-108.813
-105.798
-102.808
-99.845
-96.913
-94.012
-91.143
-88.309
-85.509
-82.743
-80.012
-77.314
-74.648
-72.013
-69.405
-66.823
-64.263
-61.722
-59.196
-56.682
-54.173
-51.668
-49.159
-46.644
-44.117
-41.575
-39.011
-36.423
-33.806
-31.157
-28.472
-25.75
-22.987
-20.182
-17.334
-14.443
-11.508
-8.53
-5.51
-2.45
0.648
3.781
6.946
10.139
13.354
16.587
19.833
23.084
26.336
29.58
32.811
36.02
39.202
42.348
45.451
48.505
51.501
54.434
57.297
60.083
62.787
65.403
67.927
70.355
72.683
74.909
77.03
79.044
80.952
82.752
84.444
86.028
87.507
88.882
90.154
91.325
92.4
93.381
94.27
95.073
95.792
96.431
96.994
97.484
97.905
98.26
98.553
98.787
98.965
99.089
99.162
99.186
99.164
99.096
98.984
98.829
98.63
98.388
98.103
97.775
97.403
96.987
96.527
96.022
95.472
94.877
94.238
93.554
92.827
92.058
91.248
90.399
89.516
88.6
87.657
86.693
85.712
84.722
83.729
82.739
81.762
80.804
79.875
78.983
78.137
77.348
76.625
75.977
75.416
74.951
74.592
74.346
74.225
74.234
74.381
74.674
75.116
75.712
76.466
77.381
78.456
79.691
81.084
82.63
84.323
86.154
88.112
90.18
92.344
94.587
96.889
99.23
101.589
103.945
106.28
108.573
110.804
112.951
114.989
116.893
118.64
120.207
121.571
122.713
123.613
124.255
124.631
124.737
124.563
124.097
123.316
122.199
120.735
118.918
116.751
114.244
111.414
108.291
104.929
101.384
97.709
93.959
90.165
86.366
82.619
78.986
75.557
72.42
69.634
67.257
65.332
63.862
62.837
62.203
61.85
61.688
61.623
61.531
61.306
60.817
59.918
58.498
56.36
53.225
48.933
43.463
37.052
30.201
23.342
16.841
11.25
7.224
5.288
5.657
7.61
9.87
11.612
12.02
10.357
6.325
-0.656
-9.645
-16.587
-18.481
-13.727
-1.828
14.022
35.851
71.826
129.059
214.76
326.987
453.632
583.126
704.313
811.022
902.476
976.181
1029.759
1060.307
1064.323
1041.378
991.821
916.952
821.018
708.617
584.694
455.167
324.466
196.267
75.189
-34.802
-130.941
-210.83
-273.48
-319.242
-348.065
-360.368
-357.839
-342.551
-317.005
-284.574
-248.355
-210.703
-174.556
-141.542
-111.106
-84.415
-63.07
-48.552
-45.925
-54.376
-65.485
-72.053
-62.735
-33.508
4.786
43.457
71.957
83.594
86.689
87.214
89.264
96.94
105.268
110.74
113.254
111.705
108.098
104.175
99.636
94.726
89.482
83.791
77.962
72.177
66.4
60.687
55.176
50.01
45.324
41.159
37.48
34.218
31.32
28.785
26.62
24.808
23.322
22.114
21.138
20.384
19.858
19.533
19.366
19.29
19.218
19.123
19.011
18.897
18.811
18.771
18.791
18.903
19.156
19.586
20.229
21.105
22.219
23.597
25.273
27.286
29.683
32.488
35.711
39.354
43.414
47.88
52.737
57.959
63.506
69.348
75.453
81.794
88.344
95.073
101.943
108.917
115.957
123.023
130.081
137.093
144.024
150.84
157.509
164.004
170.299
176.367
182.184
187.724
192.962
197.877
202.446
206.652
210.475
213.902
216.921
219.52
221.694
223.439
224.75
225.628
226.074
226.091
225.683
224.856
223.618
221.98
219.951
217.543
214.769
211.644
208.183
204.401
200.314
195.936
191.285
186.382
181.246
175.898
170.355
164.633
158.75
152.736
146.606
140.359
134.001
127.534
120.975
114.369
107.737
101.066
94.392
87.795
81.337
75.088
69.066
63.203
57.492
52.03
46.739
41.32
35.721
30.044
24.258
18.71
12.773
4.524
-5.578
-15.769
-23.093
-22.044
-13.048
-1.598
6.8
4.328
-9.382
-26.962
-42.726
-50.495
-49.293
-44.639
-39.891
-37.38
-37.77
-38.811
-39.512
-39.953
-40.069
-40.211
-40.467
-40.542
-40.355
-39.977
-39.405
-38.619
-37.63
-36.45
-35.116
-33.715
-32.288
-30.803
-29.293
-27.845
-26.509
-25.336
-24.355
-23.505
-22.738
-22.126
-21.571
-20.743
-19.612
-18.328
-16.829
-15.404
-13.569
-9.572
-3.758
2.111
5.084
0.045
-13.548
-31.141
-45.968
-49.879
-40.076
-21.024
-1.53
10.176
9.957
-1.008
-15.564
-28.173
-35.946
-37.457
-36.313
-35.083
-34.424
-35.605
-37.6
-39.498
-41.608
-43.718
-45.907
-48.426
-51.092
-53.757
-56.426
-59.046
-61.579
-64.042
-66.444
-68.777
-71.057
-73.301
-75.492
-77.618
-79.677
-81.658
-83.555
-85.361
-87.069
-88.67
-90.162
-91.542
-92.805
-93.95
-94.973
-95.872
-96.644
-97.289
-97.807
-98.196
-98.456
-98.59
-98.598
-98.481
-98.244
-97.89
-97.421
-96.844
-96.162
-95.382
-94.508
-93.547
-92.506
-91.392
-90.213
-88.976
-87.69
-86.363
-85.006
-83.626
-82.232
-80.835
-79.441
-78.061
-76.703
-75.375
-74.084
-72.839
-71.647
-70.516
-69.451
-68.46
-67.547
-66.718
-65.978
-65.329
-64.776
-64.319
-63.961
-63.702
-63.543
-63.482
-63.52
-63.653
-63.879
-64.195
-64.597
-65.08
-65.638
-66.265
-66.954
-67.698
-68.489
-69.319
-70.178
-71.058
-71.95
-72.845
-73.733
-74.604
-75.451
-76.262
-77.03
-77.746
-78.401
-78.987
-79.497
-79.923
-80.26
-80.5
-80.64
-80.673
-80.597
-80.408
-80.103
-79.682
-79.143
-78.486
-77.711
-76.821
-75.817
-74.703
-73.484
-72.164
-70.749
-69.248
-67.669
-66.021
-64.314
-62.558
-60.765
-58.947
-57.113
-55.278
-53.455
-51.656
-49.894
-48.185
-46.542
-44.984
-43.527
-42.189
-40.986
-39.934
-39.048
-38.348
-37.85
-37.569
-37.515
-37.698
-38.128
-38.817
-39.777
-41.013
-42.526
-44.314
-46.376
-48.709
-51.315
-54.186
-57.305
-60.65
-64.201
-67.948
-71.89
-76.026
-80.339
-84.808
-89.411
-94.127
-98.938
-103.813
-108.693
-113.517
-118.211
-122.709
-126.968
-130.955
-134.638
-137.975
-140.89
-143.284
-145.077
-146.219
-146.68
-146.477
-145.592
-143.966
-141.683
-138.988
-136.27
-133.958
-132.278
-131.151
-130.521
-130.625
-131.56
-133.131
-134.632
-134.911
-133.295
-129.913
-125.112
-118.854
-111.126
-102.224
-93.359
-86.864
-84.509
-86.857
-93.812
-105.101
-120.291
-138.606
-157.91
-174.191
-183.441
-182.328
-168.124
-138.999
-93.43
-30.087
50.731
146.458
253.55
367.423
482.986
595.897
701.328
793.534
867.483
919.315
946.067
946.671
921.042
868.87
791.169
691.904
577.257
452.374
321.79
187.709
49.192
-87.661
-212.067
-314.908
-385.441
-422.869
-437.324
-436.987
-430.971
-424.431
-414.441
-399.932
-381.184
-358.482
-334.546
-311.026
-288.148
-266.179
-245.136
-225.225
-206.708
-190.106
-175.958
-164.541
-155.802
-149.086
-143.611
-138.737
-134.126
-129.606
-125.072
-120.502
-116.121
-112.567
-110.366
-109.824
-110.988
-113.551
-117.136
-121.401
-125.877
-130.012
-133.393
-135.698
-136.766
-136.636
-135.369
-133.033
-129.752
-125.65
-120.857
-115.524
-109.787
-103.781
-97.673
-91.62
-85.789
-80.322
-75.32
-70.869
-67.022
-63.799
-61.207
-59.234
-57.851
-57.034
-56.751
-56.955
-57.604
-58.641
-59.996
-61.602
-63.378
-65.252
-67.167
-69.073
-70.926
-72.694
-74.346
-75.856
-77.206
-78.374
-79.336
-80.071
-80.555
-80.766
-80.689
-80.314
-79.63
-78.632
-77.314
-75.669
-73.696
-71.394
-68.762
-65.805
-62.524
-58.928
-55.026
-50.835
-46.371
-41.656
-36.71
-31.556
-26.22
-20.73
-15.117
-9.408
-3.635
2.174
7.992
13.781
19.506
25.146
30.677
36.075
41.322
46.379
51.202
55.779
60.1
64.106
67.751
70.996
73.796
76.161
78.129
79.672
80.736
81.466
82.042
82.352
82.394
82.218
81.481
81.143
82.146
83.116
83.623
81.198
72.908
62.068
50.865
42.759
42.472
45.918
49.731
51.637
47.458
40.924
35.776
31.337
28.928
25.155
15.86
4.527
-6.836
-14.929
-15.083
-11.337
-7.102
-4.578
-7.472
-13.124
-18.819
-23.937
-26.821
-28.399
-29.869
-31.007
-31.982
-32.709
-32.943
-32.852
-32.569
-32.063
-31.335
-30.409
-29.289
-27.978
-26.483
-24.792
-22.89
-20.804
-18.557
-16.16
-13.628
-10.973
-8.209
-5.352
-2.42
0.575
3.623
6.709
9.821
12.948
16.077
19.197
22.297
25.367
28.398
31.381
34.308
37.169
39.96
42.672
45.3
47.837
50.28
52.622
54.86
56.991
59.011
60.918
62.709
64.383
65.938
67.374
68.689
69.883
70.953
71.902
72.732
73.443
74.04
74.523
74.888
75.142
75.291
75.326
75.244
75.044
74.714
74.262
73.721
73.088
72.357
71.58
70.78
69.967
69.193
68.451
67.655
66.817
65.976
64.959
63.625
62.138
60.462
58.518
56.827
54.552
50.616
46.438
42.478
40.958
45.935
54.943
64.364
70.403
65.936
52.116
35.714
21.308
16.105
21.753
31.433
41.154
46.872
45.8
41.954
37.834
34.213
32.679
31.989
31.06
30.265
29.394
28.515
27.895
27.358
26.758
26.128
25.45
24.673
23.809
22.877
21.875
20.827
19.758
18.655
17.509
16.33
15.116
13.868
12.59
11.283
9.947
8.59
7.22
5.842
4.467
3.101
1.753
0.433
-0.848
-2.081
-3.256
-4.361
-5.388
-6.326
-7.164
-7.893
-8.504
-8.987
-9.334
-9.537
-9.589
-9.484
-9.216
-8.782
-8.178
-7.401
-6.45
-5.322
-4.019
-2.54
-0.888
0.936
2.928
5.083
7.395
9.856
12.459
15.194
18.051
21.018
24.085
27.238
30.466
33.755
37.093
40.465
43.86
47.265
50.667
54.052
57.408
60.723
63.991
67.205
70.357
73.442
76.445
79.364
82.203
84.953
87.592
90.101
92.462
94.672
96.76
98.73
100.552
102.252
103.899
105.545
107.254
109.035
110.804
112.547
114.359
116.147
117.584
118.614
119.333
119.697
120.075
119.763
116.714
111.448
105.808
102.958
108.737
122.562
138.627
151.066
151.562
139.886
123.831
109.395
103.153
106.007
112.102
117.926
120.992
120.661
119.327
118.016
116.646
115.274
113.526
111.316
108.964
106.566
104.079
101.534
98.988
96.469
94.011
91.625
89.281
86.993
84.827
82.84
81.102
79.687
78.649
78.037
77.888
78.202
78.955
80.086
81.488
83.064
84.701
86.272
87.668
88.729
89.283
89.178
88.172
85.987
82.478
77.589
71.508
64.759
57.884
51.38
45.913
42.113
40.308
40.659
42.616
44.606
45.198
43.364
38.006
29.621
19.259
6.549
-6.55
-18.749
-28.891
-30.001
-16.965
15.797
74.372
155.175
253.377
363.226
475.97
588.653
698.54
800.696
891.064
963.416
1012.222
1034.841
1029.936
998.915
943.849
865.53
767.065
650.289
517.726
378.735
240.612
111.528
0.855
-91.896
-167.567
-226.773
-273.726
-307.446
-326.991
-334.16
-330.075
-317.948
-301.277
-282.217
-262.049
-240.817
-218.439
-195.065
-170.996
-147.164
-124.328
-102.469
-81.904
-63.302
-47.089
-33.632
-22.698
-13.051
-3.603
5.932
15.7
25.774
36.079
46.727
57.488
67.444
75.855
82.473
87.251
90.435
92.368
93.177
93.089
92.582
92.024
91.687
91.816
92.473
93.653
95.396
97.67
100.398
103.54
107.021
110.742
114.634
118.611
122.597
126.562
130.467
134.258
137.869
141.196
144.134
146.63
148.651
150.177
151.21
151.749
151.815
151.462
150.758
149.759
148.516
147.065
145.436
143.677
141.841
139.99
138.19
136.495
134.947
133.587
132.447
131.555
130.93
130.578
130.494
130.678
131.13
131.852
132.845
134.104
135.621
137.383
139.377
141.583
143.986
146.563
149.291
152.145
155.102
158.136
161.224
164.34
167.457
170.544
173.574
176.514
179.338
182.014
184.514
186.809
188.874
190.682
192.211
193.44
194.348
194.918
195.134
194.986
194.463
193.551
192.243
190.534
188.422
185.914
183.011
179.709
176.023
171.983
167.618
162.96
158.029
152.815
147.335
141.645
135.744
129.592
123.164
116.429
109.409
102.22
94.912
87.424
79.882
72.647
65.808
59.298
53.186
47.131
41.857
39.444
39.399
39.882
37.733
27.096
8.541
-12.075
-28.847
-33.406
-25.483
-12.92
-1.764
1.374
-4.452
-13.359
-21.809
-27.308
-29.201
-29.905
-30.473
-30.846
-31.115
-30.926
-30.216
-29.324
-28.358
-27.281
-26.12
-24.906
-23.644
-22.338
-20.975
-19.518
-17.966
-16.362
-14.73
-13.082
-11.435
-9.799
-8.19
-6.627
-5.123
-3.685
-2.321
-1.037
0.158
1.259
2.26
3.157
3.948
4.628
5.196
5.652
5.993
6.221
6.336
6.338
6.23
6.014
5.692
5.267
4.742
4.12
3.405
2.6
1.709
0.736
-0.317
-1.445
-2.645
-3.914
-5.248
-6.646
-8.106
-9.625
-11.203
-12.838
-14.531
-16.28
-18.086
-19.949
-21.868
-23.843
-25.876
-27.964
-30.109
-32.31
-34.567
-36.88
-39.249
-41.674
-44.156
-46.693
-49.285
-51.933
-54.635
-57.391
-60.2
-63.062
-65.975
-68.938
-71.95
-75.008
-78.111
-81.257
-84.441
-87.662
-90.915
-94.196
-97.501
-100.826
-104.166
-107.518
-110.878
-114.241
-117.605
-120.967
-124.324
-127.673
-131.012
-134.339
-137.652
-140.95
-144.232
-147.496
-150.742
-153.97
-157.179
-160.369
-163.541
-166.695
-169.831
-172.951
-176.055
-179.145
-182.224
-185.293
-188.357
-191.417
-194.478
-197.544
-200.62
-203.71
-206.818
-209.95
-213.109
-216.3
-219.526
-222.791
-226.098
-229.449
-232.847
-236.294
-239.791
-243.34
-246.941
-250.595
-254.302
-258.062
-261.874
-265.737
-269.651
-273.614
-277.624
-281.679
-285.777
-289.915
-294.088
-298.293
-302.525
-306.779
-311.048
-315.326
-319.606
-323.88
-328.14
-332.376
-336.582
-340.746
-344.862
-348.918
-352.907
-356.819
-360.646
-364.379
-368.009
-371.528
-374.927
-378.198
-381.334
-384.325
-387.165
-389.845
-392.359
-394.698
-396.857
-398.831
-400.613
-402.2
-403.586
-404.77
-405.749
-406.522
-407.088
-407.447
-407.603
-407.557
-407.314
-406.881
-406.264
-405.471
-404.512
-403.397
-402.136
-400.742
-399.227
-397.604
-395.888
-394.095
-392.242
-390.347
-388.429
-386.51
-384.614
-382.766
-380.989
-379.305
-377.738
-376.314
-375.059
-373.997
-373.149
-372.533
-372.169
-372.076
-372.276
-372.786
-373.617
-374.773
-376.259
-378.079
-380.241
-382.749
-385.591
-388.752
-392.215
-395.964
-400.002
-404.326
-408.917
-413.753
-418.806
-424.042
-429.436
-434.956
-440.541
-446.128
-451.642
-457.004
-462.172
-467.106
-471.773
-476.151
-480.173
-483.751
-486.82
-489.306
-491.162
-492.417
-493.063
-493.052
-492.47
-491.468
-490.358
-489.669
-489.695
-490.444
-491.87
-493.904
-496.491
-499.558
-502.467
-503.891
-502.82
-498.813
-491.919
-482.619
-471.145
-457.627
-443.066
-429.691
-419.816
-415.128
-416.25
-422.594
-433.556
-448.61
-466.325
-483.349
-495.076
-497.081
-485.614
-459.363
-418.828
-362.36
-287.992
-194.319
-78.521
54.393
192.775
324.916
434.419
514.363
570.103
607.002
635.355
656.084
656.256
625.923
555.311
446.349
316.617
179.783
47.554
-75.555
-196.318
-313.426
-419.738
-507.771
-565.691
-592.296
-596.656
-586.029
-569.151
-549.941
-525.647
-496.19
-462.164
-424.385
-385.995
-349.055
-314.694
-284.106
-257.285
-233.631
-212.768
-194.419
-178.358
-164.123
-150.607
-136.646
-121.819
-106.261
-90.424
-74.87
-59.947
-46.141
-34.364
-25.376
-19.496
-16.718
-16.672
-18.869
-22.936
-28.405
-34.657
-41.183
-47.55
-53.427
-58.645
-63.045
-66.493
-68.935
-70.367
-70.806
-70.297
-68.895
-66.659
-63.687
-60.085
-55.954
-51.392
-46.489
-41.36
-36.131
-30.929
-25.888
-21.096
-16.603
-12.448
-8.644
-5.181
-2.04
0.814
3.444
5.901
8.217
10.425
12.549
14.623
16.706
18.869
21.157
23.597
26.256
29.188
32.428
36.019
39.936
44.116
48.574
53.359
58.315
63.257
68.291
73.401
78.542
84.086
88.993
92.255
95.284
98.5
104.506
116.422
130.769
145.226
156.342
159.38
158.506
157.245
158.009
164.793
174.709
184.831
194.493
201.903
208.071
214.302
220.325
226.292
232.097
237.454
242.521
247.422
252.095
256.515
260.684
264.582
268.188
271.482
274.43
276.989
279.164
280.957
282.359
283.364
283.968
284.166
283.961
283.356
282.352
280.951
279.159
276.982
274.431
271.516
268.251
264.651
260.731
256.509
252.006
247.243
242.241
237.026
231.621
226.054
220.353
214.546
208.662
202.733
196.788
190.858
184.976
179.171
173.475
167.918
162.53
157.342
152.381
147.676
143.253
139.138
135.356
131.929
128.88
126.227
123.988
122.179
120.813
119.903
119.456
119.481
119.982
120.961
122.42
124.354
126.762
129.635
132.964
136.74
140.948
145.574
150.601
156.011
161.784
167.899
174.333
181.064
188.066
195.315
202.784
210.447
218.276
226.244
234.323
242.485
250.701
258.945
267.188
275.403
283.565
291.646
299.623
307.471
315.168
322.69
330.017
337.13
344.009
350.639
357.003
363.088
368.88
374.367
379.541
384.392
388.912
393.094
396.934
400.426
403.567
406.354
408.787
410.865
412.589
413.961
414.982
415.656
415.988
415.983
415.644
414.98
413.995
412.698
411.096
409.195
407.005
404.534
401.79
398.782
395.518
392.007
388.259
384.28
380.081
375.67
371.056
366.248
361.255
356.086
350.752
345.262
339.625
333.853
327.954
321.94
315.821
309.606
303.307
296.933
290.496
284.005
277.472
270.906
264.32
257.724
251.128
244.544
237.983
231.456
224.975
218.55
212.193
205.917
199.731
193.648
187.678
181.832
176.121
170.554
165.141
159.891
154.81
149.907
145.188
140.659
136.325
132.19
128.258
124.532
121.013
117.703
114.602
111.709
109.024
106.543
104.264
102.182
100.291
98.587
97.061
95.706
94.511
93.468
92.565
91.79
91.131
90.574
90.107
89.715
89.385
89.102
88.853
88.625
88.403
88.176
87.93
87.654
87.338
86.969
86.538
86.036
85.455
84.786
84.023
83.161
82.194
81.119
79.933
78.634
77.222
75.698
74.065
72.325
70.483
68.544
66.515
64.409
62.238
60.016
57.753
55.459
53.147
50.841
48.55
46.27
44
41.736
39.49
37.305
35.199
33.155
31.203
29.423
27.876
26.629
25.699
25.012
24.544
24.391
24.475
24.472
24.301
24.067
23.729
23.617
23.14
20.243
15.249
10.074
7.702
13.925
28.68
46.055
60.262
63.074
53.538
39.49
27.013
22.547
27.531
36.1
44.537
50.42
52.859
54.204
55.588
56.889
58.178
59.08
59.465
59.643
59.703
59.572
59.244
58.721
57.987
57.025
55.806
54.27
52.395
50.202
47.713
44.947
41.927
38.672
35.193
31.493
27.582
23.47
19.175
14.71
10.08
5.297
0.394
-4.563
-9.492
-14.321
-19.005
-23.531
-27.909
-32.117
-36.084
-39.713
-42.896
-45.554
-47.684
-49.239
-50.115
-50.32
-49.955
-49.299
-48.902
-49.241
-50.461
-52.624
-55.689
-59.377
-63.551
-67.825
-71.121
-72.36
-70.892
-66.405
-59.278
-50.448
-40.41
-29.902
-20.662
-14.71
-14.063
-20.285
-33.511
-52.731
-77.13
-105.37
-134.869
-162.225
-183.073
-192.676
-187.653
-166.111
-126.09
-67.606
8.07
100.241
205.256
320.614
443.932
566.731
681.938
779.733
849.51
892.946
911.377
908.737
892.365
856.472
797.331
713.744
602.902
474.369
338.069
201.211
72.57
-46.099
-153.751
-247.842
-327.828
-391.511
-437.943
-468.683
-485.312
-490.304
-486.415
-475.606
-459.768
-440.801
-419.694
-396.899
-372.817
-347.851
-322.656
-298.038
-274.673
-252.839
-232.993
-215.694
-201.23
-189.47
-179.689
-171.102
-163.136
-155.593
-148.425
-141.574
-135.035
-129.063
-124.322
-121.365
-120.521
-121.841
-125.035
-129.754
-135.709
-142.508
-149.607
-156.541
-162.878
-168.279
-172.656
-175.979
-178.236
-179.488
-179.798
-179.226
-177.881
-175.88
-173.321
-170.328
-166.987
-163.365
-159.562
-155.69
-151.881
-148.285
-144.986
-142.023
-139.424
-137.195
-135.336
-133.842
-132.668
-131.745
-131.016
-130.423
-129.925
-129.489
-129.065
-128.593
-128.011
-127.249
-126.259
-125.01
-123.471
-121.62
-119.439
-116.918
-114.06
-110.882
-107.392
-103.599
-99.509
-95.128
-90.467
-85.545
-80.378
-74.988
-69.393
-63.616
-57.68
-51.611
-45.433
-39.172
-32.853
-26.501
-20.142
-13.807
-7.526
-1.329
4.751
10.684
16.438
21.983
27.291
32.333
37.084
41.522
45.625
49.372
52.746
55.734
58.32
60.495
62.249
63.578
64.477
64.946
64.985
64.597
63.789
62.568
60.944
58.932
56.545
53.801
50.718
47.32
43.628
39.668
35.466
31.05
26.449
21.693
16.812
11.838
6.802
1.734
-3.336
-8.378
-13.363
-18.263
-23.052
-27.702
-32.191
-36.496
-40.593
-44.464
-48.089
-51.453
-54.538
-57.333
-59.824
-62.003
-63.861
-65.392
-66.592
-67.459
-67.994
-68.199
-68.078
-67.639
-66.89
-65.841
-64.505
-62.895
-61.027
-58.917
-56.582
-54.039
-51.308
-48.407
-45.355
-42.173
-38.878
-35.491
-32.03
-28.514
-24.961
-21.389
-17.815
-14.256
-10.729
-7.249
-3.832
-0.492
2.756
5.899
8.924
11.82
14.577
17.186
19.639
21.928
24.049
25.996
27.765
29.355
30.763
31.987
33.027
33.884
34.557
35.048
35.358
35.488
35.439
35.214
34.813
34.238
33.49
32.572
31.485
30.23
28.811
27.231
25.493
23.6
21.557
19.369
17.04
14.575
11.98
9.261
6.423
3.472
0.415
-2.741
-5.99
-9.324
-12.735
-16.217
-19.76
-23.357
-26.998
-30.673
-34.374
-38.089
-41.807
-45.517
-49.207
-52.862
-56.472
-60.021
-63.498
-66.889
-70.181
-73.361
-76.418
-79.339
-82.115
-84.734
-87.187
-89.466
-91.561
-93.466
-95.175
-96.681
-97.981
-99.071
-99.947
-100.608
-101.054
-101.283
-101.296
-101.096
-100.686
-100.068
-99.247
-98.231
-97.025
-95.639
-94.08
-92.36
-90.489
-88.479
-86.342
-84.091
-81.739
-79.299
-76.785
-74.209
-71.587
-68.93
-66.251
-63.563
-60.878
-58.209
-55.566
-52.961
-50.403
-47.904
-45.473
-43.118
-40.849
-38.674
-36.601
-34.638
-32.79
-31.066
-29.47
-28.007
-26.683
-25.501
-24.465
-23.577
-22.838
-22.251
-21.816
-21.533
-21.402
-21.422
-21.592
-21.912
-22.379
-22.992
-23.748
-24.647
-25.684
-26.859
-28.167
-29.605
-31.171
-32.86
-34.667
-36.589
-38.619
-40.753
-42.985
-45.308
-47.714
-50.197
-52.747
-55.356
-58.014
-60.712
-63.441
-66.19
-68.948
-71.707
-74.455
-77.183
-79.88
-82.537
-85.142
-87.686
-90.158
-92.548
-94.844
-97.038
-99.119
-101.079
-102.909
-104.602
-106.151
-107.547
-108.787
-109.865
-110.776
-111.518
-112.089
-112.487
-112.714
-112.772
-112.664
-112.396
-111.974
-111.405
-110.699
-109.865
-108.914
-107.856
-106.706
-105.475
-104.178
-102.831
-101.448
-100.048
-98.649
-97.274
-95.944
-94.681
-93.508
-92.447
-91.52
-90.75
-90.155
-89.75
-89.55
-89.571
-89.828
-90.336
-91.11
-92.162
-93.501
-95.135
-97.068
-99.305
-101.84
-104.662
-107.758
-111.12
-114.746
-118.645
-122.82
-127.268
-131.979
-136.934
-142.11
-147.473
-152.974
-158.541
-164.102
-169.582
-174.921
-180.071
-184.982
-189.59
-193.814
-197.555
-200.723
-203.249
-205.089
-206.218
-206.632
-206.357
-205.462
-204.058
-202.293
-200.318
-198.256
-196.234
-194.389
-192.867
-191.921
-191.849
-192.816
-194.897
-198.006
-201.818
-205.945
-209.969
-213.227
-214.973
-214.8
-212.481
-208.183
-202.875
-197.792
-194.075
-192.957
-194.292
-196.14
-197.177
-196.685
-195.893
-197.357
-199.764
-196.587
-176.712
-129.81
-51.003
56.362
181.283
314.237
445.493
566.376
673.265
759.267
821.19
862.191
883.55
889.252
880.825
853.653
805.134
733.862
641.825
536.189
421.971
302.329
178.658
49.409
-80.291
-199.95
-300.011
-369.81
-407.971
-422.773
-420.81
-409.58
-392.818
-368.104
-335.931
-297.834
-255.119
-211.407
-169.263
-130.187
-96.063
-67.448
-43.686
-24.231
-8.912
2.597
10.63
16.153
21.143
26.747
33.053
39.936
47.122
54.383
61.695
68.505
73.543
76.099
76.067
73.629
69.348
63.637
56.72
49.067
41.408
34.354
28.299
23.411
19.606
16.81
15.024
14.204
14.268
15.078
16.479
18.329
20.526
23.003
25.665
28.393
31.036
33.414
35.406
36.949
38.012
38.585
38.659
38.226
37.306
35.964
34.264
32.27
30.035
27.598
25.009
22.337
19.66
17.061
14.605
12.334
10.286
8.493
6.986
5.79
4.92
4.372
4.15
4.259
4.71
5.513
6.672
8.185
10.046
12.253
14.799
17.679
20.886
24.41
28.238
32.36
36.762
41.433
46.356
51.51
56.871
62.416
68.115
73.941
79.863
85.847
91.862
97.875
103.852
109.761
115.568
121.24
126.745
132.051
137.126
141.94
146.462
150.665
154.521
158.006
161.096
163.768
166.002
167.781
169.087
169.907
170.229
170.045
169.346
168.13
166.393
164.138
161.369
158.093
154.32
150.063
145.338
140.165
134.565
128.56
122.179
115.447
108.397
101.059
93.467
85.657
77.664
69.526
61.282
52.97
44.63
36.301
28.022
19.832
11.77
3.872
-3.822
-11.279
-18.464
-25.344
-31.889
-38.067
-43.852
-49.222
-54.156
-58.637
-62.651
-66.185
-69.227
-71.775
-73.834
-75.394
-76.452
-77.009
-77.065
-76.643
-75.78
-74.479
-72.747
-70.643
-68.223
-65.534
-62.64
-59.544
-56.221
-52.736
-49.177
-45.43
-41.357
-37.096
-32.668
-28.075
-23.721
-18.631
-11.856
-4.822
2.021
6.079
4.253
-0.07
-4.639
-6.089
0.21
10.143
20.223
28.063
29.721
28.016
25.81
23.743
23.566
24.28
24.598
24.784
24.687
24.412
24.241
24.023
23.639
23.156
22.606
21.993
21.345
20.691
20.058
19.492
19.041
18.712
18.511
18.458
18.566
18.849
19.319
19.982
20.84
21.901
23.168
24.64
26.317
28.194
30.264
32.519
34.948
37.539
40.279
43.153
46.144
49.236
52.409
55.645
58.923
62.225
65.53
68.817
72.065
75.256
78.37
81.387
84.29
87.062
89.686
92.147
94.432
96.528
98.425
100.112
101.584
102.833
103.855
104.648
105.212
105.548
105.659
105.549
105.224
104.692
103.961
103.043
101.947
100.686
99.273
97.723
96.048
94.264
92.387
90.432
88.414
86.349
84.252
82.14
80.025
77.924
75.85
73.817
71.836
69.922
68.084
66.334
64.679
63.13
61.693
60.374
59.178
58.11
57.173
56.369
55.699
55.164
54.763
54.495
54.359
54.352
54.471
54.714
55.076
55.552
56.14
56.834
57.63
58.522
59.507
60.579
61.733
62.964
64.268
65.641
67.077
68.573
70.125
71.729
73.384
75.086
76.834
78.625
80.459
82.335
84.252
86.209
88.207
90.247
92.327
94.45
96.617
98.828
101.085
103.388
105.74
108.14
110.591
113.092
115.644
118.249
120.906
123.617
126.381
129.2
132.073
135
137.981
141.015
144.1
147.235
150.417
153.644
156.912
160.217
163.555
166.921
170.311
173.718
177.136
180.558
183.977
187.383
190.765
194.111
197.408
200.646
203.81
206.887
209.864
212.731
215.477
218.095
220.574
222.903
225.071
227.064
228.874
230.49
231.904
233.108
234.095
234.86
235.406
235.738
235.854
235.748
235.403
234.804
233.945
232.829
231.459
229.848
228.01
225.974
223.789
221.509
219.186
216.865
214.574
212.348
210.235
208.296
206.612
205.256
204.274
203.692
203.521
203.754
204.362
205.28
206.393
207.564
208.639
209.473
209.929
209.856
209.111
207.494
204.726
200.624
195.135
188.363
180.668
172.444
163.986
155.76
148.399
142.348
137.931
135.041
132.758
130.198
126.83
122.03
115.471
107.216
97.233
86.35
76.958
71.606
72.749
83.065
104.292
137.822
185.68
248.622
325.372
413.862
510.76
611.663
712.793
809.591
895.62
965.166
1013.592
1036.638
1032.111
999.426
937.847
849.652
740.947
616.291
480.481
337.807
188.647
39.268
-99.16
-217.096
-304.025
-358.374
-388.709
-403.255
-410.507
-414.081
-411.209
-400.679
-382.727
-359.194
-333.204
-306.021
-278.091
-249.869
-222.059
-195.931
-172.017
-150.274
-131.1
-114.844
-101.689
-91.446
-82.871
-74.653
-66.367
-58
-49.629
-41.462
-33.566
-26.263
-20.542
-17.242
-16.652
-18.77
-23.265
-29.687
-37.738
-47.006
-56.817
-66.585
-75.878
-84.369
-91.924
-98.494
-104.005
-108.446
-111.885
-114.381
-116.021
-116.909
-117.13
-116.791
-116.008
-114.881
-113.524
-112.074
-110.668
-109.445
-108.545
-108.049
-108.012
-108.472
-109.436
-110.894
-112.825
-115.179
-117.897
-120.922
-124.203
-127.69
-131.338
-135.084
-138.864
-142.611
-146.251
-149.73
-153.007
-156.043
-158.811
-161.294
-163.475
-165.351
-166.926
-168.197
-169.162
-169.818
-170.159
-170.184
-169.899
-169.31
-168.426
-167.256
-165.811
-164.103
-162.145
-159.952
-157.537
-154.911
-152.087
-149.08
-145.912
-142.606
-139.181
-135.654
-132.06
-128.432
-124.801
-121.204
-117.655
-114.159
-110.755
-107.48
-104.322
-101.275
-98.338
-95.497
-92.8
-90.321
-88.046
-85.932
-84.142
-82.861
-81.994
-81.559
-81.595
-81.731
-82.981
-86.33
-90.371
-94.675
-96.652
-93.206
-87.749
-82.556
-81.012
-87.772
-98.694
-110.265
-120.071
-124.133
-125.266
-126.324
-127.927
-131.803
-136.917
-141.942
-147.106
-152.219
-157.349
-162.738
-168.191
-173.55
-178.84
-184.05
-189.147
-194.116
-198.95
-203.638
-208.19
-212.622
-216.909
-221.029
-224.976
-228.739
-232.312
-235.691
-238.866
-241.831
-244.584
-247.125
-249.449
-251.558
-253.455
-255.146
-256.638
-257.936
-259.042
-259.96
-260.705
-261.286
-261.695
-261.914
-261.925
-261.729
-261.355
-260.829
-260.147
-259.32
-258.416
-257.534
-256.773
-256.175
-255.693
-255.27
-254.953
-254.702
-254.227
-253.277
-251.807
-249.879
-247.823
-245.067
-239.761
-231.103
-220.286
-211.781
-212.263
-224.669
-245.56
-265.4
-273.141
-263.815
-241.4
-216.631
-199.83
-195.406
-200.913
-209.41
-215.559
-217.595
-216.352
-214.189
-212.25
-210.413
-208.476
-206.203
-203.689
-201.235
-198.914
-196.69
-194.573
-192.57
-190.664
-188.819
-186.972
-185.079
-183.14
-181.182
-179.215
-177.237
-175.25
-173.258
-171.267
-169.287
-167.319
-165.362
-163.416
-161.482
-159.562
-157.658
-155.772
-153.905
-152.057
-150.231
-148.427
-146.646
-144.89
-143.16
-141.457
-139.782
-138.135
-136.519
-134.933
-133.379
-131.857
-130.367
-128.91
-127.486
-126.093
-124.731
-123.4
-122.099
-120.825
-119.578
-118.357
-117.16
-115.985
-114.83
-113.693
-112.573
-111.467
-110.372
-109.282
-108.196
-107.113
-106.032
-104.95
-103.862
-102.761
-101.641
-100.506
-99.349
-98.143
-96.868
-95.501
-94.033
-92.485
-90.857
-89.111
-87.258
-85.357
-83.45
-81.586
-79.768
-77.909
-75.975
-74.045
-72.037
-69.628
-66.73
-63.441
-59.716
-55.873
-51.353
-44.169
-34.612
-24.561
-16.894
-17.232
-25.603
-36.282
-43.689
-39.885
-23.871
-3.274
15.971
27.611
30.144
29.221
28.437
30.087
35.033
40.961
46.718
52.385
57.849
63.43
69.221
74.888
80.306
85.512
90.478
95.168
99.574
103.689
107.518
111.093
114.411
117.428
120.115
122.455
124.431
126.029
127.237
128.037
128.42
128.381
127.914
127.014
125.677
123.901
121.687
119.041
115.968
112.478
108.589
104.32
99.691
94.717
89.404
83.757
77.792
71.524
64.979
58.19
51.192
44.033
36.781
29.503
22.269
15.143
8.175
1.416
-5.069
-11.21
-16.912
-22.088
-26.669
-30.586
-33.796
-36.286
-38.061
-39.171
-39.713
-39.765
-39.422
-38.801
-38.008
-37.2
-36.537
-36.145
-36.239
-37.088
-38.865
-41.641
-45.231
-49.126
-52.863
-56.054
-58.152
-58.588
-56.955
-53.1
-47.701
-42.206
-37.82
-35.384
-35.765
-39.465
-46.522
-56.691
-66.893
-72.573
-71.217
-59.739
-37.639
-5.287
42.603
109.294
196.252
302.596
419.366
538.766
655.384
765.06
864.458
945.476
999.261
1017.536
998.837
951.515
884.13
805.623
721.021
628.848
529.35
423.75
314.07
204.609
98.625
-1.571
-93.931
-177.063
-249.466
-309.724
-357.039
-390.883
-411.353
-419.201
-415.242
-400.969
-378.723
-350.818
-319.138
-285.59
-251.846
-219.643
-191.242
-167.901
-149.61
-136.131
-127.067
-121.74
-119.745
-119.895
-119.952
-118.941
-115.608
-108.984
-100.775
-91.723
-84.5
-82.836
-84.674
-88.526
-91.242
-88.152
-82.888
-78.572
-77.527
-83.435
-93.008
-103.048
-112.621
-119.767
-125.532
-131.282
-136.577
-141.162
-144.813
-147.357
-148.981
-150.205
-150.412
-147.646
-142.296
-136.185
-132.245
-136.053
-147.419
-160.754
-170.574
-169.099
-155.739
-138.062
-121.929
-113.556
-114.165
-118.179
-122.125
-123.685
-122.089
-119.57
-117.16
-114.753
-112.422
-109.829
-106.876
-103.848
-100.809
-97.666
-94.399
-91.018
-87.513
-83.881
-80.104
-76.148
-72.021
-67.786
-63.486
-59.144
-54.787
-50.431
-46.103
-41.84
-37.674
-33.634
-29.746
-26.037
-22.534
-19.264
-16.25
-13.513
-11.07
-8.935
-7.12
-5.639
-4.505
-3.728
-3.316
-3.277
-3.617
-4.339
-5.445
-6.936
-8.808
-11.055
-13.671
-16.648
-19.975
-23.64
-27.631
-31.933
-36.531
-41.409
-46.551
-51.939
-57.554
-63.379
-69.393
-75.578
-81.914
-88.383
-94.965
-101.641
-108.396
-115.211
-122.072
-128.963
-135.87
-142.78
-149.682
-156.563
-163.414
-170.225
-176.987
-183.692
-190.333
-196.903
-203.398
-209.811
-216.137
-222.373
-228.514
-234.555
-240.494
-246.327
-252.05
-257.659
-263.152
-268.524
-273.773
-278.895
-283.885
-288.739
-293.452
-298.018
-302.43
-306.683
-310.766
-314.672
-318.391
-321.912
-325.224
-328.314
-331.171
-333.78
-336.128
-338.203
-339.988
-341.472
-342.639
-343.477
-343.973
-344.113
-343.887
-343.282
-342.288
-340.895
-339.094
-336.877
-334.236
-331.165
-327.659
-323.715
-319.329
-314.501
-309.231
-303.521
-297.375
-290.8
-283.802
-276.393
-268.583
-260.386
-251.818
-242.898
-233.644
-224.078
-214.222
-204.101
-193.74
-183.168
-172.412
-161.499
-150.457
-139.314
