Name,John Breau
Date of Birth,"Dec 20, 1971"
Recorded Date,2025-03-28 21:49:36 -0500
Classification,Sinus Rhythm
Symptoms,
Software Version,1.90
Device,"Watch6,18"
Sample Rate,512 hertz


Lead,Lead I
Unit,µV

-168.537
-161.317
-163.778
-169.435
-173.312
-169.898
-158.605
-144.352
-130.054
-117.844
-108.233
-99.243
-90.077
-80.812
-71.422
-62.247
-53.371
-44.557
-35.763
-27.063
-18.478
-10.025
-1.743
6.331
14.146
21.632
28.753
35.512
41.893
47.879
53.454
58.604
63.318
67.595
71.429
74.814
77.746
80.226
82.256
83.842
84.989
85.708
86.008
85.901
85.401
84.525
83.289
81.711
79.811
77.61
75.13
72.395
69.426
66.25
62.889
59.37
55.716
51.953
48.105
44.196
40.25
36.289
32.336
28.412
24.536
20.728
17.003
13.379
9.87
6.489
3.248
0.157
-2.774
-5.539
-8.132
-10.546
-12.779
-14.829
-16.694
-18.375
-19.873
-21.191
-22.332
-23.301
-24.103
-24.745
-25.232
-25.574
-25.777
-25.851
-25.804
-25.645
-25.384
-25.03
-24.592
-24.079
-23.5
-22.863
-22.175
-21.444
-20.678
-19.882
-19.063
-18.226
-17.377
-16.521
-15.661
-14.801
-13.945
-13.096
-12.256
-11.427
-10.611
-9.809
-9.022
-8.251
-7.495
-6.755
-6.031
-5.322
-4.627
-3.945
-3.275
-2.615
-1.966
-1.324
-0.691
-0.063
0.558
1.174
1.784
2.39
2.99
3.585
4.174
4.757
5.332
5.9
6.46
7.009
7.548
8.076
8.59
9.091
9.575
10.044
10.494
10.925
11.335
11.722
12.086
12.424
12.735
13.016
13.268
13.487
13.673
13.824
13.94
14.02
14.063
14.068
14.037
13.969
13.865
13.726
13.552
13.344
13.104
12.833
12.533
12.205
11.852
11.474
11.074
10.655
10.218
9.767
9.304
8.832
8.355
7.876
7.399
6.928
6.467
6.022
5.595
5.193
4.821
4.482
4.182
3.927
3.72
3.566
3.471
3.438
3.471
3.574
3.75
4.002
4.334
4.748
5.246
5.831
6.503
7.266
8.118
9.062
10.095
11.218
12.428
13.723
15.1
16.555
18.082
19.677
21.332
23.04
24.792
26.58
28.391
30.215
32.039
33.851
35.634
37.374
39.055
40.66
42.173
43.578
44.856
45.993
46.972
47.779
48.397
48.813
49.01
48.974
48.691
48.147
47.327
46.224
44.826
43.129
41.132
38.831
36.229
33.327
30.12
26.61
22.803
18.705
14.329
9.695
4.826
-0.237
-5.447
-10.757
-16.119
-21.487
-26.823
-32.085
-37.224
-42.197
-46.945
-51.412
-55.549
-59.301
-62.624
-65.501
-67.926
-69.933
-71.587
-72.956
-74.103
-75.083
-75.947
-76.763
-77.613
-78.593
-79.803
-81.303
-83.185
-85.597
-88.609
-92.2
-96.187
-100.142
-103.66
-106.489
-108.327
-108.805
-107.661
-104.716
-100.272
-95.236
-90.288
-85.677
-81.569
-78.134
-75.597
-74.186
-72.288
-66.339
-53.634
-33.059
-6.908
20.271
47.396
78.294
120.822
182.745
265.676
362.855
461.543
549.539
618.879
667.127
696.937
710.568
708.269
689.768
653.695
599.834
530.513
448.886
358.311
262.219
163.678
65.223
-30.574
-120.904
-203.224
-275.479
-335.951
-383.322
-418.068
-440.811
-450.679
-448.448
-433.535
-405.417
-369.653
-330.666
-293.51
-264.268
-241.044
-221.973
-205.567
-188.27
-171.748
-157.485
-145.022
-134.775
-125.022
-113.99
-101.58
-87.84
-73.38
-59.135
-45.736
-33.839
-23.97
-16.448
-11.362
-8.508
-7.573
-8.14
-9.726
-11.858
-14.164
-16.358
-18.231
-19.662
-20.538
-20.76
-20.268
-19.049
-17.107
-14.46
-11.153
-7.244
-2.81
2.045
7.217
12.617
18.162
23.781
29.404
34.955
40.363
45.554
50.451
55.001
59.174
62.957
66.365
69.422
72.159
74.617
76.847
78.891
80.792
82.581
84.287
85.939
87.574
89.23
90.951
92.771
94.714
96.799
99.034
101.425
103.973
106.672
109.51
112.474
115.553
118.739
122.025
125.4
128.851
132.361
135.911
139.485
143.064
146.629
150.162
153.641
157.05
160.369
163.584
166.678
169.63
172.424
175.041
177.462
179.671
181.65
183.383
184.855
186.052
186.963
187.576
187.884
187.878
187.553
186.906
185.933
184.634
183.011
181.065
178.802
176.226
173.346
170.17
166.709
162.976
158.983
154.744
150.275
145.592
140.709
135.646
130.421
125.054
119.563
113.967
108.281
102.53
96.737
90.914
85.072
79.227
73.388
67.58
61.836
56.162
50.559
45.074
39.742
34.594
29.67
24.96
20.428
16.109
12.056
8.158
4.28
0.512
-3.153
-6.738
-9.941
-13.573
-18.424
-23.368
-28.067
-30.455
-28.058
-23.623
-18.984
-16.868
-21.02
-28.142
-35.44
-41
-41.659
-39.696
-37.419
-35.349
-34.897
-35.261
-35.402
-35.531
-35.522
-35.456
-35.552
-35.682
-35.741
-35.774
-35.794
-35.796
-35.787
-35.78
-35.783
-35.82
-35.917
-36.067
-36.262
-36.506
-36.799
-37.141
-37.533
-37.97
-38.447
-38.962
-39.514
-40.098
-40.711
-41.349
-42.005
-42.675
-43.354
-44.035
-44.714
-45.384
-46.039
-46.672
-47.278
-47.852
-48.388
-48.88
-49.325
-49.72
-50.059
-50.341
-50.564
-50.726
-50.827
-50.865
-50.842
-50.758
-50.617
-50.42
-50.17
-49.871
-49.529
-49.146
-48.728
-48.279
-47.806
-47.313
-46.806
-46.291
-45.772
-45.255
-44.746
-44.25
-43.772
-43.317
-42.89
-42.494
-42.132
-41.809
-41.525
-41.283
-41.082
-40.924
-40.808
-40.731
-40.693
-40.688
-40.714
-40.764
-40.834
-40.915
-41.002
-41.085
-41.156
-41.207
-41.229
-41.213
-41.15
-41.031
-40.848
-40.592
-40.255
-39.83
-39.307
-38.681
-37.946
-37.094
-36.123
-35.027
-33.804
-32.451
-30.967
-29.353
-27.607
-25.732
-23.731
-21.607
-19.366
-17.014
-14.559
-12.009
-9.376
-6.669
-3.903
-1.09
1.757
4.623
7.492
10.351
13.183
15.972
18.703
21.359
23.924
26.381
28.711
30.898
32.925
34.777
36.438
37.894
39.131
40.141
40.916
41.446
41.727
41.751
41.51
41.003
40.226
39.18
37.867
36.29
34.457
32.382
30.08
27.565
24.848
21.933
18.825
15.535
12.076
8.466
4.729
0.895
-3
-6.902
-10.759
-14.519
-18.135
-21.57
-24.788
-27.747
-30.394
-32.667
-34.504
-35.857
-36.691
-36.984
-36.741
-35.986
-34.775
-33.2
-31.347
-29.322
-27.224
-25.136
-23.165
-21.429
-20.05
-19.214
-19.136
-19.912
-21.57
-24.025
-26.96
-30.023
-32.854
-34.911
-35.637
-34.768
-32.199
-28.12
-23.431
-19.185
-16.096
-15.064
-16.038
-17.45
-19.066
-20.749
-22.555
-26.45
-29.335
-24.298
-4.801
37.445
102.308
181.545
268.705
354.978
437.046
517.841
593.441
659.78
711.272
739.725
745.55
731.302
699.571
654.446
595.534
522.96
438.856
345.293
246.883
147.661
50.307
-41.709
-125.614
-199.23
-260.263
-307.614
-341.609
-362.717
-371.872
-370.645
-360.48
-343.084
-320.596
-294.816
-266.812
-237.444
-207.357
-177.264
-148.374
-121.76
-98.099
-77.718
-60.872
-47.848
-38.841
-33.553
-31.02
-30.004
-29.277
-28.136
-26.28
-23.411
-19.343
-14.155
-8.245
-2.319
2.788
6.667
9.284
10.684
11.029
10.509
9.341
7.922
6.733
6.077
6.1
6.837
8.214
10.182
12.709
15.71
19.077
22.714
26.535
30.491
34.561
38.709
42.885
47.028
51.068
54.938
58.573
61.926
64.972
67.699
70.114
72.232
74.072
75.665
77.049
78.257
79.32
80.265
81.113
81.895
82.648
83.41
84.226
85.129
86.143
87.287
88.573
90.01
91.601
93.345
95.232
97.252
99.399
101.667
104.051
106.543
109.132
111.802
114.539
117.327
120.149
122.988
125.827
128.648
131.431
134.161
136.822
139.396
141.865
144.209
146.41
148.448
150.305
151.96
153.397
154.596
155.543
156.221
156.62
156.726
156.531
156.025
155.203
154.059
152.59
150.795
148.674
146.227
143.46
140.376
136.982
133.287
129.3
125.033
120.497
115.707
110.677
105.424
99.963
94.313
88.491
82.517
76.411
70.192
63.883
57.505
51.08
44.629
38.175
31.739
25.342
19.005
12.746
6.586
0.542
-5.369
-11.131
-16.728
-22.146
-27.372
-32.395
-37.205
-41.792
-46.148
-50.267
-54.145
-57.777
-61.161
-64.295
-67.179
-69.814
-72.2
-74.342
-76.244
-77.911
-79.348
-80.565
-81.568
-82.369
-82.977
-83.402
-83.658
-83.754
-83.705
-83.521
-83.217
-82.803
-82.294
-81.701
-81.036
-80.311
-79.539
-78.728
-77.891
-77.035
-76.17
-75.305
-74.446
-73.6
-72.774
-71.973
-71.203
-70.468
-69.772
-69.118
-68.509
-67.947
-67.433
-66.969
-66.553
-66.184
-65.863
-65.586
-65.352
-65.157
-64.999
-64.875
-64.779
-64.71
-64.662
-64.632
-64.616
-64.61
-64.611
-64.616
-64.622
-64.627
-64.629
-64.627
-64.62
-64.607
-64.59
-64.566
-64.538
-64.504
-64.467
-64.425
-64.381
-64.334
-64.287
-64.24
-64.196
-64.154
-64.118
-64.089
-64.067
-64.056
-64.057
-64.071
-64.098
-64.142
-64.203
-64.281
-64.377
-64.492
-64.625
-64.775
-64.94
-65.119
-65.308
-65.503
-65.7
-65.893
-66.078
-66.249
-66.4
-66.525
-66.618
-66.672
-66.681
-66.64
-66.541
-66.379
-66.148
-65.842
-65.454
-64.981
-64.417
-63.757
-62.998
-62.136
-61.169
-60.094
-58.909
-57.613
-56.204
-54.684
-53.053
-51.312
-49.466
-47.519
-45.476
-43.344
-41.131
-38.847
-36.5
-34.101
-31.663
-29.197
-26.714
-24.229
-21.755
-19.305
-16.895
-14.539
-12.252
-10.05
-7.95
-5.969
-4.122
-2.426
-0.897
0.449
1.597
2.534
3.249
3.731
3.972
3.962
3.692
3.155
2.344
1.257
-0.108
-1.751
-3.669
-5.857
-8.303
-10.993
-13.916
-17.062
-20.428
-24.011
-27.798
-31.775
-35.923
-40.216
-44.626
-49.114
-53.629
-58.119
-62.531
-66.816
-70.94
-74.865
-78.548
-81.934
-84.958
-87.557
-89.684
-91.309
-92.406
-92.978
-93.043
-92.648
-91.877
-90.812
-89.539
-88.157
-86.753
-85.433
-84.32
-83.518
-83.183
-83.52
-84.625
-86.498
-88.998
-91.768
-94.468
-96.818
-98.41
-98.785
-97.655
-94.933
-91.044
-86.914
-83.303
-80.737
-79.601
-80.081
-82.241
-85.768
-89.275
-90.521
-87.312
-77.575
-59.793
-32.918
4.261
52.4
110.652
177.053
248.961
323.065
396.422
466.122
528.278
579.122
615.777
635.873
638.001
621.891
587.274
534.53
465.686
383.45
290.987
192.366
91.644
-7.576
-101.355
-186.187
-259.781
-320.352
-366.871
-399.807
-420.305
-429.633
-429.64
-422.086
-408.249
-389.784
-368.326
-344.6
-319.079
-292.373
-264.987
-237.885
-212.309
-188.751
-167.335
-148.459
-132.289
-118.733
-107.458
-97.426
-87.521
-77.29
-66.597
-55.391
-43.868
-32.25
-20.933
-10.766
-2.435
3.825
7.985
10.257
10.968
10.346
8.721
6.61
4.421
2.421
0.803
-0.388
-1.111
-1.253
-0.771
0.322
2.007
4.22
6.904
10.026
13.525
17.332
21.382
25.592
29.887
34.214
38.508
42.71
46.758
50.57
54.088
57.285
60.155
62.711
64.976
66.973
68.734
70.305
71.727
73.039
74.277
75.464
76.629
77.806
79.03
80.347
81.788
83.373
85.115
87.018
89.086
91.316
93.701
96.223
98.868
101.622
104.474
107.416
110.434
113.513
116.634
119.777
122.924
126.056
129.155
132.2
135.173
138.055
140.829
143.479
145.988
148.338
150.511
152.49
154.255
155.792
157.085
158.118
158.878
159.352
159.532
159.408
158.973
158.222
157.15
155.754
154.035
151.993
149.63
146.95
143.956
140.658
137.066
133.189
129.04
124.63
119.971
115.08
109.979
104.675
99.181
93.509
87.671
81.694
75.613
69.438
63.176
56.878
50.586
44.339
38.184
32.118
26.117
20.226
14.505
8.858
3.162
-2.483
-8.071
-13.615
-18.806
-24.431
-31.256
-38.163
-44.81
-49.151
-48.745
-46.286
-43.57
-43.273
-49.075
-57.723
-66.459
-73.396
-75.416
-74.757
-73.689
-72.722
-73.244
-74.462
-75.355
-76.128
-76.661
-77.031
-77.458
-77.815
-78.005
-78.073
-78.039
-77.898
-77.665
-77.355
-76.982
-76.574
-76.163
-75.746
-75.32
-74.895
-74.477
-74.07
-73.68
-73.309
-72.956
-72.626
-72.321
-72.04
-71.786
-71.558
-71.353
-71.172
-71.012
-70.871
-70.747
-70.638
-70.54
-70.452
-70.369
-70.289
-70.209
-70.126
-70.037
-69.94
-69.833
-69.715
-69.585
-69.441
-69.284
-69.115
-68.934
-68.741
-68.539
-68.329
-68.114
-67.896
-67.678
-67.463
-67.256
-67.059
-66.878
-66.716
-66.577
-66.467
-66.387
-66.343
-66.337
-66.372
-66.453
-66.58
-66.757
-66.984
-67.264
-67.597
-67.983
-68.421
-68.91
-69.449
-70.033
-70.66
-71.326
-72.025
-72.752
-73.503
-74.269
-75.045
-75.824
-76.597
-77.356
-78.092
-78.797
-79.462
-80.077
-80.633
-81.121
-81.531
-81.857
-82.089
-82.22
-82.243
-82.151
-81.937
-81.596
-81.124
-80.514
-79.764
-78.871
-77.832
-76.648
-75.317
-73.842
-72.224
-70.466
-68.573
-66.548
-64.396
-62.125
-59.741
-57.251
-54.665
-51.991
-49.241
-46.426
-43.556
-40.644
-37.702
-34.744
-31.781
-28.826
-25.893
-22.995
-20.145
-17.356
-14.642
-12.017
-9.494
-7.09
-4.821
-2.699
-0.741
1.04
2.632
4.02
5.195
6.149
6.875
7.366
7.617
7.62
7.369
6.858
6.086
5.049
3.748
2.184
0.36
-1.713
-4.025
-6.566
-9.331
-12.325
-15.548
-18.995
-22.655
-26.514
-30.546
-34.726
-39.015
-43.354
-47.688
-51.962
-56.126
-60.146
-63.989
-67.612
-70.963
-73.978
-76.594
-78.771
-80.481
-81.708
-82.468
-82.789
-82.741
-82.439
-81.991
-81.51
-81.105
-80.867
-80.903
-81.332
-82.259
-83.838
-86.253
-89.595
-93.86
-98.896
-104.343
-109.826
-114.988
-119.35
-122.394
-123.745
-123.238
-121.217
-118.511
-115.88
-113.9
-112.976
-113.315
-115.007
-117.798
-120.424
-120.757
-116.587
-105.766
-86.727
-58.449
-19.839
29.775
89.683
157.962
231.959
308.194
383.469
454.957
519.062
572.065
611.044
633.701
638.546
625.505
594.692
546.141
481.23
402.283
312.043
214.138
112.563
10.641
-88.146
-179.739
-260.971
-329.516
-383.598
-422.966
-448.595
-461.564
-463.407
-456.539
-442.985
-424.422
-402.827
-379.322
-354.142
-327.588
-299.929
-271.176
-242.047
-213.743
-186.755
-161.669
-139.395
-120.495
-105.303
-93.924
-85.543
-78.671
-72.438
-66.26
-59.558
-52.093
-43.693
-34.312
-24.511
-15.294
-7.255
-0.625
4.533
8.419
11.179
12.911
13.95
14.784
15.723
16.918
18.405
20.074
21.866
23.799
25.849
27.985
30.213
32.514
34.884
37.347
39.903
42.531
45.211
47.909
50.603
53.29
55.973
58.661
61.36
64.067
66.767
69.436
72.028
74.52
76.904
79.177
81.352
83.44
85.454
87.419
89.366
91.313
93.279
95.274
97.302
99.377
101.518
103.745
106.09
108.571
111.196
113.97
116.889
119.946
123.133
126.431
129.816
133.266
136.76
140.281
143.811
147.332
150.819
154.249
157.598
160.841
163.957
166.924
169.72
172.326
174.724
176.897
178.833
180.517
181.936
183.075
183.923
184.467
184.699
184.61
184.192
183.44
182.351
180.925
179.162
177.066
174.641
171.893
168.832
165.468
161.811
157.876
153.676
149.228
144.548
139.654
134.564
129.297
123.872
118.309
112.629
106.851
100.997
95.087
89.143
83.184
77.232
71.307
65.428
59.615
53.887
48.26
42.754
37.384
32.167
27.116
22.245
17.566
13.09
8.827
4.783
0.964
-2.626
-5.985
-9.111
-12.006
-14.672
-17.112
-19.327
-21.321
-23.099
-24.667
-26.03
-27.196
-28.172
-28.97
-29.6
-30.079
-30.419
-30.635
-30.738
-30.742
-30.658
-30.5
-30.28
-30.006
-29.69
-29.344
-28.984
-28.632
-28.303
-28.005
-27.737
-27.488
-27.25
-27.017
-26.78
-26.532
-26.266
-25.972
-25.668
-25.395
-25.185
-25.069
-25.035
-25.013
-24.981
-24.96
-24.936
-24.895
-24.811
-24.606
-24.33
-24.185
-24.26
-24.521
-25.04
-25.964
-27.263
-28.918
-30.859
-32.388
-34.109
-38.016
-43.484
-49.133
-51.25
-42.183
-22.99
-0.986
15.178
11.644
-11.404
-40.677
-64.636
-68.589
-51.134
-25.885
-2.381
10.274
10.167
5.571
1.14
-0.719
0.835
2.916
4.262
5.255
5.896
6.55
7.362
8.026
8.443
8.679
8.713
8.495
8.026
7.329
6.441
5.425
4.326
3.156
1.932
0.672
-0.622
-1.963
-3.36
-4.815
-6.332
-7.909
-9.541
-11.219
-12.928
-14.639
-16.333
-17.994
-19.61
-21.174
-22.675
-24.098
-25.431
-26.66
-27.773
-28.758
-29.605
-30.3
-30.834
-31.201
-31.399
-31.428
-31.29
-30.985
-30.514
-29.881
-29.088
-28.141
-27.045
-25.804
-24.427
-22.92
-21.295
-19.561
-17.732
-15.819
-13.836
-11.797
-9.716
-7.608
-5.488
-3.372
-1.275
0.786
2.793
4.731
6.58
8.325
9.948
11.434
12.765
13.927
14.909
15.697
16.281
16.651
16.795
16.705
16.37
15.783
14.936
13.825
12.444
10.794
8.878
6.7
4.269
1.587
-1.344
-4.523
-7.944
-11.6
-15.479
-19.563
-23.831
-28.249
-32.774
-37.361
-41.963
-46.538
-51.05
-55.461
-59.731
-63.815
-67.657
-71.202
-74.404
-77.22
-79.611
-81.563
-83.082
-84.201
-84.992
-85.529
-85.871
-86.093
-86.268
-86.48
-86.837
-87.457
-88.439
-89.921
-92.077
-95.013
-98.758
-103.186
-107.963
-112.708
-117.054
-120.549
-122.697
-123.153
-121.767
-118.811
-115.068
-111.331
-108.278
-106.566
-106.696
-108.877
-112.919
-117.731
-121.285
-121.396
-115.598
-101.515
-77.325
-41.189
7.298
67.197
137.816
216.964
303.048
394.28
484.283
567.102
635.788
683.281
709.834
715.941
702.788
674.362
630.465
571.341
498.644
410.96
308.048
192.958
71.273
-46.644
-149.064
-229.607
-288.757
-332.632
-368.358
-399.453
-424.368
-438.564
-439.447
-427.484
-405.467
-377.727
-347.316
-315.912
-285.155
-256.335
-230.596
-208.761
-190.773
-175.882
-163.18
-151.736
-140.536
-128.785
-115.824
-101.299
-85.375
-68.621
-51.808
-35.805
-21.511
-9.514
-0.181
6.308
10.092
11.472
10.85
8.758
5.778
2.322
-1.301
-4.834
-8.142
-11.079
-13.5
-15.324
-16.49
-16.947
-16.678
-15.683
-13.983
-11.64
-8.739
-5.374
-1.654
2.33
6.496
10.757
15.041
19.274
23.376
27.275
30.895
34.182
37.11
39.676
41.896
43.798
45.414
46.788
47.974
49.018
49.962
50.843
51.691
52.538
53.423
54.386
55.469
56.705
58.114
59.71
61.501
63.488
65.669
68.036
70.574
73.269
76.108
79.081
82.179
85.39
88.696
92.08
95.522
99.002
102.502
106.001
109.479
112.915
116.289
119.584
122.782
125.864
128.811
131.603
134.221
136.646
138.861
140.848
142.59
144.073
145.283
146.208
146.84
147.168
147.186
146.889
146.271
145.332
144.07
142.486
140.582
138.362
135.832
132.999
129.872
126.46
122.777
118.833
114.645
110.225
105.591
100.76
95.749
90.576
85.261
79.822
74.28
68.654
62.966
57.234
51.479
45.722
39.98
34.275
28.622
23.042
17.55
12.163
6.896
1.764
-3.218
-8.04
-12.688
-17.153
-21.426
-25.497
-29.361
-33.012
-36.445
-39.658
-42.647
-45.414
-47.958
-50.28
-52.384
-54.273
-55.953
-57.428
-58.706
-59.794
-60.7
-61.434
-62.005
-62.423
-62.698
-62.841
-62.864
-62.776
-62.591
-62.318
-61.969
-61.554
-61.085
-60.571
-60.022
-59.448
-58.855
-58.254
-57.651
-57.052
-56.464
-55.892
-55.34
-54.812
-54.312
-53.841
-53.401
-52.993
-52.616
-52.271
-51.957
-51.67
-51.41
-51.173
-50.956
-50.755
-50.566
-50.384
-50.205
-50.025
-49.837
-49.636
-49.419
-49.18
-48.915
-48.619
-48.289
-47.921
-47.513
-47.063
-46.567
-46.026
-45.438
-44.802
-44.12
-43.391
-42.618
-41.802
-40.945
-40.05
-39.121
-38.16
-37.172
-36.16
-35.13
-34.085
-33.03
-31.971
-30.913
-29.861
-28.821
-27.798
-26.797
-25.824
-24.884
-23.981
-23.119
-22.303
-21.535
-20.818
-20.154
-19.544
-18.989
-18.489
-18.042
-17.648
-17.304
-17.007
-16.754
-16.541
-16.363
-16.216
-16.093
-15.989
-15.899
-15.816
-15.734
-15.646
-15.547
-15.429
-15.286
-15.111
-14.897
-14.637
-14.324
-13.952
-13.515
-13.007
-12.423
-11.758
-11.008
-10.169
-9.241
-8.22
-7.106
-5.899
-4.601
-3.213
-1.738
-0.181
1.453
3.159
4.929
6.756
8.632
10.548
12.495
14.463
16.443
18.422
20.39
22.336
24.248
26.113
27.918
29.648
31.286
32.819
34.229
35.502
36.62
37.569
38.335
38.907
39.274
39.427
39.358
39.056
38.513
37.722
36.678
35.377
33.819
32.003
29.933
27.617
25.066
22.29
19.294
16.077
12.637
8.978
5.108
1.04
-3.207
-7.606
-12.126
-16.718
-21.332
-25.919
-30.432
-34.836
-39.095
-43.168
-47.003
-50.532
-53.687
-56.415
-58.68
-60.459
-61.761
-62.605
-63.042
-63.16
-63.047
-62.798
-62.504
-62.242
-62.112
-62.236
-62.748
-63.829
-65.693
-68.467
-72.195
-76.78
-81.877
-87.078
-91.983
-96.087
-98.905
-100.117
-99.519
-97.446
-94.958
-93.174
-93.061
-94.681
-96.947
-99.054
-101.08
-104.739
-112.35
-123.241
-132.393
-130.392
-107.215
-58.191
13.852
99.235
187.191
270.765
347.677
419.429
486.372
546.051
594.552
627.538
642.417
638.555
616.3
576.394
519.984
448.879
365.499
272.706
173.923
72.766
-27.454
-123.276
-211.485
-289.669
-355.778
-408.195
-446.581
-471.49
-483.645
-484.563
-476.114
-459.746
-437.392
-411.425
-383.375
-354.396
-325.84
-298.293
-272.128
-248.198
-226.608
-206.766
-188.483
-171.371
-154.672
-138.256
-122.011
-105.443
-88.651
-72.114
-56.138
-41.332
-28.451
-17.721
-9.302
-3.433
0.029
1.352
0.801
-1.094
-3.759
-6.858
-10.08
-13.119
-15.799
-17.918
-19.28
-19.846
-19.617
-18.591
-16.805
-14.288
-11.079
-7.271
-2.977
1.693
6.631
11.754
16.982
22.21
27.336
32.253
36.862
41.104
44.949
48.376
51.391
54.015
56.276
58.225
59.922
61.421
62.773
64.023
65.206
66.371
67.566
68.839
70.244
71.816
73.581
75.558
77.758
80.185
82.837
85.704
88.769
92.016
95.433
99.006
102.721
106.564
110.514
114.55
118.648
122.786
126.939
131.084
135.195
139.249
143.222
147.09
150.833
154.427
157.849
161.073
164.076
166.834
169.326
171.531
173.43
175.003
176.236
177.116
177.632
177.774
177.536
176.911
175.897
174.493
172.698
170.517
167.955
165.018
161.716
158.06
154.063
149.74
145.107
140.182
134.984
129.533
123.85
117.955
111.874
105.631
99.25
92.758
86.179
79.534
72.852
66.163
59.481
52.825
46.211
39.654
33.18
26.825
20.595
14.495
8.572
2.859
-2.611
-7.801
-12.721
-17.403
-21.815
-25.908
-29.788
-33.582
-37.209
-40.674
-44.002
-46.911
-50.166
-54.516
-58.902
-63.006
-64.884
-62.205
-57.565
-52.696
-50.175
-53.54
-59.68
-65.961
-70.581
-70.556
-68.038
-65.207
-62.556
-61.418
-61.035
-60.429
-59.799
-59.028
-58.19
-57.493
-56.814
-56.055
-55.259
-54.437
-53.584
-52.708
-51.82
-50.929
-50.057
-49.23
-48.44
-47.681
-46.957
-46.267
-45.612
-44.994
-44.41
-43.855
-43.331
-42.838
-42.375
-41.94
-41.533
-41.151
-40.793
-40.459
-40.146
-39.853
-39.579
-39.324
-39.085
-38.863
-38.656
-38.465
-38.288
-38.127
-37.979
-37.846
-37.728
-37.625
-37.537
-37.466
-37.412
-37.377
-37.361
-37.367
-37.395
-37.448
-37.525
-37.629
-37.759
-37.916
-38.1
-38.31
-38.547
-38.808
-39.093
-39.399
-39.725
-40.068
-40.423
-40.789
-41.16
-41.533
-41.902
-42.264
-42.612
-42.941
-43.247
-43.524
-43.766
-43.967
-44.122
-44.224
-44.268
-44.248
-44.158
-43.993
-43.749
-43.421
-43.004
-42.495
-41.892
-41.192
-40.392
-39.494
-38.495
-37.396
-36.198
-34.902
-33.513
-32.032
-30.464
-28.814
-27.088
-25.291
-23.431
-21.514
-19.548
-17.541
-15.501
-13.437
-11.358
-9.272
-7.191
-5.122
-3.077
-1.063
0.909
2.829
4.69
6.482
8.198
9.829
11.367
12.806
14.139
15.359
16.46
17.433
18.272
18.97
19.521
19.917
20.155
20.228
20.134
19.871
19.44
18.841
18.075
17.141
16.038
14.769
13.333
11.734
9.975
8.06
5.993
3.787
1.453
-1.001
-3.569
-6.254
-9.06
-11.984
-15.024
-18.171
-21.41
-24.724
-28.084
-31.447
-34.769
-38.003
-41.11
-44.062
-46.827
-49.371
-51.648
-53.603
-55.185
-56.357
-57.089
-57.363
-57.207
-56.654
-55.777
-54.689
-53.479
-52.251
-51.142
-50.265
-49.706
-49.568
-49.942
-50.971
-52.897
-55.859
-59.809
-64.578
-69.956
-75.714
-81.451
-86.672
-90.784
-93.17
-94.544
-95.906
-96.872
-97.947
-97.965
-95.245
-92.948
-92.166
-93.351
-98.892
-104.694
-107.634
-107.764
-99.689
-80.13
-47.609
3.747
73.262
155.8
249.013
343.894
431.31
506.996
563.176
598.065
616.059
618.642
609.458
589.718
555.324
504.805
438.157
356.81
265.195
167.553
67.456
-31.653
-126.433
-213.544
-290.052
-353.54
-402.457
-436.752
-457.312
-465.328
-462.635
-451.183
-432.709
-409.417
-383.424
-355.813
-327.231
-298.322
-269.555
-241.808
-216.102
-192.628
-171.26
-152.256
-135.803
-121.956
-110.542
-100.633
-91.224
-82.001
-72.932
-63.997
-55.296
-46.868
-38.947
-32.241
-27.314
-24.303
-23.142
-23.582
-25.335
-28.175
-31.697
-35.442
-39.235
-42.813
-45.882
-48.408
-50.065
-51.418
-54.097
-57.661
-60.761
-60.879
-53.473
-39.345
-23.104
-9.515
-5.271
-10.251
-18.426
-25.19
-25.375
-18.656
-9.7
-1.208
4.793
7.927
10.112
12.11
13.928
15.658
17.048
18.103
19.109
20.162
21.259
22.447
23.779
25.289
26.995
28.894
30.957
33.179
35.582
38.172
40.937
43.862
46.932
50.138
53.473
56.932
60.498
64.156
67.887
71.674
75.496
79.338
83.179
87
90.781
94.504
98.149
101.702
105.144
108.456
111.62
114.617
117.428
120.038
122.429
124.585
126.493
128.139
129.512
130.603
131.404
131.908
132.108
132.001
131.583
130.853
129.812
128.46
126.801
124.839
122.58
120.032
117.204
114.107
110.752
107.153
103.323
99.277
95.032
90.604
86.009
81.266
76.393
71.408
66.33
61.177
55.969
50.723
45.457
40.188
34.935
29.713
24.538
19.424
14.386
9.438
4.595
-0.129
-4.722
-9.175
-13.48
-17.624
-21.595
-25.394
-29.023
-32.48
-35.77
-38.882
-41.801
-44.537
-47.102
-49.468
-51.616
-53.532
-55.193
-56.623
-57.872
-58.918
-59.724
-60.408
-61.107
-61.748
-62.344
-62.925
-63.213
-63.981
-65.983
-68.157
-70.184
-70.105
-65.575
-59.201
-52.721
-48.721
-50.751
-55.678
-60.846
-64.435
-63.439
-60.013
-56.34
-52.909
-51.051
-49.996
-48.753
-47.513
-46.15
-44.732
-43.461
-42.207
-40.865
-39.473
-38.039
-36.554
-35.022
-33.453
-31.856
-30.251
-28.665
-27.092
-25.528
-23.981
-22.453
-20.951
-19.482
-18.048
-16.651
-15.3
-14.001
-12.759
-11.58
-10.469
-9.43
-8.467
-7.587
-6.791
-6.084
-5.469
-4.949
-4.527
-4.204
-3.981
-3.86
-3.84
-3.92
-4.101
-4.378
-4.751
-5.216
-5.77
-6.408
-7.125
-7.918
-8.778
-9.701
-10.679
-11.705
-12.77
-13.866
-14.985
-16.117
-17.255
-18.389
-19.511
-20.612
-21.683
-22.717
-23.705
-24.639
-25.512
-26.318
-27.049
-27.701
-28.266
-28.742
-29.123
-29.408
-29.592
-29.674
-29.653
-29.527
-29.297
-28.961
-28.522
-27.98
-27.339
-26.601
-25.77
-24.851
-23.848
-22.768
-21.616
-20.4
-19.125
-17.8
-16.431
-15.027
-13.597
-12.148
-10.689
-9.229
-7.778
-6.344
-4.936
-3.563
-2.233
-0.955
0.263
1.412
2.484
3.471
4.366
5.158
5.839
6.398
6.826
7.114
7.251
7.229
7.04
6.676
6.134
5.411
4.502
3.407
2.121
0.642
-1.034
-2.904
-4.969
-7.225
-9.669
-12.295
-15.089
-18.039
-21.134
-24.364
-27.732
-31.236
-34.871
-38.63
-42.501
-46.463
-50.495
-54.565
-58.626
-62.632
-66.538
-70.302
-73.893
-77.277
-80.416
-83.261
-85.753
-87.829
-89.441
-90.551
-91.135
-91.202
-90.773
-89.903
-88.677
-87.168
-85.467
-83.672
-81.864
-80.143
-78.623
-77.415
-76.695
-76.699
-77.553
-79.283
-81.789
-84.74
-87.754
-90.474
-92.409
-92.997
-91.958
-89.236
-85.107
-80.477
-76.454
-73.94
-73.778
-75.908
-79.023
-81.786
-83.113
-83.739
-85.509
-88.582
-90.009
-80.973
-50.872
7.73
96.125
205.069
319.711
424.615
508.139
567.574
606.492
631.816
649.247
659.296
658.795
642.695
607.617
553.697
483.47
400.867
309.357
212.064
112.211
12.73
-83.057
-171.868
-251.009
-318.001
-371.003
-409.637
-434.431
-446.236
-446.399
-436.331
-417.606
-392.532
-363.531
-332.091
-299.156
-265.653
-232.49
-201.02
-172.546
-147.351
-125.147
-105.951
-89.868
-76.818
-66.471
-57.708
-49.148
-40.207
-30.846
-21.069
-10.989
-0.73
9.521
19.041
26.895
32.663
36.281
37.892
37.828
36.327
33.602
30.115
26.412
22.874
19.757
17.177
15.15
13.764
13.099
13.158
13.903
15.265
17.174
19.592
22.478
25.776
29.415
33.303
37.351
41.493
45.657
49.775
53.776
57.57
61.101
64.347
67.297
69.966
72.376
74.543
76.5
78.291
79.957
81.54
83.076
84.593
86.124
87.707
89.379
91.187
93.162
95.321
97.676
100.232
102.987
105.94
109.082
112.392
115.854
119.456
123.183
127.025
130.966
134.986
139.067
143.184
147.318
151.448
155.551
159.607
163.593
167.489
171.276
174.935
178.447
181.791
184.948
187.895
190.615
193.087
195.294
197.217
198.841
200.151
201.135
201.783
202.084
202.032
201.62
200.844
199.703
198.195
196.322
194.086
191.493
188.548
185.261
181.64
177.697
173.444
168.897
164.07
158.981
153.646
148.084
142.314
136.356
130.23
123.958
117.561
111.061
104.479
97.838
91.159
84.466
77.778
71.118
64.505
57.96
51.5
45.145
38.911
32.814
26.87
21.093
15.495
10.088
4.883
-0.111
-4.887
-9.438
-13.758
-17.845
-21.695
-25.307
-28.68
-31.815
-34.715
-37.381
-39.818
-42.03
-44.023
-45.805
-47.382
-48.763
-49.957
-50.973
-51.822
-52.515
-53.062
-53.474
-53.762
-53.939
-54.015
-54.001
-53.909
-53.75
-53.535
-53.274
-52.976
-52.652
-52.31
-51.958
-51.605
-51.258
-50.922
-50.605
-50.312
-50.048
-49.817
-49.622
-49.467
-49.355
-49.286
-49.262
-49.283
-49.35
-49.46
-49.615
-49.81
-50.046
-50.318
-50.625
-50.964
-51.33
-51.722
-52.136
-52.567
-53.012
-53.469
-53.932
-54.398
-54.866
-55.331
-55.791
-56.243
-56.686
-57.117
-57.535
-57.937
-58.323
-58.692
-59.043
-59.376
-59.69
-59.985
-60.263
-60.523
-60.767
-60.995
-61.21
-61.412
-61.602
-61.781
-61.951
-62.112
-62.266
-62.414
-62.555
-62.691
-62.822
-62.947
-63.066
-63.179
-63.283
-63.378
-63.461
-63.528
-63.579
-63.608
-63.613
-63.59
-63.535
-63.443
-63.31
-63.131
-62.902
-62.617
-62.271
-61.858
-61.373
-60.81
-60.164
-59.43
-58.603
-57.679
-56.655
-55.526
-54.29
-52.944
-51.487
-49.918
-48.236
-46.442
-44.536
-42.522
-40.402
-38.18
-35.863
-33.455
-30.963
-28.396
-25.761
-23.069
-20.328
-17.55
-14.745
-11.926
-9.105
-6.296
-3.513
-0.77
1.915
4.527
7.047
9.458
11.742
13.88
15.855
17.65
19.247
20.634
21.795
22.721
23.397
23.814
23.96
23.825
23.4
22.679
21.657
20.33
18.699
16.768
14.546
12.041
9.258
6.197
2.86
-0.747
-4.613
-8.725
-13.064
-17.601
-22.298
-27.102
-31.957
-36.807
-41.603
-46.301
-50.858
-55.226
-59.352
-63.17
-66.624
-69.665
-72.252
-74.351
-75.953
-77.075
-77.77
-78.138
-78.275
-78.26
-78.185
-78.137
-78.223
-78.578
-79.332
-80.6
-82.519
-85.262
-88.905
-93.427
-98.644
-104.129
-109.409
-114.047
-117.528
-119.317
-119.131
-116.925
-113.079
-108.52
-104.154
-100.659
-98.666
-98.599
-100.373
-103.457
-106.512
-107.07
-102.384
-90.098
-67.987
-35.019
8.333
62.672
128.111
204.475
292.935
389.046
484.33
570.308
635.168
674.163
691.672
690.703
677.92
656.727
620
564.453
488.151
390.104
279.319
163.992
49.636
-57.054
-153.939
-239.613
-311.59
-368.932
-410.723
-437.206
-449.515
-449.071
-438.518
-420.347
-396.975
-371
-343.843
-316.142
-288.88
-262.845
-238.39
-216.024
-195.697
-176.87
-159.499
-143.709
-129.229
-115.618
-102.493
-89.4
-76.303
-63.581
-51.488
-40.226
-30.18
-21.841
-15.593
-11.738
-10.304
-11.012
-13.543
-17.546
-22.58
-28.166
-33.889
-39.364
-44.298
-48.518
-51.861
-54.23
-55.601
-55.983
-55.413
-53.944
-51.639
-48.574
-44.855
-40.595
-35.901
-30.872
-25.603
-20.207
-14.799
-9.493
-4.401
0.409
4.894
9.024
12.796
16.222
19.322
22.139
24.724
27.122
29.374
31.52
33.589
35.623
37.664
39.754
41.94
44.251
46.709
49.328
52.116
55.07
58.188
61.457
64.858
68.376
71.997
75.709
79.501
83.359
87.266
91.206
95.157
99.102
103.022
106.897
110.709
114.438
118.065
121.574
124.947
128.167
131.215
134.072
136.719
139.138
141.311
143.223
144.858
146.201
147.242
147.968
148.373
148.449
148.19
147.591
146.651
145.368
143.742
141.775
139.472
136.836
133.874
130.595
127.007
123.121
118.95
114.507
109.807
104.867
99.703
94.334
88.778
83.056
77.188
71.196
65.1
58.923
52.686
46.411
40.119
33.831
27.567
21.347
15.189
9.111
3.131
-2.735
-8.471
-14.062
-19.495
-24.757
-29.836
-34.722
-39.403
-43.873
-48.123
-52.146
-55.939
-59.497
-62.816
-65.896
-68.736
-71.337
-73.701
-75.832
-77.733
-79.412
-80.873
-82.124
-83.174
-84.031
-84.704
-85.203
-85.536
-85.714
-85.746
-85.643
-85.414
-85.069
-84.618
-84.072
-83.438
-82.727
-81.947
-81.108
-80.217
-79.283
-78.314
-77.317
-76.3
-75.268
-74.228
-73.187
-72.148
-71.117
-70.098
-69.094
-68.107
-67.139
-66.193
-65.268
-64.367
-63.488
-62.634
-61.803
-60.996
-60.214
-59.456
-58.724
-58.016
-57.334
-56.677
-56.048
-55.447
-54.874
-54.332
-53.821
-53.342
-52.899
-52.491
-52.121
-51.789
-51.499
-51.25
-51.045
-50.885
-50.773
-50.708
-50.695
-50.734
-50.827
-50.976
-51.183
-51.45
-51.776
-52.164
-52.613
-53.123
-53.693
-54.321
-55.007
-55.746
-56.537
-57.375
-58.256
-59.174
-60.126
-61.103
-62.1
-63.109
-64.124
-65.137
-66.139
-67.123
-68.08
-69.003
-69.883
-70.711
-71.48
-72.181
-72.806
-73.346
-73.793
-74.14
-74.379
-74.503
-74.506
-74.381
-74.123
-73.729
-73.194
-72.515
-71.692
-70.722
-69.607
-68.346
-66.944
-65.401
-63.723
-61.914
-59.981
-57.929
-55.766
-53.5
-51.14
-48.695
-46.176
-43.592
-40.956
-38.277
-35.57
-32.845
-30.115
-27.394
-24.696
-22.034
-19.422
-16.873
-14.403
-12.028
-9.762
-7.621
-5.619
-3.772
-2.092
-0.593
0.714
1.819
2.715
3.394
3.849
4.074
4.062
3.807
3.307
2.561
1.567
0.326
-1.157
-2.875
-4.817
-6.972
-9.336
-11.907
-14.684
-17.66
-20.824
-24.162
-27.652
-31.272
-34.991
-38.766
-42.551
-46.302
-49.981
-53.557
-57
-60.272
-63.325
-66.101
-68.543
-70.611
-72.269
-73.494
-74.287
-74.658
-74.651
-74.344
-73.802
-73.099
-72.322
-71.545
-70.877
-70.434
-70.299
-70.616
-71.574
-73.281
-75.789
-78.998
-82.573
-86.211
-89.699
-92.678
-94.732
-95.58
-95.044
-93.418
-91.595
-90.253
-89.686
-90.348
-92.682
-96.749
-102.564
-108.559
-111.107
-108.355
-99.551
-84.892
-67.384
-45.471
-14.212
29.985
92.97
173.603
264.347
358.884
446.169
519.417
576.555
613.702
633.246
636.618
623.365
596.08
553.316
494.407
421.71
336.763
243.352
146.186
48.293
-47.362
-137.607
-219.91
-292.161
-352.415
-399.569
-433.801
-455.619
-465.692
-465.387
-455.978
-438.438
-414.435
-385.884
-353.834
-319.098
-282.687
-245.347
-208.342
-173.583
-141.986
-113.644
-88.954
-68.165
-51.168
-37.865
-27.352
-17.876
-8.489
1.063
11.027
21.306
31.715
42.192
52.129
60.47
66.676
70.608
72.306
72.154
70.49
67.567
63.884
60.05
56.49
53.508
51.273
49.806
49.143
49.321
50.298
52.003
54.361
57.296
60.75
64.667
68.976
73.588
78.402
83.328
88.274
93.154
97.884
102.381
106.585
110.472
114.039
117.299
120.273
122.986
125.472
127.777
129.945
132.016
134.028
136.013
138.007
140.047
142.171
144.419
146.816
149.378
152.107
155.004
158.063
161.275
164.624
168.089
171.649
175.287
178.986
182.734
186.512
190.3
194.076
197.818
201.504
205.115
208.631
212.029
215.292
218.399
221.336
224.085
226.632
228.959
231.051
232.892
234.468
235.766
236.776
237.486
237.887
237.972
237.737
237.178
236.293
235.082
233.544
231.682
229.498
226.998
224.188
221.073
217.661
213.963
209.987
205.747
201.253
196.52
191.561
186.392
181.029
175.489
169.788
163.944
157.974
151.896
145.727
139.486
133.188
126.852
120.492
114.126
107.769
101.435
95.139
88.894
82.714
76.612
70.598
64.685
58.882
53.202
47.652
42.242
36.98
31.874
26.931
22.157
17.558
13.137
8.898
4.845
0.979
-2.7
-6.191
-9.495
-12.614
-15.55
-18.304
-20.881
-23.283
-25.514
-27.578
-29.479
-31.222
-32.811
-34.251
-35.548
-36.707
-37.732
-38.63
-39.406
-40.066
-40.616
-41.062
-41.41
-41.666
-41.837
-41.929
-41.948
-41.901
-41.793
-41.631
-41.42
-41.165
-40.87
-40.541
-40.179
-39.791
-39.378
-38.944
-38.493
-38.028
-37.55
-37.065
-36.573
-36.078
-35.582
-35.087
-34.597
-34.113
-33.639
-33.175
-32.725
-32.292
-31.876
-31.481
-31.108
-30.76
-30.436
-30.139
-29.87
-29.628
-29.417
-29.235
-29.085
-28.968
-28.884
-28.835
-28.822
-28.847
-28.91
-29.012
-29.155
-29.338
-29.561
-29.826
-30.132
-30.479
-30.867
-31.294
-31.76
-32.264
-32.803
-33.376
-33.979
-34.61
-35.267
-35.945
-36.64
-37.351
-38.072
-38.801
-39.533
-40.264
-40.991
-41.708
-42.41
-43.093
-43.752
-44.38
-44.972
-45.523
-46.027
-46.479
-46.874
-47.206
-47.47
-47.662
-47.776
-47.809
-47.755
-47.612
-47.374
-47.041
-46.608
-46.075
-45.44
-44.704
-43.865
-42.925
-41.885
-40.745
-39.509
-38.178
-36.756
-35.246
-33.653
-31.983
-30.241
-28.435
-26.572
-24.66
-22.709
-20.727
-18.725
-16.712
-14.7
-12.699
-10.722
-8.781
-6.887
-5.054
-3.297
-1.631
-0.069
1.372
2.678
3.835
4.829
5.648
6.28
6.717
6.95
6.97
6.769
6.338
5.67
4.76
3.605
2.202
0.551
-1.344
-3.477
-5.837
-8.416
-11.207
-14.209
-17.422
-20.84
-24.454
-28.251
-32.209
-36.306
-40.509
-44.774
-49.056
-53.307
-57.483
-61.55
-65.474
-69.214
-72.721
-75.931
-78.783
-81.229
-83.23
-84.758
-85.817
-86.421
-86.612
-86.466
-86.046
-85.433
-84.724
-84.001
-83.358
-82.89
-82.684
-82.891
-83.734
-85.338
-87.699
-90.679
-93.976
-97.294
-100.399
-102.909
-104.31
-104.291
-102.896
-100.548
-97.984
-95.962
-95.074
-95.851
-98.894
-103.567
-107.726
-109.265
-106.605
-100.765
-94.8
-88.906
-78.895
-56.282
-12.107
56.031
142.318
234.851
321.543
395.419
455.029
502.642
539.686
565.363
577.794
574.661
555.503
521.356
473.366
413.027
342.074
262.295
176.017
86.166
-4.722
-94.209
-179.464
-257.837
-326.973
-384.652
-429.54
-461.631
-481.102
-488.428
-484.664
-470.769
-448.225
-419.369
-386.293
-350.293
-312.758
-275.007
-238.472
-205.287
-176.783
-153.078
-134.079
-119.721
-109.658
-103.491
-100.187
-97.732
-94.777
-90.857
-85.765
-79.619
-72.613
-64.833
-56.869
-49.879
-44.563
-41.15
-39.645
-39.683
-40.941
-43.22
-46.086
-48.942
-51.383
-53.136
-54.055
-54.202
-53.614
-52.294
-50.329
-47.813
-44.832
-41.483
-37.833
-33.931
-29.839
-25.625
-21.359
-17.125
-12.993
-9.032
-5.319
-1.895
1.218
4.014
6.51
8.724
10.68
12.415
13.974
15.4
16.734
18.012
19.264
20.528
21.842
23.247
24.785
26.486
28.369
30.45
32.736
35.228
37.928
40.828
43.912
47.168
50.583
54.145
57.846
61.671
65.603
69.626
73.718
77.86
82.034
86.218
90.39
94.53
98.615
102.624
106.539
110.336
113.995
117.494
120.809
123.92
126.805
129.444
131.817
133.907
135.697
137.173
138.322
139.135
139.603
139.721
139.485
138.894
137.946
136.641
134.982
132.973
130.62
127.932
124.914
121.58
117.942
114.016
109.82
105.371
100.684
95.777
90.664
85.368
79.915
74.33
68.638
62.863
57.03
51.162
45.289
39.433
33.612
27.842
22.133
16.501
10.97
5.559
0.296
-4.81
-9.768
-14.583
-19.275
-23.837
-28.24
-32.47
-36.528
-40.41
-44.142
-47.7
-50.984
-54.027
-56.963
-59.913
-63.049
-66.36
-69.575
-72.599
-75.524
-78.204
-80.37
-81.704
-81.689
-80.333
-78.267
-75.829
-73.11
-70.417
-68.04
-66.431
-66.392
-67.979
-70.451
-73.362
-76.448
-79.4
-82.11
-84.249
-85.131
-84.684
-83.434
-81.727
-79.854
-78.009
-76.13
-74.333
-72.949
-72.026
-71.376
-70.859
-70.317
-69.692
-69.081
-68.499
-67.893
-67.258
-66.611
-65.974
-65.393
-64.875
-64.387
-63.914
-63.442
-62.97
-62.511
-62.072
-61.655
-61.264
-60.898
-60.559
-60.253
-59.982
-59.752
-59.564
-59.421
-59.326
-59.283
-59.296
-59.369
-59.503
-59.695
-59.941
-60.24
-60.587
-60.984
-61.426
-61.912
-62.438
-63.002
-63.599
-64.226
-64.88
-65.556
-66.248
-66.951
-67.659
-68.367
-69.07
-69.761
-70.434
-71.083
-71.699
-72.277
-72.809
-73.289
-73.708
-74.061
-74.341
-74.543
-74.659
-74.687
-74.621
-74.457
-74.192
-73.822
-73.345
-72.757
-72.058
-71.245
-70.317
-69.274
-68.114
-66.84
-65.452
-63.95
-62.338
-60.618
-58.792
-56.866
-54.843
-52.728
-50.528
-48.248
-45.898
-43.484
-41.016
-38.504
-35.956
-33.385
-30.8
-28.213
-25.636
-23.078
-20.554
-18.074
-15.652
-13.3
-11.03
-8.857
-6.795
-4.859
-3.064
-1.424
0.047
1.332
2.42
3.296
3.95
4.373
4.556
4.49
4.167
3.581
2.723
1.59
0.18
-1.51
-3.48
-5.725
-8.238
-11.006
-14.017
-17.264
-20.742
-24.446
-28.366
-32.491
-36.805
-41.285
-45.906
-50.629
-55.405
-60.181
-64.904
-69.526
-74.009
-78.311
-82.39
-86.196
-89.665
-92.741
-95.378
-97.532
-99.17
-100.28
-100.875
-101
-100.74
-100.175
-99.374
-98.425
-97.398
-96.379
-95.473
-94.786
-94.434
-94.576
-95.397
-96.963
-99.258
-102.153
-105.3
-108.313
-110.831
-112.363
-112.36
-110.618
-107.181
-102.258
-96.78
-91.786
-87.734
-85.328
-84.54
-83.731
-82.418
-80.512
-77.967
-76.457
-73.66
-63.502
-39.568
4.765
68.83
146.212
229.6
311.96
391.33
466.255
533.894
589.779
627.736
646.715
647.405
631.976
603.926
561.889
505.204
435.314
353.281
263.041
168.974
73.583
-20.212
-109.289
-191.144
-263.231
-323.304
-370.339
-404.348
-425.455
-434.221
-431.78
-419.367
-398.837
-372.586
-342.64
-310.439
-277.335
-244.635
-213.736
-186.011
-162.017
-141.576
-124.327
-109.93
-98.048
-88.105
-79.005
-69.629
-59.467
-48.488
-36.957
-25.262
-13.673
-2.602
7.17
14.987
20.596
24.001
25.496
25.469
24.174
21.944
19.276
16.576
14.124
12.117
10.598
9.595
9.203
9.454
10.321
11.774
13.737
16.138
18.928
22.038
25.39
28.915
32.53
36.157
39.742
43.223
46.543
49.65
52.472
54.959
57.096
58.882
60.34
61.505
62.406
63.087
63.597
63.986
64.3
64.581
64.859
65.169
65.549
66.039
66.686
67.527
68.588
69.885
71.43
73.229
75.288
77.603
80.164
82.959
85.981
89.221
92.673
96.327
100.169
104.182
108.347
112.645
117.055
121.557
126.128
130.745
135.384
140.023
144.641
149.213
153.716
158.123
162.41
166.551
170.523
174.3
177.859
181.178
184.236
187.012
189.49
191.653
193.485
194.972
196.102
196.866
197.256
197.264
196.886
196.12
194.964
193.42
191.492
189.185
186.505
183.463
180.07
176.338
172.282
167.917
163.262
158.334
153.153
147.739
142.114
136.299
130.316
124.189
117.94
111.592
105.17
98.694
92.189
85.677
79.179
72.716
66.311
59.983
53.751
47.633
41.649
35.813
30.141
24.648
19.346
14.248
9.362
4.698
0.263
-3.937
-7.897
-11.615
-15.088
-18.315
-21.298
-24.036
-26.533
-28.792
-30.817
-32.612
-34.184
-35.539
-36.683
-37.624
-38.37
-38.928
-39.308
-39.517
-39.566
-39.464
-39.221
-38.845
-38.348
-37.738
-37.026
-36.222
-35.334
-34.372
-33.346
-32.263
-31.132
-29.962
-28.759
-27.532
-26.286
-25.03
-23.769
-22.509
-21.259
-20.024
-18.805
-17.607
-16.433
-15.289
-14.181
-13.113
-12.082
-11.095
-10.168
-9.317
-8.555
-7.886
-7.291
-6.769
-6.344
-6.002
-5.696
-5.391
-5.047
-4.66
-4.29
-3.955
-3.589
-3.259
-3.198
-3.453
-3.954
-4.728
-5.52
-6.801
-10.023
-14.859
-19.974
-23.151
-20.239
-11.511
-1.118
6.795
6.34
-2.816
-15.1
-26.209
-31.48
-30.123
-26.295
-22.533
-20.578
-20.939
-21.909
-22.714
-23.408
-23.923
-24.503
-25.214
-25.824
-26.262
-26.572
-26.738
-26.723
-26.535
-26.187
-25.658
-24.971
-24.13
-23.077
-21.814
-20.414
-18.871
-17.159
-15.417
-13.757
-12.055
-10.346
-8.702
-6.722
-5.072
-4.605
-4.219
-3.562
-0.9
6.935
17.994
29.427
38.248
38.861
32.174
23.472
16.326
16.364
24.846
36.425
47.969
56.299
59.231
59.888
60.207
60.776
62.819
65.35
67.512
69.584
71.392
72.98
74.545
75.94
77.04
77.862
78.384
78.561
78.398
77.907
77.085
75.954
74.544
72.848
70.863
68.592
66.028
63.174
60.034
56.616
52.934
49.007
44.865
40.549
36.104
31.577
27.014
22.45
17.925
13.486
9.185
5.096
1.291
-2.172
-5.237
-7.865
-10.044
-11.768
-13.066
-14.003
-14.631
-15.028
-15.295
-15.521
-15.831
-16.363
-17.228
-18.612
-20.759
-23.813
-27.817
-32.63
-37.867
-43.15
-48.181
-52.525
-55.671
-57.283
-57.254
-56.086
-54.858
-54.561
-55.923
-59.486
-65.629
-74.46
-85.533
-97.149
-106.576
-110.934
-107.359
-93.427
-67.073
-26.313
29.073
96.788
173.791
256.996
345.323
439.539
537.127
630.508
707.381
755.263
767.938
747.703
704.08
646.481
580.233
506.86
424.254
331.884
232.667
130.416
29.842
-64.843
-151.41
-228.402
-294.526
-348.946
-391.343
-421.76
-440.774
-449.564
-449.013
-439.787
-423.117
-400.59
-373.729
-343.775
-311.823
-278.824
-246.21
-216.042
-189.628
-167.327
-149.203
-135.217
-125.122
-118.585
-114.577
-111.169
-107.089
-101.895
-95.41
-87.793
-79.286
-70.033
-60.678
-52.425
-45.982
-41.583
-39.234
-38.582
-39.343
-41.366
-44.25
-47.4
-50.412
-53.007
-55.041
-56.542
-57.46
-57.711
-57.296
-56.254
-54.647
-52.548
-50.002
-47.03
-43.677
-39.997
-36.061
-31.951
-27.729
-23.458
-19.203
-15.031
-11.03
-7.263
-3.763
-0.543
2.404
5.096
7.548
9.787
11.853
13.782
15.608
17.366
19.083
20.791
22.528
24.329
26.234
28.274
30.477
32.849
35.379
38.054
40.852
43.756
46.783
49.929
53.156
56.476
59.935
63.55
67.37
71.398
75.501
79.609
83.767
87.849
91.549
94.811
97.688
100.073
102.386
104.211
103.508
100.554
97.181
95.856
102.877
119.075
137.679
152.883
154.775
139.771
118.153
97.595
87.02
91.795
102.938
114.001
120.722
118.923
113.225
107.154
101.157
96.808
92.934
88.341
83.558
78.561
73.385
68.276
63.122
57.814
52.396
46.869
41.188
35.359
29.434
23.448
17.439
11.452
5.496
-0.419
-6.264
-12.02
-17.673
-23.208
-28.612
-33.876
-38.985
-43.926
-48.688
-53.262
-57.639
-61.813
-65.778
-69.527
-73.058
-76.366
-79.45
-82.309
-84.943
-87.355
-89.546
-91.521
-93.285
-94.844
-96.205
-97.376
-98.367
-99.186
-99.844
-100.351
-100.719
-100.959
-101.082
-101.099
-101.022
-100.862
-100.63
-100.336
-99.992
-99.607
-99.191
-98.753
-98.303
-97.849
-97.398
-96.96
-96.54
-96.146
-95.784
-95.458
-95.174
-94.935
-94.745
-94.606
-94.519
-94.485
-94.504
-94.575
-94.697
-94.867
-95.084
-95.343
-95.642
-95.976
-96.34
-96.732
-97.144
-97.574
-98.016
-98.464
-98.915
-99.363
-99.804
-100.234
-100.647
-101.041
-101.41
-101.75
-102.059
-102.333
-102.567
-102.76
-102.909
-103.011
-103.065
-103.069
-103.023
-102.925
-102.776
-102.576
-102.324
-102.023
-101.673
-101.275
-100.83
-100.341
-99.809
-99.237
-98.627
-97.98
-97.299
-96.586
-95.843
-95.072
-94.276
-93.455
-92.612
-91.75
-90.869
-89.972
-89.061
-88.138
-87.204
-86.26
-85.308
-84.348
-83.382
-82.409
-81.43
-80.446
-79.457
-78.463
-77.463
-76.459
-75.45
-74.436
-73.418
-72.396
-71.369
-70.338
-69.305
-68.269
-67.232
-66.196
-65.16
-64.128
-63.1
-62.079
-61.067
-60.065
-59.075
-58.1
-57.144
-56.207
-55.295
-54.409
-53.556
-52.741
-51.972
-51.255
-50.597
-50.008
-49.495
-49.066
-48.728
-48.488
-48.349
-48.317
-48.396
-48.591
-48.91
-49.355
-49.932
-50.643
-51.489
-52.471
-53.588
-54.835
-56.205
-57.691
-59.293
-61.016
-62.867
-64.846
-66.952
-69.179
-71.513
-73.936
-76.424
-78.936
-81.432
-83.867
-86.203
-88.41
-90.461
-92.32
-93.942
-95.268
-96.241
-96.816
-96.963
-96.669
-95.943
-94.811
-93.331
-91.59
-89.678
-87.704
-85.768
-83.954
-82.368
-81.118
-80.32
-80.16
-80.843
-82.464
-85.045
-88.477
-92.433
-96.58
-100.595
-103.987
-106.243
-107.109
-106.458
-104.485
-102.1
-100.259
-99.493
-100.507
-102.936
-105.077
-106.874
-108.173
-109.214
-112.341
-114.522
-109.23
-90.332
-49.964
11.312
84.567
162.692
238.351
309.607
381.836
454.252
521.153
575.432
606.59
611.789
596.346
565.187
524.28
475.722
416.488
346.02
265.121
175.875
82.985
-10.05
-100.729
-186.049
-263.6
-331.514
-387.942
-431.739
-462.946
-481.899
-489.19
-486.194
-474.293
-454.677
-429.139
-399.511
-366.815
-332.056
-296.273
-260.211
-225.131
-192.415
-162.5
-135.484
-111.718
-91.257
-74.041
-59.843
-47.6
-36.204
-25.26
-14.603
-4.151
5.993
15.824
25.137
33.213
39.492
43.821
46.253
47.109
46.762
45.471
43.634
41.808
40.435
39.84
40.189
41.459
43.606
46.6
50.363
54.795
59.781
65.193
70.922
76.873
82.951
89.066
95.1
100.93
106.446
111.536
116.134
120.214
123.758
126.774
129.285
131.319
132.918
134.145
135.053
135.694
136.121
136.375
136.511
136.589
136.665
136.798
137.034
137.399
137.919
138.612
139.488
140.556
141.815
143.255
144.872
146.663
148.621
150.744
153.024
155.449
158.005
160.677
163.449
166.306
169.231
172.207
175.216
178.238
181.257
184.255
187.214
190.114
192.933
195.651
198.246
200.701
202.994
205.106
207.021
208.72
210.191
211.418
212.391
213.098
213.53
213.681
213.544
213.116
212.394
211.379
210.071
208.475
206.594
204.436
202.008
199.322
196.387
193.217
189.826
186.228
182.439
178.477
174.358
170.1
165.72
161.237
156.67
152.036
147.354
142.642
137.919
133.201
128.504
123.847
119.243
114.707
110.254
105.893
101.636
97.499
93.492
89.626
85.909
82.343
78.934
75.696
72.627
69.715
66.946
64.308
61.796
59.435
57.223
55.133
53.177
51.405
49.854
48.567
47.541
46.7
46.014
45.55
45.226
44.759
44.078
43.259
42.256
41.351
40.011
36.522
31.205
25.636
22.352
26.195
36.968
49.773
59.767
60.068
50.094
36.373
23.963
18.278
20.379
25.389
30.278
33.022
32.955
32.063
31.274
30.515
29.861
29.016
27.901
26.786
25.757
24.769
23.832
22.96
22.146
21.378
20.635
19.872
19.077
18.271
17.463
16.652
15.839
15.022
14.202
13.387
12.577
11.769
10.962
10.153
9.341
8.527
7.71
6.887
6.059
5.225
4.382
3.531
2.671
1.801
0.922
0.034
-0.864
-1.771
-2.687
-3.61
-4.539
-5.473
-6.411
-7.351
-8.29
-9.227
-10.158
-11.081
-11.994
-12.892
-13.772
-14.631
-15.464
-16.267
-17.038
-17.771
-18.463
-19.11
-19.708
-20.254
-20.744
-21.175
-21.544
-21.848
-22.085
-22.253
-22.352
-22.38
-22.337
-22.224
-22.04
-21.786
-21.466
-21.079
-20.63
-20.12
-19.555
-18.938
-18.275
-17.571
-16.834
-16.07
-15.286
-14.492
-13.695
-12.903
-12.126
-11.374
-10.655
-9.98
-9.358
-8.801
-8.322
-7.932
-7.644
-7.471
-7.424
-7.515
-7.757
-8.158
-8.725
-9.464
-10.382
-11.484
-12.777
-14.266
-15.956
-17.847
-19.941
-22.237
-24.734
-27.424
-30.296
-33.338
-36.539
-39.893
-43.403
-47.067
-50.879
-54.828
-58.9
-63.079
-67.344
-71.661
-75.986
-80.268
-84.461
-88.524
-92.427
-96.133
-99.601
-102.775
-105.586
-107.979
-109.908
-111.342
-112.262
-112.661
-112.553
-111.984
-111.027
-109.772
-108.327
-106.786
-105.254
-103.852
-102.69
-101.943
-101.833
-102.507
-104.031
-106.316
-109.078
-112.02
-114.87
-117.234
-118.646
-118.743
-117.334
-114.791
-112.009
-109.856
-109.104
-110.316
-113.825
-119.861
-128.223
-137.548
-145.487
-149.409
-146.547
-134.737
-112.384
-77.825
-30.059
30.308
101.266
179.73
261.598
343.034
420.444
489.471
545.916
586.654
609.504
613.501
599.167
567.241
518.648
455.604
381.007
297.83
209.296
118.486
27.871
-59.897
-141.969
-216.211
-281.109
-335.555
-378.944
-411.224
-432.669
-444.115
-446.868
-442.217
-431.157
-414.495
-393.302
-368.509
-340.725
-310.435
-278.112
-244.341
-210.325
-177.723
-147.487
-120.278
-96.837
-77.593
-62.737
-52.234
-45.207
-40.112
-36.041
-32.448
-28.821
-24.993
-20.852
-16.335
-11.922
-8.491
-6.49
-6.028
-7.067
-9.302
-12.464
-16.317
-20.413
-24.176
-27.196
-29.262
-30.305
-30.411
-29.656
-28.082
-25.783
-22.889
-19.523
-15.8
-11.804
-7.58
-3.189
1.267
5.682
9.945
13.948
17.634
20.971
23.939
26.545
28.806
30.748
32.411
33.844
35.09
36.187
37.171
38.072
38.931
39.794
40.71
41.729
42.885
44.203
45.7
47.386
49.264
51.335
53.59
56.016
58.602
61.34
64.219
67.233
70.373
73.623
76.969
80.394
83.88
87.411
90.971
94.542
98.107
101.649
105.152
108.6
111.978
115.268
118.452
121.51
124.425
127.178
129.753
132.132
134.298
136.235
137.931
139.373
140.549
141.448
142.061
142.38
142.398
142.109
141.51
140.597
139.369
137.825
135.967
133.798
131.323
128.547
125.477
122.122
118.492
114.597
110.45
106.064
101.451
96.628
91.61
86.412
81.052
75.547
69.916
64.177
58.348
52.448
46.497
40.513
34.514
28.519
22.546
16.614
10.741
4.944
-0.761
-6.357
-11.827
-17.158
-22.334
-27.344
-32.175
-36.817
-41.259
-45.494
-49.515
-53.315
-56.89
-60.237
-63.353
-66.238
-68.892
-71.316
-73.513
-75.487
-77.243
-78.786
-80.123
-81.26
-82.207
-82.972
-83.565
-83.995
-84.272
-84.409
-84.416
-84.305
-84.088
-83.778
-83.387
-82.927
-82.41
-81.848
-81.254
-80.636
-80.007
-79.376
-78.752
-78.144
-77.559
-77.005
-76.487
-76.011
-75.58
-75.199
-74.871
-74.597
-74.38
-74.219
-74.115
-74.068
-74.077
-74.142
-74.259
-74.429
-74.647
-74.912
-75.221
-75.57
-75.955
-76.372
-76.819
-77.289
-77.778
-78.283
-78.797
-79.318
-79.841
-80.361
-80.874
-81.377
-81.867
-82.339
-82.792
-83.223
-83.63
-84.01
-84.363
-84.686
-84.978
-85.239
-85.466
-85.658
-85.814
-85.933
-86.013
-86.051
-86.047
-85.998
-85.902
-85.756
-85.559
-85.308
-85.002
-84.638
-84.213
-83.727
-83.178
-82.563
-81.882
-81.132
-80.313
-79.423
-78.46
-77.424
-76.314
-75.128
-73.867
-72.531
-71.119
-69.632
-68.072
-66.439
-64.737
-62.967
-61.133
-59.24
-57.291
-55.294
-53.255
-51.181
-49.08
-46.962
-44.835
-42.711
-40.599
-38.513
-36.461
-34.457
-32.513
-30.641
-28.854
-27.164
-25.585
-24.131
-22.815
-21.655
-20.663
-19.855
-19.245
-18.846
-18.672
-18.733
-19.039
-19.597
-20.416
-21.5
-22.856
-24.489
-26.403
-28.599
-31.075
-33.827
-36.85
-40.13
-43.655
-47.407
-51.371
-55.533
-59.885
-64.414
-69.106
-73.943
-78.905
-83.964
-89.088
-94.235
-99.352
-104.39
-109.301
-114.045
-118.586
-122.889
-126.903
-130.571
-133.841
-136.655
-138.982
-140.795
-142.045
-142.72
-142.856
-142.502
-141.755
-140.714
-139.379
-137.752
-135.984
-134.173
-132.432
-130.947
-129.724
-128.786
-128.4
-128.709
-129.449
-130.372
-131.141
-131.082
-129.842
-127.277
-122.772
-116.564
-110.752
-106.136
-102.71
-100.16
-93.901
-82.146
-68.989
-58.404
-59.261
-77.965
-107.969
-139.687
-157.387
-143.437
-95.505
-17.058
82.305
186.708
290.655
389.694
478.326
555.157
612.519
646.257
659.707
654.692
636.472
608.102
566.428
510.809
441.952
361.611
274.633
185.091
95.189
7.026
-77.254
-155.661
-226.043
-286.28
-335.176
-372.556
-398.249
-412.463
-416.033
-409.777
-395.16
-374.471
-349.725
-322.201
-293.164
-263.728
-235.037
-208.7
-185.554
-165.385
-147.86
-132.863
-120.236
-109.831
-100.99
-92.253
-82.732
-72.32
-61.105
-49.328
-37.179
-24.698
-12.323
-1.039
8.522
16.147
21.831
25.877
28.545
29.941
30.324
30.138
29.707
29.246
28.877
28.564
28.285
28.08
27.972
27.977
28.13
28.471
29.019
29.795
30.797
32.006
33.412
34.996
36.724
38.568
40.501
42.506
44.58
46.721
48.906
51.103
53.275
55.372
57.374
59.277
61.084
62.808
64.466
66.073
67.659
69.259
70.898
72.598
74.372
76.232
78.194
80.282
82.52
84.939
87.554
90.373
93.399
96.629
100.053
103.66
107.431
111.34
115.363
119.479
123.669
127.912
132.188
136.471
140.735
144.954
149.101
153.153
157.085
160.873
164.497
167.935
171.169
174.184
176.966
179.497
181.763
183.752
185.45
186.848
187.936
188.708
189.156
189.277
189.07
188.535
187.674
186.49
184.989
183.176
181.06
178.651
175.959
172.997
169.777
166.313
162.621
158.717
154.617
150.339
145.899
141.316
136.608
131.792
126.886
121.908
116.875
111.804
106.712
101.614
96.526
91.464
86.44
81.469
76.564
71.736
66.996
62.355
57.823
53.408
49.117
44.958
40.937
37.057
33.324
29.741
26.309
23.031
19.906
16.935
14.117
11.45
8.932
6.561
4.333
2.244
0.291
-1.53
-3.225
-4.799
-6.256
-7.601
-8.84
-9.977
-11.018
-11.967
-12.831
-13.612
-14.318
-14.953
-15.521
-16.027
-16.477
-16.874
-17.223
-17.527
-17.79
-18.015
-18.206
-18.366
-18.497
-18.602
-18.683
-18.744
-18.786
-18.811
-18.821
-18.818
-18.803
-18.779
-18.746
-18.706
-18.661
-18.613
-18.565
-18.517
-18.474
-18.435
-18.406
-18.386
-18.38
-18.39
-18.418
-18.467
-18.54
-18.64
-18.77
-18.934
-19.133
-19.371
-19.652
-19.976
-20.347
-20.767
-21.238
-21.76
-22.335
-22.965
-23.649
-24.387
-25.179
-26.024
-26.92
-27.866
-28.858
-29.894
-30.969
-32.08
-33.22
-34.385
-35.568
-36.762
-37.961
-39.156
-40.339
-41.501
-42.632
-43.722
-44.762
-45.74
-46.646
-47.47
-48.2
-48.827
-49.339
-49.726
-49.98
-50.089
-50.046
-49.843
-49.471
-48.925
-48.199
-47.287
-46.187
-44.895
-43.41
-41.732
-39.86
-37.796
-35.543
-33.104
-30.484
-27.691
-24.731
-21.614
-18.35
-14.951
-11.43
-7.801
-4.078
-0.277
3.585
7.491
11.422
15.359
19.283
23.172
27.004
30.755
34.403
37.925
41.301
44.507
47.522
50.322
52.886
55.198
57.24
58.997
60.453
61.592
62.401
62.874
63.006
62.795
62.238
61.332
60.075
58.477
56.551
54.312
51.776
48.945
45.825
42.43
38.779
34.892
30.796
26.507
22.05
17.47
12.814
8.141
3.515
-1.026
-5.445
-9.718
-13.826
-17.715
-21.315
-24.562
-27.386
-29.749
-31.671
-33.132
-34.085
-34.59
-34.764
-34.871
-35.345
-36.416
-38.097
-40.359
-43.182
-46.56
-50.45
-54.392
-57.398
-58.729
-58.138
-55.738
-51.918
-46.878
-40.714
-34.132
-28.845
-26.62
-28.598
-35.166
-45.794
-59.907
-77.145
-96.365
-114.904
-129.336
-136.343
-133.107
-118.127
-90.344
-48.404
8.215
78.237
158.939
246.591
336.773
425.714
509.849
584.797
646.369
691.47
718.036
725.204
713.522
683.7
636.59
574.242
499.364
414.739
323.398
228.445
132.411
37.89
-52.141
-135.277
-209.644
-273.44
-325.404
-365.285
-393.127
-409.322
-415.035
-411.408
-399.517
-381.192
-358.43
-332.448
-304.343
-275.208
-245.865
-217.575
-191.678
-168.51
-147.92
-130.052
-114.88
-102.268
-91.922
-82.775
-73.714
-64.394
-54.832
-45.115
-35.472
-26.027
-17.034
-9.264
-3.369
0.448
2.215
2.213
0.83
-1.676
-4.984
-8.574
-12.001
-14.953
-17.193
-18.648
-19.307
-19.138
-18.152
-16.414
-13.986
-10.947
-7.39
-3.389
0.973
5.604
10.425
15.351
20.278
25.112
29.758
34.12
38.146
41.804
45.071
47.95
50.457
52.615
54.466
56.061
57.442
58.653
59.732
60.714
61.642
62.559
63.512
64.546
65.696
66.985
68.435
70.057
71.855
73.834
75.985
78.297
80.76
83.366
86.104
88.968
91.946
95.024
98.185
101.412
104.686
107.988
111.299
114.599
117.867
121.082
124.225
127.278
130.22
133.03
135.686
138.167
140.451
142.52
144.352
145.929
147.233
148.248
148.961
149.358
149.428
149.161
148.55
147.587
146.269
144.592
142.556
140.161
137.41
134.306
130.857
127.07
122.955
118.524
113.79
108.767
103.472
97.922
92.135
86.131
79.929
73.552
67.02
60.356
53.581
46.718
39.789
32.817
25.823
18.83
11.859
4.929
-1.938
-8.724
-15.41
-21.98
-28.415
-34.701
-40.822
-46.767
-52.521
-58.074
-63.416
-68.538
-73.434
-78.097
-82.523
-86.709
-90.652
-94.353
-97.811
-101.029
-104.01
-106.758
-109.277
-111.574
-113.655
-115.527
-117.199
-118.679
-119.976
-121.1
-122.061
-122.868
-123.533
-124.065
-124.474
-124.772
-124.968
-125.072
-125.096
-125.048
-124.938
-124.775
-124.569
-124.328
-124.059
-123.771
-123.471
-123.164
-122.857
-122.555
-122.262
-121.984
-121.723
-121.482
-121.264
-121.07
-120.904
-120.765
-120.654
-120.573
-120.521
-120.497
-120.503
-120.537
-120.598
-120.686
-120.799
-120.938
-121.101
-121.286
-121.493
-121.721
-121.967
-122.232
-122.513
-122.808
-123.117
-123.438
-123.77
-124.111
-124.459
-124.814
-125.174
-125.538
-125.905
-126.273
-126.643
-127.011
-127.377
-127.74
-128.098
-128.45
-128.793
-129.126
-129.448
-129.756
-130.048
-130.321
-130.572
-130.799
-130.998
-131.166
-131.3
-131.396
-131.451
-131.462
-131.426
-131.339
-131.199
-131.003
-130.747
-130.43
-130.048
-129.598
-129.079
-128.488
-127.823
-127.082
-126.264
-125.369
-124.394
-123.341
-122.208
-120.998
-119.709
-118.344
-116.904
-115.392
-113.811
-112.163
-110.454
-108.689
-106.872
-105.009
-103.108
-101.174
-99.215
-97.238
-95.251
-93.261
-91.277
-89.307
-87.359
-85.444
-83.571
-81.751
-79.996
-78.316
-76.723
-75.229
-73.844
-72.579
-71.444
-70.445
-69.591
-68.887
-68.339
-67.954
-67.739
-67.699
-67.837
-68.155
-68.653
-69.332
-70.188
-71.213
-72.397
-73.731
-75.209
-76.832
-78.601
-80.508
-82.544
-84.697
-86.949
-89.278
-91.654
-94.032
-96.367
-98.615
-100.734
-102.697
-104.471
-106.019
-107.297
-108.25
-108.827
-108.991
-108.713
-107.971
-106.773
-105.139
-103.125
-100.82
-98.302
-95.66
-92.995
-90.391
-87.943
-85.752
-83.889
-82.486
-81.734
-81.734
-82.504
-83.963
-85.847
-87.902
-89.918
-91.498
-92.129
-91.469
-89.374
-86.036
-82
-77.851
-74.086
-71.306
-70.339
-70.875
-71.28
-70.035
-65.138
-57.149
-50.098
-44.836
-39.712
-28.748
0.86
56.289
137.963
241.042
349.393
447.968
527.725
581.151
610.572
622.645
620.116
606.823
582.875
543.964
489.366
420.109
338.509
249.664
157.973
66.198
-23.118
-107.438
-184.533
-252.498
-309.632
-355.058
-388.989
-411.737
-423.817
-426.386
-420.492
-407.143
-388.016
-364.8
-338.447
-309.878
-280.054
-249.779
-220.336
-193.04
-168.293
-146.089
-126.668
-110.088
-96.24
-84.788
-74.658
-64.732
-54.605
-44.198
-33.491
-22.627
-11.72
-1.079
8.485
16.288
22.099
25.914
27.954
28.543
27.872
26.223
24.107
21.93
19.952
18.331
17.051
16.056
15.38
15.057
15.079
15.451
16.142
17.12
18.4
19.997
21.936
24.231
26.852
29.756
32.929
36.378
40.141
44.279
48.812
53.715
58.972
64.566
70.498
76.761
83.321
90.107
97.035
104.045
111.108
118.209
125.325
132.409
139.399
146.224
152.848
159.257
165.439
171.38
177.064
182.486
187.67
192.668
197.542
202.328
207.04
211.682
216.256
220.772
225.247
229.69
234.094
238.446
242.735
246.95
251.083
255.113
259.005
262.712
266.183
269.378
272.271
274.838
277.06
278.917
280.392
281.476
282.166
282.459
282.349
281.831
280.9
279.556
277.805
275.657
273.122
270.212
266.938
263.309
259.339
255.042
250.428
245.511
240.302
234.815
229.067
223.078
216.866
210.453
203.858
197.105
190.216
183.214
176.12
168.956
161.744
154.506
147.262
140.033
132.84
125.701
118.636
111.663
104.798
98.057
91.456
85.009
78.728
72.625
66.712
60.998
55.492
50.202
45.135
40.296
35.691
31.324
27.196
23.309
19.662
16.256
13.088
10.154
7.451
4.973
2.715
0.67
-1.168
-2.808
-4.258
-5.527
-6.624
-7.559
-8.341
-8.981
-9.488
-9.875
-10.15
-10.324
-10.408
-10.411
-10.344
-10.217
-10.04
-9.821
-9.572
-9.299
-9.013
-8.722
-8.434
-8.155
-7.894
-7.656
-7.448
-7.274
-7.141
-7.05
-7.007
-7.015
-7.074
-7.188
-7.356
-7.58
-7.859
-8.192
-8.579
-9.016
-9.501
-10.033
-10.608
-11.222
-11.872
-12.554
-13.262
-13.993
-14.74
-15.499
-16.264
-17.029
-17.787
-18.533
-19.261
-19.963
-20.635
-21.27
-21.862
-22.404
-22.892
-23.319
-23.68
-23.97
-24.185
-24.32
-24.371
-24.335
-24.209
-23.992
-23.679
-23.271
-22.765
-22.16
-21.456
-20.653
-19.75
-18.749
-17.651
-16.457
-15.171
-13.795
-12.332
-10.787
-9.162
-7.464
-5.695
-3.862
-1.968
-0.02
1.976
4.014
6.088
8.191
10.315
12.455
14.604
16.754
18.899
21.032
23.147
25.236
27.293
29.309
31.277
33.191
35.041
36.82
38.52
40.134
41.654
43.073
44.384
45.581
46.656
47.603
48.415
49.084
49.6
49.955
50.141
50.149
49.972
49.601
49.031
48.255
47.274
46.083
44.68
43.062
41.224
39.163
36.88
34.373
31.646
28.7
25.539
22.173
18.615
14.88
10.977
6.91
2.676
-1.725
-6.282
-10.985
-15.815
-20.753
-25.777
-30.851
-35.924
-40.948
-45.873
-50.662
-55.287
-59.713
-63.893
-67.77
-71.272
-74.346
-76.955
-79.074
-80.692
-81.806
-82.438
-82.636
-82.48
-82.062
-81.49
-80.864
-80.292
-79.901
-79.8
-80.164
-81.219
-83.073
-85.732
-89.045
-92.664
-96.287
-99.709
-102.592
-104.506
-105.206
-104.646
-103.297
-102.141
-101.917
-103.051
-105.794
-110.211
-116.193
-123.291
-130.009
-133.946
-132.836
-124.641
-107.881
-81.648
-44.999
2.534
60.009
125.27
195.584
267.588
338.16
404.511
463.198
510.808
544.812
563.356
565.378
551.052
520.835
475.285
415.993
345.143
265.029
178.451
88.457
-2.481
-91.909
-177.135
-255.934
-326.277
-386.108
-434.109
-470.033
-493.751
-505.464
-505.89
-495.681
-476.146
-449.584
-418.245
-383.675
-347.436
-310.988
-275.806
-243.899
-216.449
-193.385
-174.338
-159.014
-146.949
-137.686
-130.291
-123.041
-114.856
-105.532
-95.134
-83.98
-72.401
-60.591
-49.148
-39.131
-31.163
-25.397
-21.746
-19.817
-19.298
-20.019
-21.629
-23.609
-25.578
-27.291
-28.631
-29.634
-30.287
-30.497
-30.198
-29.373
-28.042
-26.251
-24.048
-21.454
-18.488
-15.19
-11.614
-7.834
-3.913
0.107
4.197
8.329
12.454
16.51
20.422
24.15
27.68
31.016
34.172
37.163
40.001
42.712
45.333
47.9
50.438
52.963
55.483
58.012
60.572
63.191
65.9
68.719
71.652
74.702
77.867
81.139
84.508
87.957
91.457
94.989
98.533
102.072
105.592
109.075
112.501
115.847
119.092
122.215
125.197
128.018
130.661
133.109
135.347
137.363
139.147
140.692
141.986
143.021
143.79
144.285
144.501
144.435
144.081
143.439
142.507
141.288
139.784
138
135.94
133.612
131.024
128.185
125.103
121.791
118.259
114.521
110.589
106.477
102.202
97.777
93.219
88.543
83.765
78.901
73.967
68.976
63.944
58.885
53.811
48.736
43.673
38.633
33.628
28.668
23.766
18.931
14.171
9.496
4.913
0.43
-3.946
-8.21
-12.356
-16.379
-20.274
-24.039
-27.67
-31.165
-34.522
-37.742
-40.823
-43.767
-46.575
-49.249
-51.792
-54.207
-56.496
-58.663
-60.711
-62.644
-64.466
-66.181
-67.793
-69.307
-70.729
-72.065
-73.321
-74.5
-75.601
-76.627
-77.584
-78.479
-79.319
-80.1
-80.826
-81.521
-82.211
-82.928
-83.682
-84.454
-85.235
-86.046
-86.88
-87.68
-88.365
-88.853
-89.118
-89.228
-89.235
-89.087
-88.854
-88.846
-89.262
-90.135
-91.426
-92.773
-94.868
-99.61
-107.401
-116.978
-123.946
-121.713
-108.409
-87.879
-69.09
-62.723
-72.304
-93.128
-115.359
-129.218
-131.364
-124.916
-116.059
-109.688
-107.186
-107.391
-108.278
-108.898
-109.349
-109.877
-110.659
-111.556
-112.312
-112.874
-113.266
-113.475
-113.504
-113.367
-113.095
-112.752
-112.393
-112.024
-111.639
-111.232
-110.784
-110.292
-109.781
-109.227
-108.575
-107.787
-106.824
-105.682
-104.429
-103.089
-101.593
-100.013
-98.607
-97.434
-96.422
-95.604
-94.715
-94.249
-95.79
-99.03
-102.506
-103.85
-98.564
-86.843
-73.231
-62.223
-60.209
-67.707
-78.656
-88.364
-91.799
-87.997
-81.488
-75.082
-70.663
-68.846
-67.79
-66.643
-65.475
-64.221
-63.16
-62.371
-61.607
-60.793
-59.975
-59.151
-58.314
-57.477
-56.658
-55.886
-55.208
-54.647
-54.188
-53.832
-53.588
-53.46
-53.456
-53.578
-53.825
-54.202
-54.716
-55.372
-56.176
-57.132
-58.243
-59.512
-60.939
-62.521
-64.254
-66.133
-68.153
-70.316
-72.621
-75.065
-77.642
-80.345
-83.159
-86.069
-89.045
-92.043
-95.019
-97.923
-100.705
-103.327
-105.749
-107.926
-109.817
-111.368
-112.526
-113.257
-113.527
-113.311
-112.608
-111.429
-109.816
-107.874
-105.727
-103.493
-101.287
-99.213
-97.352
-95.815
-94.732
-94.178
-94.198
-94.876
-96.312
-98.555
-101.629
-105.417
-109.555
-113.758
-117.898
-121.487
-123.796
-124.472
-123.076
-120.021
-117.349
-115.359
-112.999
-108.893
-98.595
-80.603
-58.459
-35.839
-20.817
-19.146
-26.343
-34.93
-31.278
-0.927
59.054
145.847
250.25
358.889
462.37
552.692
624.3
673.641
700.386
708.65
701.733
683.623
655.102
612.144
553.573
479.965
393.509
299.475
202.221
104.556
9.479
-80.094
-161.632
-232.931
-292.324
-338.956
-372.976
-394.926
-405.642
-406.625
-399.23
-384.416
-363.67
-338.699
-310.468
-279.727
-247.303
-213.709
-180.173
-148.706
-120.195
-94.889
-73.376
-55.715
-42.858
-35.778
-32.507
-31.026
-28.117
-20.704
-11.347
-1.906
4.708
4.591
0.929
-4.143
-8.985
-10.209
-10.175
-10.995
-12.87
-17.061
-22.21
-26.55
-29.885
-31.848
-32.436
-31.987
-30.429
-27.685
-23.905
-19.251
-13.854
-7.866
-1.416
5.414
12.496
19.665
26.794
33.743
40.403
46.721
52.664
58.213
63.367
68.139
72.551
76.643
80.458
84.03
87.394
90.577
93.615
96.553
99.436
102.316
105.227
108.187
111.208
114.294
117.447
120.664
123.933
127.235
130.555
133.882
137.206
140.519
143.809
147.06
150.257
153.383
156.422
159.359
162.18
164.867
167.407
169.784
171.986
174.001
175.814
177.412
178.78
179.904
180.769
181.363
181.675
181.693
181.408
180.812
179.901
178.67
177.117
175.242
173.045
170.529
167.698
164.557
161.115
157.379
153.362
149.073
144.529
139.742
134.73
129.512
124.105
118.531
112.812
106.971
101.03
95.015
88.949
82.858
76.768
70.702
64.688
58.747
52.906
47.187
41.612
36.203
30.98
25.961
21.164
16.605
12.298
8.256
4.492
1.014
-2.168
-5.047
-7.617
-9.875
-11.818
-13.446
-14.758
-15.758
-16.449
-16.838
-16.932
-16.739
-16.271
-15.539
-14.556
-13.338
-11.899
-10.256
-8.427
-6.43
-4.283
-2.005
0.384
2.865
5.418
8.025
10.666
13.323
15.976
18.609
21.203
23.742
26.21
28.59
30.867
33.027
35.057
36.943
38.674
40.238
41.627
42.831
43.843
44.656
45.266
45.669
45.863
45.846
45.62
45.186
44.547
43.707
42.671
41.445
40.038
38.456
36.709
34.808
32.762
30.583
28.282
25.874
23.37
20.783
18.129
15.421
12.674
9.903
7.124
4.35
1.6
-1.113
-3.771
-6.36
-8.864
-11.268
-13.557
-15.718
-17.737
-19.601
-21.299
-22.82
-24.153
-25.29
-26.222
-26.941
-27.443
-27.722
-27.773
-27.595
-27.185
-26.544
-25.672
-24.571
-23.244
-21.694
-19.927
-17.948
-15.764
-13.384
-10.815
-8.068
-5.155
-2.086
1.125
4.465
7.919
11.472
15.11
18.817
22.577
26.374
30.193
34.016
37.829
41.614
45.356
49.039
52.648
56.169
59.586
62.888
66.062
69.095
71.979
74.701
77.253
79.626
81.812
83.803
85.594
87.177
88.549
89.704
90.642
91.358
91.851
92.121
92.166
91.987
91.583
90.955
90.103
89.027
87.727
86.204
84.46
82.496
80.313
77.914
75.303
72.484
69.461
66.238
62.82
59.21
55.412
51.429
47.263
42.92
38.404
33.722
28.886
23.909
18.802
13.576
8.238
2.794
-2.745
-8.37
-14.069
-19.828
-25.626
-31.429
-37.192
-42.869
-48.416
-53.791
-58.966
-63.907
-68.581
-72.954
-76.981
-80.624
-83.844
-86.606
-88.881
-90.649
-91.913
-92.731
-93.195
-93.399
-93.439
-93.37
-93.228
-93.091
-93.036
-93.121
-93.44
-94.073
-95.108
-96.769
-99.247
-102.536
-106.457
-110.701
-114.813
-118.221
-120.464
-120.933
-118.823
-114.827
-110.121
-104.741
-99.96
-94.482
-85.366
-75.09
-65.403
-60.042
-66.069
-81.553
-101.235
-117.163
-115.338
-88.165
-33.365
47.232
144.302
249.515
354.731
451.558
535.619
601.559
647.148
675.335
687.503
685.98
671.236
639.13
587.648
517.154
429.927
331.017
225.426
117.225
10.112
-92.036
-185.26
-266.234
-332.398
-382.4
-416.443
-435.542
-441.208
-435.882
-422.55
-404.305
-384.109
-364.144
-345.359
-328.029
-312.219
-297.352
-282.148
-265.118
-244.835
-221.223
-196.235
-170.825
-144.843
-117.212
-85.167
-50.684
-19.448
3.516
12.269
7.391
-4.262
-17.4
-26.192
-28.544
-27.977
-26.643
-26.31
-28.112
-30.596
-32.957
-35.297
-37.571
-39.993
-42.558
-44.796
-46.196
-46.548
-45.799
-43.948
-41.115
-37.432
-33.005
-28.017
-22.678
-17.116
-11.43
-5.736
-0.104
5.37
10.562
15.402
19.846
23.86
27.451
30.637
33.443
35.914
38.108
40.074
41.857
43.499
45.03
46.491
47.923
49.372
50.889
52.515
54.274
56.19
58.274
60.53
62.958
65.551
68.291
71.167
74.169
77.287
80.513
83.837
87.242
90.714
94.235
97.786
101.35
104.908
108.441
111.93
115.358
118.708
121.962
125.105
128.116
130.976
133.667
136.169
138.465
140.536
142.367
143.94
145.244
146.265
146.993
147.419
147.534
147.333
146.811
145.965
144.794
143.299
141.481
139.345
136.895
134.14
131.086
127.743
124.123
120.238
116.102
111.728
107.134
102.334
97.347
92.192
86.887
81.448
75.891
70.234
64.493
58.692
52.851
46.983
41.109
35.262
29.464
23.745
18.131
12.608
7.173
1.849
-3.381
-8.555
-13.675
-18.773
-23.87
-28.874
-33.709
-38.395
-42.811
-46.712
-50.115
-53.102
-55.568
-57.861
-59.757
-59.795
-58.245
-56.516
-56.581
-63.327
-78.087
-96.084
-111.616
-116.019
-104.293
-82.878
-60.784
-47.519
-50.555
-65.459
-83.435
-97.944
-103.165
-100.389
-95.063
-89.852
-86.844
-86.194
-85.925
-85.519
-85.089
-84.55
-84.212
-84.134
-84.057
-83.911
-83.72
-83.439
-83.049
-82.584
-82.063
-81.512
-80.98
-80.479
-79.991
-79.521
-79.074
-78.65
-78.252
-77.88
-77.53
-77.205
-76.907
-76.641
-76.407
-76.206
-76.04
-75.909
-75.814
-75.755
-75.733
-75.748
-75.8
-75.888
-76.013
-76.172
-76.366
-76.592
-76.849
-77.136
-77.449
-77.787
-78.147
-78.526
-78.922
-79.331
-79.75
-80.176
-80.604
-81.032
-81.455
-81.869
-82.271
-82.655
-83.018
-83.356
-83.663
-83.936
-84.17
-84.361
-84.504
-84.595
-84.63
-84.605
-84.516
-84.361
-84.136
-83.839
-83.467
-83.018
-82.491
-81.884
-81.196
-80.426
-79.574
-78.641
-77.626
-76.53
-75.356
-74.104
-72.777
-71.377
-69.908
-68.372
-66.773
-65.116
-63.404
-61.642
-59.837
-57.995
-56.121
-54.224
-52.31
-50.386
-48.461
-46.543
-44.638
-42.756
-40.905
-39.093
-37.328
-35.62
-33.978
-32.413
-30.934
-29.554
-28.282
-27.127
-26.1
-25.215
-24.482
-23.91
-23.506
-23.277
-23.23
-23.372
-23.712
-24.252
-24.995
-25.94
-27.087
-28.438
-29.993
-31.75
-33.697
-35.818
-38.099
-40.533
-43.12
-45.858
-48.738
-51.741
-54.853
-58.059
-61.345
-64.691
-68.055
-71.389
-74.644
-77.769
-80.742
-83.55
-86.172
-88.582
-90.716
-92.492
-93.858
-94.792
-95.28
-95.343
-94.968
-94.09
-92.802
-91.323
-89.87
-88.702
-87.895
-87.28
-86.852
-86.848
-87.342
-88.212
-89.193
-89.691
-89.444
-88.805
-87.923
-86.564
-84.573
-81.914
-78.819
-76.253
-75.057
-75.221
-76.777
-79.995
-84.9
-91.447
-99.337
-107.137
-112.864
-115.12
-112.2
-102.025
-83.244
-54.39
-14.585
34.843
92.891
159.203
233.379
316.108
404.09
489.609
564.033
617.463
646.46
654.224
643.812
619.896
583.393
530.781
461.763
377.413
280.324
176.28
70.106
-34.764
-134.388
-225.447
-305.542
-372.304
-424.15
-461.196
-484.399
-494.857
-494.388
-484.922
-467.926
-445.46
-419.808
-392.122
-362.946
-332.943
-302.455
-272.197
-243.609
-217.221
-192.83
-170.733
-151.286
-134.606
-120.911
-109.68
-99.501
-89.708
-80.254
-70.984
-61.993
-53.367
-44.999
-37.307
-31.194
-27.084
-25.045
-24.998
-26.559
-29.425
-33.415
-38.109
-42.952
-47.539
-51.571
-54.87
-57.404
-59.123
-59.974
-59.977
-59.193
-57.698
-55.573
-52.889
-49.71
-46.109
-42.172
-37.995
-33.667
-29.276
-24.91
-20.654
-16.595
-12.797
-9.29
-6.082
-3.166
-0.521
1.878
4.066
6.091
8
9.833
11.628
13.418
15.24
17.134
19.139
21.3
23.645
26.193
28.952
31.923
35.105
38.489
42.06
45.798
49.679
53.688
57.807
62.022
66.313
70.659
75.037
79.424
83.796
88.132
92.41
96.605
100.698
104.667
108.493
112.158
115.643
118.93
121.998
124.83
127.407
129.714
131.735
133.457
134.868
135.957
136.719
137.147
137.239
136.992
136.409
135.49
134.242
132.669
130.782
128.588
126.099
123.329
120.291
117.002
113.478
109.737
105.798
101.682
97.409
93
88.479
83.866
79.186
74.461
69.714
64.968
60.246
55.571
50.963
46.445
42.037
37.758
33.626
29.658
25.871
22.277
18.889
15.719
12.775
10.066
7.599
5.378
3.406
1.685
0.216
-1.003
-1.974
-2.702
-3.192
-3.451
-3.487
-3.31
-2.93
-2.359
-1.608
-0.693
0.374
1.576
2.898
4.323
5.834
7.414
9.045
10.71
12.391
14.071
15.733
17.36
18.937
20.448
21.88
23.218
24.451
25.566
26.555
27.406
28.113
28.667
29.064
29.299
29.367
29.268
29
28.563
27.958
27.188
26.256
25.166
23.925
22.539
21.016
19.364
17.594
15.715
13.739
11.677
9.543
7.35
5.109
2.835
0.541
-1.76
-4.055
-6.33
-8.574
-10.775
-12.921
-15.001
-17.005
-18.925
-20.75
-22.473
-24.087
-25.586
-26.963
-28.214
-29.336
-30.324
-31.176
-31.891
-32.469
-32.909
-33.212
-33.381
-33.419
-33.328
-33.115
-32.783
-32.339
-31.789
-31.141
-30.401
-29.578
-28.68
-27.714
-26.688
-25.611
-24.49
-23.332
-22.144
-20.933
-19.704
-18.465
-17.218
-15.971
-14.727
-13.49
-12.264
-11.052
-9.856
-8.678
-7.519
-6.381
-5.263
-4.164
-3.083
-2.018
-0.968
0.07
1.1
2.126
3.152
4.183
5.224
6.28
7.356
8.459
9.593
10.763
11.973
13.227
14.528
15.88
17.284
18.742
20.255
21.824
23.45
25.13
26.865
28.652
30.488
32.368
34.289
36.245
38.229
40.233
42.247
44.257
46.256
48.236
50.178
52.063
53.878
55.603
57.235
58.777
60.204
61.489
62.652
63.703
64.65
65.511
66.255
66.831
67.267
67.608
67.734
67.496
66.964
66.116
64.924
63.691
61.606
57.888
53.683
49.362
47.05
49.285
53.351
57.447
58.857
53.849
45.788
37.548
31.129
29.779
31.254
33.266
35.313
35.982
36.074
36.585
37.228
38.031
38.809
39.251
39.399
39.259
38.7
37.554
35.631
32.804
29.026
24.401
19.198
13.679
8.094
2.818
-1.708
-5.129
-7.222
-8.26
-8.996
-10.115
-12.144
-15.398
-19.959
-25.828
-32.78
-39.689
-44.59
-45.355
-39.831
-26.448
-4.267
27.681
70.109
122.639
183.829
251.446
322.354
393.583
462.538
525.996
580.411
622.701
650.213
661.025
654.646
630.976
589.964
532.691
461.265
378.322
287.277
191.951
95.521
1.164
-87.678
-168.204
-238.361
-296.69
-342.608
-376.475
-398.917
-410.985
-414.171
-409.925
-399.426
-383.621
-363.583
-340.086
-313.589
-284.521
-253.383
-220.835
-188.135
-156.99
-128.365
-102.944
-81.503
-64.433
-51.813
-43.469
-38.345
-34.756
-31.722
-28.662
-25.069
-20.84
-15.941
-10.416
-4.883
-0.323
2.737
4.122
3.875
2.321
-0.262
-3.612
-7.265
-10.646
-13.335
-15.11
-15.912
-15.832
-14.95
-13.311
-10.997
-8.12
-4.79
-1.102
2.858
7.043
11.398
15.824
20.22
24.478
28.482
32.17
35.514
38.494
41.117
43.401
45.366
47.047
48.494
49.749
50.851
51.838
52.739
53.597
54.46
55.378
56.406
57.582
58.93
60.468
62.208
64.155
66.31
68.666
71.21
73.93
76.818
79.864
83.062
86.4
89.863
93.433
97.092
100.821
104.601
108.413
112.235
116.049
119.833
123.569
127.236
130.816
134.286
137.624
140.806
143.811
146.617
149.203
151.55
153.637
155.448
156.966
158.178
159.073
159.636
159.858
159.729
159.249
158.414
157.224
155.676
153.769
151.505
148.9
145.956
142.662
139.018
135.017
130.673
126.026
121.099
115.88
110.406
104.76
99.007
93.223
87.436
81.591
75.688
69.833
63.966
57.812
51.326
44.62
37.677
30.834
23.537
13.943
2.432
-9.25
-18.304
-19.419
-12.795
-3.76
2.413
-1.775
-16.939
-35.939
-53.242
-62.925
-63.83
-61.28
-58.579
-57.942
-60.09
-62.862
-65.25
-67.338
-69.054
-70.731
-72.465
-73.972
-75.17
-76.121
-76.828
-77.288
-77.525
-77.564
-77.442
-77.224
-76.938
-76.573
-76.134
-75.637
-75.093
-74.515
-73.914
-73.293
-72.661
-72.03
-71.41
-70.81
-70.238
-69.699
-69.199
-68.743
-68.334
-67.977
-67.672
-67.423
-67.229
-67.09
-67.007
-66.978
-67.003
-67.08
-67.208
-67.384
-67.607
-67.873
-68.18
-68.526
-68.906
-69.319
-69.762
-70.231
-70.724
-71.238
-71.773
-72.324
-72.891
-73.472
-74.065
-74.669
-75.284
-75.908
-76.542
-77.185
-77.838
-78.502
-79.177
-79.866
-80.569
-81.287
-82.022
-82.773
-83.543
-84.332
-85.138
-85.964
-86.808
-87.671
-88.551
-89.448
-90.361
-91.287
-92.225
-93.172
-94.126
-95.084
-96.041
-96.994
-97.939
-98.872
-99.787
-100.68
-101.545
-102.376
-103.168
-103.914
-104.607
-105.241
-105.809
-106.304
-106.72
-107.05
-107.289
-107.43
-107.469
-107.401
-107.221
-106.926
-106.512
-105.976
-105.316
-104.53
-103.618
-102.58
-101.416
-100.127
-98.717
-97.187
-95.542
-93.785
-91.921
-89.955
-87.894
-85.744
-83.514
-81.212
-78.847
-76.43
-73.972
-71.483
-68.975
-66.46
-63.95
-61.457
-58.994
-56.574
-54.211
-51.917
-49.709
-47.603
-45.613
-43.755
-42.041
-40.487
-39.106
-37.913
-36.923
-36.144
-35.585
-35.256
-35.166
-35.324
-35.738
-36.409
-37.336
-38.518
-39.954
-41.643
-43.584
-45.766
-48.173
-50.79
-53.601
-56.603
-59.789
-63.145
-66.652
-70.287
-74.026
-77.85
-81.738
-85.646
-89.53
-93.335
-97.003
-100.502
-103.801
-106.881
-109.729
-112.303
-114.545
-116.405
-117.834
-118.809
-119.357
-119.476
-119.136
-118.402
-117.396
-116.377
-115.754
-115.753
-116.391
-117.634
-119.449
-121.816
-124.674
-127.565
-129.553
-129.93
-128.451
-125.241
-120.664
-114.884
-108.01
-100.699
-94.429
-90.757
-90.647
-94.304
-101.261
-111.077
-123.372
-137.205
-150.481
-160.305
-163.987
-159.346
-144.91
-119.617
-82.309
-32.198
30.032
102.214
181.734
265.173
348.896
429.91
503.534
564.683
610.819
639.482
650.562
645.958
623.44
581.475
518.972
435.118
336.139
228.759
119.292
14.188
-85.394
-177.659
-259.843
-330.69
-387.436
-428.881
-456.05
-469.373
-469.838
-459.458
-440.208
-414.577
-385.308
-354.018
-321.737
-289.8
-259.638
-232.336
-208.428
-187.685
-169.409
-153.22
-138.93
-126.002
-113.468
-100.396
-86.332
-71.34
-55.89
-40.47
-25.434
-11.308
1.116
11.168
18.517
23.148
25.356
25.538
24.018
21.189
17.554
13.547
9.508
5.686
2.204
-0.845
-3.336
-5.161
-6.268
-6.629
-6.248
-5.17
-3.429
-1.086
1.779
5.088
8.761
12.71
16.85
21.11
25.406
29.667
33.823
37.771
41.441
44.793
47.811
50.518
52.952
55.13
57.074
58.864
60.567
62.244
63.96
65.721
67.517
69.413
71.494
73.694
75.913
78.253
80.721
83.297
86.273
88.862
90.286
91.622
93.186
96.977
105.392
115.753
126.27
134.279
136.123
134.996
133.604
133.793
138.629
145.882
153.295
160.348
165.659
170.001
174.369
178.547
182.644
186.567
190.088
193.322
196.353
199.127
201.617
203.816
205.708
207.271
208.487
209.327
209.757
209.782
209.404
208.617
207.42
205.815
203.802
201.388
198.583
195.396
191.835
187.912
183.642
179.041
174.125
168.915
163.43
157.692
151.724
145.549
139.193
132.682
126.04
119.296
112.477
105.609
98.719
91.835
84.983
78.188
71.475
64.868
58.391
52.064
45.909
39.944
34.185
28.65
23.351
18.3
13.509
8.985
4.735
0.765
-2.923
-6.327
-9.447
-12.285
-14.844
-17.13
-19.149
-20.91
-22.42
-23.692
-24.737
-25.566
-26.194
-26.634
-26.902
-27.011
-26.979
-26.819
-26.549
-26.183
-25.738
-25.228
-24.667
-24.07
-23.449
-22.816
-22.182
-21.557
-20.951
-20.371
-19.825
-19.318
-18.856
-18.443
-18.081
-17.774
-17.521
-17.324
-17.18
-17.09
-17.05
-17.059
-17.112
-17.207
-17.338
-17.503
-17.695
-17.911
-18.145
-18.391
-18.645
-18.902
-19.156
-19.402
-19.637
-19.857
-20.058
-20.237
-20.394
-20.525
-20.631
-20.711
-20.765
-20.793
-20.797
-20.778
-20.738
-20.681
-20.608
-20.522
-20.428
-20.329
-20.228
-20.128
-20.034
-19.948
-19.873
-19.813
-19.769
-19.744
-19.74
-19.76
-19.804
-19.874
-19.972
-20.095
-20.246
-20.421
-20.62
-20.841
-21.079
-21.331
-21.594
-21.863
-22.131
-22.395
-22.648
-22.884
-23.096
-23.277
-23.42
-23.518
-23.564
-23.549
-23.468
-23.312
-23.075
-22.752
-22.336
-21.821
-21.204
-20.48
-19.645
-18.696
-17.63
-16.444
-15.138
-13.711
-12.163
-10.497
-8.713
-6.816
-4.811
-2.701
-0.493
1.805
4.185
6.64
9.159
11.733
14.35
16.997
19.662
22.333
24.994
27.63
30.224
32.759
35.217
37.58
39.83
41.949
43.919
45.724
47.35
48.782
50.009
51.016
51.791
52.321
52.592
52.597
52.327
51.775
50.936
49.808
48.396
46.707
44.748
42.521
40.021
37.245
34.195
30.877
27.303
23.492
19.464
15.254
10.911
6.487
2.034
-2.402
-6.783
-11.072
-15.223
-19.182
-22.877
-26.243
-29.229
-31.785
-33.878
-35.504
-36.67
-37.422
-37.846
-38.008
-37.996
-37.917
-37.857
-37.925
-38.251
-38.935
-40.152
-42.142
-45.027
-48.803
-53.334
-58.275
-63.244
-67.916
-71.812
-74.337
-75.157
-74.313
-72.261
-69.838
-68.074
-67.84
-69.711
-74.379
-81.309
-88.255
-93.751
-96.344
-95.243
-92.006
-84.066
-65.18
-29.757
28.616
108.989
202.582
300.944
394.798
479.056
553.852
617.653
668.605
704.529
721.926
719.407
697.429
656.701
599.035
526.85
442.67
349.482
250.733
149.878
50.139
-45.188
-133.344
-212.245
-280.114
-335.616
-378.199
-408.216
-426.43
-434.07
-432.285
-421.877
-404.092
-380.713
-353.434
-323.404
-291.673
-259.154
-227.082
-197.379
-171.274
-148.997
-130.499
-115.689
-104.291
-96.011
-89.986
-84.515
-78.493
-71.606
-63.788
-55.274
-46.344
-37.134
-28.185
-20.513
-14.693
-10.867
-8.97
-8.618
-9.5
-11.444
-14.072
-16.85
-19.409
-21.495
-22.976
-23.879
-24.167
-23.776
-22.722
-21.056
-18.856
-16.21
-13.179
-9.806
-6.144
-2.253
1.794
5.917
10.057
14.154
18.149
21.983
25.582
28.89
31.886
34.567
36.95
39.06
40.921
42.564
44.033
45.366
46.601
47.773
48.908
50.035
51.188
52.402
53.722
55.179
56.793
58.578
60.538
62.675
64.988
67.47
70.105
72.876
75.772
78.78
81.889
85.086
88.352
91.668
95.011
98.361
101.695
104.992
108.23
111.387
114.441
117.372
120.163
122.794
125.245
127.495
129.525
131.315
132.848
134.106
135.073
135.732
136.071
136.079
135.746
135.064
134.027
132.63
130.871
128.75
126.268
123.428
120.235
116.696
112.82
108.617
104.101
99.284
94.182
88.812
83.192
77.34
71.276
65.021
58.595
52.019
45.314
38.504
31.609
24.652
17.656
10.642
3.632
-3.351
-10.288
-17.157
-23.94
-30.616
-37.169
-43.581
-49.836
-55.919
-61.816
-67.514
-73.002
-78.271
-83.311
-88.115
-92.679
-96.996
-101.065
-104.884
-108.451
-111.767
-114.833
-117.653
-120.228
-122.563
-124.663
-126.533
-128.18
-129.611
-130.834
-131.857
-132.688
-133.336
-133.811
-134.124
-134.283
-134.299
-134.182
-133.944
-133.595
-133.145
-132.604
-131.982
-131.289
-130.535
-129.728
-128.876
-127.988
-127.072
-126.137
-125.189
-124.232
-123.269
-122.305
-121.345
-120.398
-119.467
-118.547
-117.647
-116.786
-115.98
-115.247
-114.588
-113.98
-113.424
-112.947
-112.53
-112.118
-111.669
-111.135
-110.513
-109.88
-109.249
-108.542
-107.852
-107.456
-107.394
-107.593
-108.088
-108.554
-109.634
-113.048
-118.266
-123.769
-126.808
-122.441
-111.395
-98.514
-88.776
-89.228
-99.729
-113.731
-126.209
-131.559
-129.261
-124.239
-119.365
-116.771
-116.895
-117.706
-118.388
-118.978
-119.416
-120.012
-120.809
-121.532
-122.107
-122.574
-122.917
-123.123
-123.196
-123.145
-122.993
-122.783
-122.523
-122.189
-121.774
-121.279
-120.704
-120.049
-119.311
-118.48
-117.556
-116.544
-115.449
-114.274
-113.014
-111.676
-110.278
-108.836
-107.366
-105.875
-104.345
-102.779
-101.207
-99.616
-97.963
-96.217
-94.342
-92.341
-90.287
-88.205
-86.033
-83.854
-81.922
-80.292
-78.901
-77.79
-76.693
-76.141
-77.674
-80.913
-84.483
-86.026
-81.175
-70.362
-57.944
-48.315
-47.706
-56.304
-68.27
-79.104
-83.882
-81.915
-77.584
-73.526
-71.601
-72.296
-73.811
-75.368
-77.011
-78.677
-80.624
-82.896
-85.235
-87.559
-89.904
-92.257
-94.596
-96.917
-99.211
-101.476
-103.728
-105.953
-108.09
-110.095
-111.927
-113.547
-114.925
-116.029
-116.827
-117.283
-117.354
-116.997
-116.162
-114.809
-112.922
-110.506
-107.583
-104.221
-100.448
-96.276
-91.862
-87.346
-82.874
-78.653
-74.691
-70.94
-67.621
-65.001
-63.009
-61.556
-60.26
-58.434
-56.012
-53.072
-49.237
-44.163
-37.844
-30.365
-22.67
-16.336
-11.897
-9.562
-9.656
-12.125
-16.849
-23.409
-29.846
-33.235
-31.365
-22.185
-4.162
23.596
62.439
113.118
174.514
244.334
319.637
396.763
472.627
544.162
606.97
656.993
691.18
707.09
703.917
681.999
641.364
582.967
509.552
424.263
330.797
233.32
135.01
38.875
-51.543
-133.502
-205.246
-265.577
-314.172
-351.181
-376.78
-391.873
-397.889
-396.105
-387.637
-373.14
-353.338
-329.46
-302.478
-272.949
-241.523
-208.838
-175.954
-144.726
-116.319
-91.003
-69.202
-51.192
-36.936
-26.457
-19.015
-12.996
-7.465
-2.109
3.38
8.998
14.694
20.565
26.189
30.679
33.586
34.827
34.5
32.983
30.586
27.533
24.235
21.246
18.979
17.671
17.399
18.081
19.643
22.045
25.213
29.034
33.387
38.158
43.247
48.59
54.126
59.748
65.349
70.812
76.015
80.886
85.393
89.514
93.249
96.618
99.638
102.347
104.798
107.039
109.112
111.058
112.91
114.71
116.509
118.359
120.318
122.423
124.7
127.168
129.837
132.714
135.799
139.085
142.554
146.193
149.994
153.944
158.034
162.252
166.579
170.996
175.481
180.013
184.571
189.133
193.676
198.177
202.613
206.963
211.206
215.32
219.281
223.066
226.651
230.013
233.129
235.978
238.538
240.791
242.719
244.306
245.539
246.407
246.9
247.009
246.728
246.054
244.984
243.518
241.657
239.406
236.77
233.756
230.374
226.636
222.555
218.147
213.427
208.414
203.126
197.585
191.811
185.825
179.651
173.312
166.831
160.232
153.539
146.776
139.967
133.137
126.307
119.5
112.738
106.04
99.428
92.919
86.531
80.281
74.184
68.256
62.509
56.955
51.604
46.466
41.548
36.856
32.395
28.168
24.178
20.425
16.909
13.629
10.582
7.765
5.174
2.802
0.642
-1.313
-3.067
-4.628
-6.002
-7.199
-8.232
-9.109
-9.831
-10.413
-10.879
-11.25
-11.548
-11.785
-11.945
-12.036
-12.091
-12.1
-12.019
-11.816
-11.454
-10.934
-10.331
-9.667
-8.876
-8.04
-7.42
-7.066
-6.91
-6.989
-7.022
-7.551
-10.166
-14.471
-19.033
-21.403
-17.052
-6.404
6.03
15.706
16.176
7.233
-5.071
-16.067
-20.657
-18.107
-12.957
-7.94
-4.983
-4.599
-4.931
-5.176
-5.385
-5.501
-5.806
-6.36
-6.914
-7.397
-7.85
-8.266
-8.633
-8.961
-9.26
-9.553
-9.882
-10.259
-10.662
-11.084
-11.525
-11.983
-12.458
-12.944
-13.435
-13.925
-14.414
-14.9
-15.38
-15.85
-16.307
-16.744
-17.16
-17.548
-17.904
-18.223
-18.5
-18.732
-18.913
-19.039
-19.105
-19.109
-19.045
-18.91
-18.7
-18.412
-18.043
-17.588
-17.048
-16.419
-15.701
-14.896
-14.002
-13.023
-11.959
-10.813
-9.59
-8.291
-6.922
-5.487
-3.992
-2.443
-0.847
0.788
2.454
4.14
5.839
7.538
9.229
10.902
12.545
14.148
15.701
17.193
18.612
19.945
21.181
22.305
23.301
24.158
24.86
25.395
25.75
25.914
25.877
25.635
25.18
24.508
23.613
22.489
21.132
19.54
17.713
15.65
13.356
10.832
8.091
5.146
2.009
-1.31
-4.808
-8.489
-12.345
-16.365
-20.543
-24.86
-29.278
-33.768
-38.277
-42.742
-47.139
-51.436
-55.574
-59.554
-63.391
-67.056
-70.531
-73.786
-76.674
-79.069
-80.976
-82.26
-82.634
-82.123
-80.895
-78.913
-76.638
-74.007
-69.459
-63.268
-57.25
-53.732
-58.4
-73.409
-93.514
-112.042
-119.09
-108.154
-85.83
-62.585
-48.877
-53.051
-70.522
-90.807
-106.648
-112.009
-108.164
-101.961
-97.12
-96.418
-99.927
-103.578
-104.518
-101.496
-95.878
-91.276
-88.479
-83.207
-65.668
-25.584
40.503
127.521
223.37
315.457
396.769
465.857
524.306
572.652
609.234
630.896
634.258
618.15
582.469
527.847
456.734
371.858
276.082
173.567
68.533
-35.33
-133.527
-222.834
-302.144
-369
-421.124
-456.549
-471.97
-469.675
-456.465
-439.269
-426.52
-419.769
-414.057
-405.193
-388.097
-362.086
-331.362
-298.472
-265.756
-234.575
-204.27
-175.225
-148.55
-125.108
-105.764
-90.791
-79.575
-70.989
-63.976
-57.756
-51.743
-45.591
-39.195
-32.583
-26.12
-20.566
-16.498
-14.154
-13.581
-14.596
-16.908
-20.243
-24.207
-28.24
-31.91
-34.937
-37.125
-38.445
-38.912
-38.516
-37.312
-35.395
-32.837
-29.72
-26.127
-22.106
-17.729
-13.089
-8.265
-3.361
1.523
6.295
10.859
15.15
19.134
22.793
26.143
29.204
31.996
34.563
36.947
39.164
41.261
43.282
45.218
47.097
48.962
50.822
52.739
54.819
57.073
59.484
62.213
65.373
68.822
72.565
76.636
80.607
85.185
91.231
97.559
103.801
108.162
107.414
103.652
99.728
98.619
105.95
120.655
137.302
151.998
159.002
157.297
152.145
146.891
144.05
143.967
144.016
143.781
145.311
152.194
164.683
178.849
189.551
190.088
180.493
166.925
154.395
148.451
149.592
153.043
156.036
156.492
153.959
150.419
146.658
142.628
138.407
133.712
128.508
123.077
117.51
111.782
105.927
99.98
93.952
87.852
81.68
75.41
69.057
62.662
56.254
49.852
43.477
37.148
30.885
24.712
18.648
12.705
6.898
1.24
-4.258
-9.583
-14.725
-19.676
-24.428
-28.976
-33.314
-37.44
-41.352
-45.048
-48.53
-51.798
-54.855
-57.706
-60.353
-62.802
-65.059
-67.13
-69.022
-70.743
-72.3
-73.701
-74.955
-76.071
-77.056
-77.92
-78.672
-79.319
-79.87
-80.334
-80.718
-81.03
-81.278
-81.47
-81.611
-81.709
-81.77
-81.798
-81.801
-81.782
-81.747
-81.698
-81.64
-81.576
-81.508
-81.439
-81.372
-81.308
-81.249
-81.196
-81.151
-81.114
-81.088
-81.072
-81.069
-81.077
-81.099
-81.135
-81.185
-81.249
-81.33
-81.425
-81.537
-81.665
-81.81
-81.971
-82.148
-82.342
-82.553
-82.779
-83.021
-83.279
-83.55
-83.836
-84.134
-84.444
-84.766
-85.096
-85.435
-85.781
-86.132
-86.485
-86.839
-87.192
-87.54
-87.881
-88.211
-88.528
-88.827
-89.106
-89.36
-89.586
-89.779
-89.935
-90.05
-90.119
-90.139
-90.104
-90.01
-89.854
-89.631
-89.337
-88.969
-88.524
-87.999
-87.39
-86.696
-85.913
-85.04
-84.075
-83.015
-81.86
-80.61
-79.263
-77.82
-76.282
-74.65
-72.925
-71.109
-69.206
-67.218
-65.148
-63.001
-60.781
-58.493
-56.144
-53.74
-51.288
-48.796
-46.271
-43.722
-41.159
-38.589
-36.023
-33.47
-30.941
-28.447
-25.997
-23.603
-21.277
-19.033
-16.884
-14.845
-12.929
-11.15
-9.523
-8.061
-6.777
-5.682
-4.786
-4.098
-3.628
-3.384
-3.377
-3.615
-4.105
-4.855
-5.868
-7.147
-8.693
-10.5
-12.56
-14.864
-17.408
-20.193
-23.218
-26.479
-29.969
-33.678
-37.589
-41.678
-45.912
-50.242
-54.618
-58.991
-63.316
-67.56
-71.686
-75.655
-79.424
-82.931
-86.119
-88.942
-91.355
-93.327
-94.847
-95.928
-96.614
-96.996
-97.163
-97.181
-97.119
-97.026
-96.966
-97.037
-97.366
-98.075
-99.304
-101.249
-104.047
-107.738
-112.217
-117.101
-121.874
-126.076
-129.264
-130.844
-130.347
-127.728
-123.391
-118.448
-114.394
-111.449
-108.619
-105.603
-102.182
-100.442
-105.085
-116.836
-132.584
-144.019
-137.236
-103.542
-41.504
42.324
133.742
222.16
302.379
373.941
440.626
502.564
556.362
598.133
623.521
630.547
619.844
592.039
547.716
488.235
415.529
332.031
240.946
145.759
49.274
-45.615
-135.562
-217.775
-289.913
-349.91
-396.829
-430.933
-452.515
-462.282
-461.554
-451.498
-433.765
-410.654
-384.042
-355.022
-324.702
-294.045
-264.07
-236.34
-211.705
-190.056
-171.204
-155.109
-141.665
-130.781
-121.869
-113.564
-105.028
-96.133
-86.939
-77.68
-68.548
-59.578
-51.151
-44.121
-38.997
-35.881
-34.687
-35.057
-36.649
-39.262
-42.538
-45.945
-49.083
-51.678
-53.538
-54.63
-54.94
-54.421
-53.097
-51.041
-48.317
-45.007
-41.19
-36.919
-32.273
-27.337
-22.189
-16.917
-11.613
-6.358
-1.239
3.656
8.277
12.592
16.585
20.268
23.655
26.768
29.642
32.321
34.844
37.25
39.572
41.842
44.096
46.372
48.71
51.152
53.729
56.46
59.359
62.432
65.678
69.097
72.677
76.404
80.263
84.242
88.329
92.513
96.783
101.12
105.508
109.926
114.355
118.777
123.172
127.52
131.803
136.001
140.096
144.073
147.913
151.598
155.109
158.427
161.533
164.411
167.043
169.414
171.508
173.314
174.819
176.016
176.896
177.454
177.686
177.588
177.159
176.401
175.315
173.905
172.176
170.134
167.789
165.149
162.225
159.03
155.577
151.88
147.953
143.814
139.478
134.961
130.282
125.459
120.51
115.454
110.309
105.095
99.83
94.532
89.22
83.911
78.622
73.367
68.163
63.024
57.962
52.992
48.123
43.367
38.735
34.233
29.871
25.656
21.592
17.685
13.938
10.356
6.94
3.692
0.612
-2.298
-5.04
-7.614
-10.022
-12.268
-14.354
-16.283
-18.061
-19.691
-21.178
-22.527
-23.743
-24.832
-25.798
-26.646
-27.382
-28.01
-28.536
-28.963
-29.297
-29.541
-29.7
-29.777
-29.776
-29.701
-29.554
-29.339
-29.058
-28.715
-28.312
-27.853
-27.34
-26.776
-26.164
-25.507
-24.807
-24.066
-23.287
-22.473
-21.626
-20.748
-19.842
-18.911
-17.958
-16.985
-15.996
-14.993
-13.982
-12.964
-11.945
-10.928
-9.917
-8.918
-7.934
-6.971
-6.033
-5.125
-4.252
-3.418
-2.627
-1.883
-1.19
-0.552
0.029
0.551
1.011
1.406
1.736
1.999
2.194
2.322
2.381
2.373
2.298
2.157
1.953
1.687
1.362
0.982
0.549
0.069
-0.455
-1.016
-1.609
-2.228
-2.865
-3.515
-4.169
-4.821
-5.463
-6.087
-6.687
-7.255
-7.785
-8.27
-8.704
-9.081
-9.396
-9.642
-9.815
-9.912
-9.927
-9.859
-9.703
-9.459
-9.124
-8.696
-8.176
-7.563
-6.859
-6.063
-5.179
-4.208
-3.155
-2.026
-0.827
0.441
1.77
3.156
4.589
6.058
7.553
9.076
10.611
12.136
13.627
15.062
16.43
17.74
18.985
20.126
21.166
22.141
23.078
24.006
24.919
25.738
26.43
27.052
27.527
27.601
27.209
26.413
25.17
23.73
21.625
17.333
11.147
4.475
-0.419
0.789
7.936
16.679
22.719
19.937
7.816
-7.815
-22.439
-31.208
-33.152
-32.594
-32.208
-33.765
-37.817
-42.553
-47.096
-51.468
-55.57
-59.639
-63.732
-67.575
-71.045
-74.122
-76.736
-78.837
-80.443
-81.593
-82.324
-82.667
-82.666
-82.466
-82.369
-82.689
-83.591
-85.012
-86.801
-89.057
-91.911
-95.212
-98.444
-100.787
-101.576
-100.825
-98.967
-96.063
-92.018
-86.995
-81.621
-77.358
-75.767
-77.363
-81.818
-88.751
-97.774
-108.422
-119.779
-129.558
-134.783
-133.15
-123.003
-103.286
-73.328
-32.266
20.416
83.685
155.272
232.473
312.039
390.993
466.64
535.448
593.585
637.987
666.273
676.851
669.529
644.413
601.602
542.422
469.17
384.557
292.016
195.208
97.028
0.409
-91.267
-175.042
-248.387
-309.173
-356.353
-389.776
-409.35
-415.464
-409.31
-392.618
-367.709
-337.332
-303.947
-269.539
-236.003
-204.908
-177.386
-153.994
-134.534
-118.175
-103.885
-90.694
-77.643
-64.019
-49.3
-33.288
-16.256
1.169
18.173
33.904
47.538
58.554
66.655
71.738
73.979
73.699
71.316
67.346
62.363
56.801
50.993
45.233
39.722
34.65
30.215
26.552
23.72
21.762
20.694
20.49
21.132
22.56
24.677
27.385
30.571
34.132
37.977
42.007
46.114
50.194
54.139
57.844
61.247
64.306
67.002
69.346
71.356
73.058
74.499
75.73
76.797
77.748
78.621
79.448
80.271
81.131
82.074
83.146
84.379
85.794
87.404
89.214
91.223
93.427
95.815
98.367
101.069
103.908
106.872
109.95
113.131
116.397
119.73
123.112
126.524
129.949
133.368
136.762
140.115
143.408
146.624
149.75
152.768
155.66
158.409
160.996
163.403
165.615
167.614
169.385
170.915
172.19
173.199
173.933
174.383
174.542
174.404
173.965
173.222
172.173
170.817
169.157
167.194
164.934
162.381
159.542
156.427
153.044
149.404
145.519
141.402
137.066
132.526
127.796
122.893
117.833
112.633
107.31
101.882
96.367
90.782
85.146
79.476
73.79
68.104
62.435
56.8
51.214
45.692
40.249
34.9
29.655
24.529
19.532
14.674
9.964
5.411
1.021
-3.2
-7.247
-11.115
-14.802
-18.306
-21.626
-24.761
-27.712
-30.481
-33.071
-35.485
-37.726
-39.8
-41.712
-43.466
-45.071
-46.532
-47.856
-49.052
-50.126
-51.087
-51.944
-52.705
-53.379
-53.973
-54.497
-54.96
-55.368
-55.727
-56.043
-56.319
-56.564
-56.79
-56.999
-57.193
-57.385
-57.582
-57.792
-58.036
-58.306
-58.572
-58.836
-59.097
-59.329
-59.537
-59.707
-59.789
-59.824
-59.91
-60.067
-60.298
-60.721
-61.392
-62.213
-63.267
-64.495
-65.332
-66.493
-68.806
-71.162
-73.543
-73.399
-66.663
-56.357
-45.772
-40.135
-47.892
-65.461
-85.299
-100.668
-101.584
-89.955
-74.517
-60.804
-55.662
-59.122
-65.282
-71.365
-75.162
-76.176
-76.616
-77.223
-77.833
-78.541
-79.05
-79.28
-79.501
-79.797
-80.125
-80.508
-80.981
-81.521
-82.106
-82.711
-83.288
-83.819
-84.327
-84.812
-85.266
-85.687
-86.07
-86.414
-86.72
-86.986
-87.204
-87.37
-87.479
-87.528
-87.513
-87.432
-87.281
-87.057
-86.759
-86.383
-85.928
-85.392
-84.774
-84.074
-83.291
-82.427
-81.482
-80.459
-79.359
-78.185
-76.94
-75.628
-74.252
-72.816
-71.327
-69.789
-68.209
-66.596
-64.957
-63.301
-61.639
-59.982
-58.343
-56.734
-55.169
-53.66
-52.222
-50.869
-49.615
-48.473
-47.454
-46.571
-45.837
-45.262
-44.859
-44.637
-44.608
-44.779
-45.16
-45.758
-46.575
-47.612
-48.868
-50.343
-52.034
-53.947
-56.08
-58.43
-60.992
-63.758
-66.713
-69.839
-73.104
-76.464
-79.877
-83.299
-86.69
-90.018
-93.247
-96.34
-99.258
-101.95
-104.37
-106.482
-108.243
-109.628
-110.621
-111.223
-111.484
-111.489
-111.325
-111.077
-110.804
-110.551
-110.397
-110.419
-110.694
-111.309
-112.319
-113.818
-115.976
-118.877
-122.468
-126.575
-130.818
-134.767
-138.061
-140.224
-140.681
-139.104
-135.489
-130.191
-123.897
-117.401
-111.527
-107.139
-105.133
-105.117
-105.045
-102.775
-96.895
-88.867
-82.144
-77.766
-72.022
-55.009
-15.223
54.31
152.312
266.955
381.782
480.698
552.655
595.566
613.21
613.399
602.431
582.178
551.623
506.537
444.796
368.041
279.384
183.744
85.595
-12.464
-108.055
-198.462
-281.206
-353.971
-414.65
-462.106
-496.375
-517.644
-526.394
-523.899
-511.374
-490.078
-462.158
-429.748
-393.885
-356.617
-319.986
-284.099
-250.47
-218.742
-186.997
-157.9
-133.341
-115.911
-108.997
-108.72
-110.736
-111.405
-106.735
-98.64
-89.286
-79.25
-69.996
-60.991
-52.05
-44.381
-38.371
-34.201
-31.918
-31.066
-31.268
-32.285
-33.675
-34.88
-35.536
-35.449
-34.546
-32.898
-30.57
-27.574
-23.978
-19.893
-15.411
-10.618
-5.597
-0.39
4.943
10.32
15.673
20.93
26.017
30.872
35.426
39.632
43.471
46.945
50.064
52.851
55.33
57.535
59.513
61.308
62.957
64.499
65.962
67.381
68.796
70.246
71.773
73.409
75.174
77.083
79.144
81.36
83.734
86.258
88.92
91.705
94.603
97.603
100.697
103.87
107.106
110.386
113.69
116.997
120.289
123.543
126.737
129.85
132.862
135.75
138.497
141.083
143.486
145.685
147.66
149.39
150.857
152.043
152.929
153.501
153.743
153.646
153.198
152.392
151.221
149.68
147.768
145.485
142.832
139.815
136.439
132.714
128.65
124.259
119.557
114.559
109.285
103.754
97.987
92.009
85.842
79.512
73.046
66.471
59.814
53.105
46.371
39.641
32.943
26.306
19.758
13.327
7.039
0.92
-5.004
-10.71
-16.175
-21.378
-26.301
-30.925
-35.234
-39.215
-42.856
-46.146
-49.079
-51.647
-53.848
-55.68
-57.143
-58.24
-58.975
-59.356
-59.392
-59.093
-58.472
-57.542
-56.321
-54.825
-53.072
-51.082
-48.875
-46.473
-43.897
-41.17
-38.316
-35.357
-32.317
-29.22
-26.088
-22.945
-19.812
-16.711
-13.662
-10.684
-7.796
-5.015
-2.357
0.163
2.532
4.738
6.769
8.618
10.277
11.739
13.002
14.062
14.918
15.571
16.022
16.274
16.33
16.195
15.876
15.379
14.712
13.883
12.902
11.778
10.522
9.143
7.653
6.062
4.38
2.619
0.787
-1.104
-3.045
-5.026
-7.039
-9.073
-11.121
-13.175
-15.227
-17.27
-19.298
-21.306
-23.288
-25.239
-27.156
-29.034
-30.871
-32.663
-34.408
-36.103
-37.746
-39.334
-40.867
-42.342
-43.758
-45.112
-46.404
-47.631
-48.791
-49.882
-50.902
-51.846
-52.713
-53.5
-54.203
-54.819
-55.346
-55.78
-56.118
-56.357
-56.495
-56.527
-56.451
-56.264
-55.963
-55.545
-55.009
-54.352
-53.573
-52.672
-51.648
-50.501
-49.231
-47.839
-46.329
-44.701
-42.959
-41.108
-39.151
-37.097
-34.95
-32.719
-30.413
-28.041
-25.613
-23.141
-20.634
-18.106
-15.568
-13.033
-10.515
-8.026
-5.582
-3.196
-0.885
1.334
3.448
5.439
7.292
8.992
10.525
11.878
13.04
14.001
14.752
15.284
15.587
15.654
15.478
15.055
14.384
13.463
12.295
10.882
9.235
7.366
5.286
3.004
0.522
-2.157
-5.021
-8.054
-11.238
-14.545
-17.949
-21.412
-24.885
-28.315
-31.654
-34.855
-37.884
-40.707
-43.282
-45.56
-47.476
-48.97
-49.999
-50.533
-50.551
-50.055
-49.059
-47.608
-45.781
-43.657
-41.321
-38.863
-36.36
-33.902
-31.595
-29.532
-27.858
-26.758
-26.328
-26.582
-27.409
-28.52
-29.632
-30.5
-30.757
-29.98
-27.86
-24.242
-19.421
-14.131
-9.026
-4.601
-1.201
0.981
1.787
1.287
0.462
1.102
5.148
14.619
30.939
55.04
88.268
131.616
184.747
246.463
313.742
382.615
451.055
516.541
577.312
631.813
674.406
701.004
707.638
690.831
653.974
600.137
532.868
457.749
375.546
287.383
196.131
103.267
12.383
-72.418
-148.891
-215.283
-270.37
-313.581
-344.866
-364.451
-373.01
-372.086
-363.247
-347.66
-326.876
-302.683
-276.295
-248.947
-221.961
-195.836
-171.015
-148.389
-128.213
-110.231
-94.406
-80.277
-67.016
-54.419
-42.287
-30.068
-17.705
-5.42
6.663
18.002
27.86
35.962
42.132
46.175
48.223
48.492
47.188
44.748
41.683
38.334
34.996
31.903
29.168
26.909
25.252
24.256
23.936
24.294
25.302
26.913
29.088
31.761
34.842
38.255
41.923
45.753
49.661
53.58
57.434
61.165
64.727
68.025
70.99
73.632
75.972
78.043
79.901
81.548
82.976
84.259
85.492
86.594
87.454
88.186
88.813
89.344
90.134
90.376
89.275
88.036
87.03
88.441
94.872
103.444
112.229
118.35
117.865
114.235
110.395
108.353
111.432
117.229
123.311
129.121
133.165
136.281
139.549
142.737
145.966
149.144
152.03
154.752
157.408
159.942
162.324
164.549
166.596
168.437
170.05
171.398
172.44
173.171
173.59
173.684
173.444
172.862
171.931
170.651
169.024
167.049
164.726
162.059
159.053
155.716
152.057
148.086
143.816
139.259
134.43
129.346
124.023
118.48
112.735
106.809
100.722
94.495
88.152
81.713
75.203
68.643
62.056
55.466
48.895
42.364
35.895
29.507
23.221
17.055
11.025
5.148
-0.561
-6.09
-11.424
-16.555
-21.471
-26.165
-30.63
-34.859
-38.847
-42.593
-46.092
-49.345
-52.351
-55.113
-57.632
-59.913
-61.96
-63.78
-65.379
-66.766
-67.95
-68.939
-69.745
-70.377
-70.848
-71.169
-71.351
-71.407
-71.348
-71.185
-70.93
-70.592
-70.184
-69.713
-69.19
-68.623
-68.02
-67.389
-66.739
-66.074
-65.403
-64.732
-64.065
-63.409
-62.768
-62.146
-61.547
-60.974
-60.43
-59.916
-59.435
-58.987
-58.574
-58.195
-57.85
-57.538
-57.258
-57.009
-56.79
-56.598
-56.433
-56.293
-56.176
-56.082
-56.01
-55.959
-55.93
-55.923
-55.937
-55.972
-56.03
-56.109
-56.21
-56.332
-56.476
-56.64
-56.826
-57.031
-57.257
-57.501
-57.764
-58.043
-58.338
-58.648
-58.97
-59.305
-59.65
-60.003
-60.365
-60.732
-61.105
-61.48
-61.856
-62.23
-62.6
-62.963
-63.315
-63.651
-63.969
-64.262
-64.527
-64.76
-64.955
-65.108
-65.214
-65.269
-65.269
-65.209
-65.086
-64.896
-64.635
-64.301
-63.891
-63.404
-62.839
-62.194
-61.47
-60.666
-59.784
-58.822
-57.784
-56.668
-55.479
-54.217
-52.885
-51.488
-50.03
-48.514
-46.947
-45.335
-43.685
-42.005
-40.3
-38.581
-36.856
-35.135
-33.427
-31.744
-30.095
-28.494
-26.952
-25.483
-24.099
-22.814
-21.64
-20.589
-19.676
-18.911
-18.303
-17.864
-17.603
-17.529
-17.652
-17.979
-18.519
-19.28
-20.269
-21.491
-22.952
-24.652
-26.587
-28.756
-31.151
-33.769
-36.609
-39.669
-42.941
-46.417
-50.086
-53.93
-57.93
-62.058
-66.261
-70.491
-74.7
-78.839
-82.885
-86.814
-90.575
-94.12
-97.43
-100.481
-103.253
-105.728
-107.851
-109.56
-110.878
-111.883
-112.537
-112.785
-112.769
-112.537
-112.114
-111.848
-111.075
-109.15
-107.2
-105.608
-106.399
-112.037
-120.095
-128.863
-135.62
-136.526
-134.255
-131.061
-128.324
-128.5
-129.137
-128.053
-125.237
-120.216
-114.464
-109.696
-106.519
-105.548
-106.988
-109.642
-110.78
-108.61
-101.925
-90.499
-76.47
-58.443
-32.339
5.928
62.694
139.922
233.86
338.154
440.54
527.606
590.789
625.396
634.42
626.632
607.721
581.745
549.422
507.104
454.899
393.485
322.413
242.558
151.808
48.203
-66.568
-186.599
-301.664
-400.296
-472.113
-513.313
-525.475
-512.297
-481.493
-439.662
-393.192
-350.963
-318.591
-298.9
-290.851
-287.783
-283.587
-274.47
-259.758
-242.811
-226.25
-210.978
-196.504
-180.493
-161.997
-141.727
-120.866
-101.271
-84.115
-69.599
-57.93
-49.263
-43.513
-40.552
-39.982
-41.075
-43.304
-46.338
-49.87
-53.709
-57.664
-61.472
-64.949
-67.985
-70.442
-72.194
-73.156
-73.243
-72.439
-70.792
-68.367
-65.257
-61.568
-57.399
-52.857
-48.036
-43.021
-37.897
-32.757
-27.684
-22.771
-18.106
-13.744
-9.72
-6.046
-2.708
0.32
3.068
5.584
7.918
10.114
12.214
14.251
16.255
18.26
20.303
22.423
24.666
27.063
29.633
32.393
35.349
38.502
41.85
45.385
49.089
52.949
56.952
61.089
65.349
69.72
74.187
78.73
83.331
87.97
92.628
97.286
101.922
106.517
111.052
115.508
119.87
124.118
128.236
132.203
136.001
139.611
143.018
146.202
149.149
151.844
154.272
156.422
158.283
159.847
161.105
162.05
162.678
162.983
162.965
162.622
161.955
160.965
159.658
158.038
156.112
153.888
151.376
148.586
145.532
142.224
138.679
134.909
130.931
126.761
122.414
117.909
113.262
108.491
103.615
98.651
93.617
88.532
83.413
78.277
73.143
68.027
62.944
57.913
52.947
48.062
43.271
38.589
34.027
29.598
25.312
21.177
17.204
13.398
9.766
6.313
3.042
-0.042
-2.94
-5.649
-8.171
-10.506
-12.657
-14.627
-16.42
-18.042
-19.496
-20.791
-21.932
-22.928
-23.786
-24.516
-25.125
-25.624
-26.021
-26.328
-26.553
-26.708
-26.801
-26.844
-26.845
-26.814
-26.761
-26.693
-26.619
-26.547
-26.484
-26.436
-26.409
-26.409
-26.439
-26.505
-26.61
-26.756
-26.947
-27.182
-27.465
-27.794
-28.171
-28.595
-29.065
-29.579
-30.136
-30.734
-31.369
-32.041
-32.745
-33.478
-34.236
-35.016
-35.814
-36.626
-37.449
-38.279
-39.111
-39.944
-40.772
-41.594
-42.406
-43.205
-43.989
-44.754
-45.5
-46.223
-46.92
-47.591
-48.233
-48.843
-49.42
-49.962
-50.467
-50.933
-51.358
-51.74
-52.076
-52.365
-52.604
-52.791
-52.925
-53.002
-53.021
-52.979
-52.875
-52.706
-52.469
-52.162
-51.782
-51.327
-50.793
-50.179
-49.481
-48.697
-47.824
-46.861
-45.806
-44.658
-43.417
-42.078
-40.638
-39.096
-37.452
-35.709
-33.868
-31.924
-29.88
-27.757
-25.567
-23.329
-21.048
-18.709
-16.311
-13.884
-11.422
-8.879
-6.225
-3.423
-0.475
2.545
5.604
8.759
11.939
14.88
17.502
19.875
21.954
23.973
25.501
24.946
22.491
19.628
18.595
23.834
35.449
48.858
59.629
61.456
53.391
41.488
30.462
25.24
27.108
31.558
35.687
37.669
36.764
34.786
32.665
30.314
27.815
24.907
21.508
17.879
14.122
10.202
6.128
1.92
-2.422
-6.895
-11.503
-16.265
-21.165
-26.142
-31.135
-36.09
-40.952
-45.673
-50.217
-54.539
-58.599
-62.356
-65.75
-68.73
-71.251
-73.277
-74.776
-75.744
-76.201
-76.201
-75.845
-75.225
-74.418
-73.511
-72.58
-71.723
-71.057
-70.694
-70.741
-71.336
-72.659
-74.809
-77.752
-81.282
-84.972
-88.361
-91.055
-92.64
-92.596
-90.624
-86.83
-81.736
-76.411
-71.912
-68.769
-67.334
-67.984
-70.629
-74.427
-77.717
-77.81
-71.87
-57.984
-34.666
-0.489
45.318
102.576
169.902
244.353
322.2
400.129
474.913
542.941
600.714
645.057
673.507
684.757
678.392
654.278
612.617
554.437
481.553
396.449
302.078
201.799
99.155
-2.342
-99.017
-187.532
-265.307
-330.225
-380.844
-417.069
-439.68
-449.756
-448.995
-439.159
-421.783
-398.944
-372.782
-344.464
-314.753
-284.414
-254.011
-224.533
-197.126
-172.034
-149.115
-128.589
-110.609
-95.225
-82.305
-70.954
-60.18
-49.698
-39.522
-29.685
-20.347
-11.559
-3.516
3.079
7.637
10.005
10.235
8.609
5.522
1.245
-3.859
-9.21
-14.337
-18.908
-22.667
-25.519
-27.432
-28.345
-28.268
-27.277
-25.435
-22.822
-19.532
-15.633
-11.217
-6.394
-1.263
4.063
9.466
14.84
20.075
25.063
29.739
34.06
38.003
41.575
44.789
47.663
50.234
52.547
54.644
56.568
58.355
60.04
61.665
63.272
64.905
66.611
68.421
70.356
72.431
74.65
77.015
79.523
82.165
84.925
87.792
90.754
93.804
96.935
100.136
103.396
106.7
110.033
113.38
116.727
120.06
123.363
126.623
129.825
132.955
136.002
138.953
141.792
144.505
147.076
149.489
151.731
153.787
155.644
157.289
158.712
159.902
160.852
161.555
162.004
162.194
162.121
161.783
161.176
160.301
159.156
157.744
156.066
154.126
151.93
149.482
146.792
143.867
140.716
137.351
133.784
130.025
126.09
121.99
117.741
113.358
108.856
104.251
99.559
94.796
89.978
85.12
80.238
75.347
70.46
65.592
60.756
55.965
51.23
46.566
41.981
37.489
33.099
28.82
24.662
20.634
16.742
12.993
9.393
5.946
2.656
-0.474
-3.441
-6.245
-8.885
-11.362
-13.678
-15.834
-17.833
-19.68
-21.379
-22.933
-24.348
-25.63
-26.783
-27.813
-28.726
-29.528
-30.224
-30.821
-31.325
-31.741
-32.077
-32.339
-32.533
-32.666
-32.744
-32.773
-32.761
-32.712
-32.634
-32.531
-32.409
-32.274
-32.131
-31.982
-31.834
-31.689
-31.551
-31.423
-31.308
-31.207
-31.123
-31.057
-31.012
-30.989
-30.99
-31.016
-31.067
-31.147
-31.255
-31.392
-31.561
-31.761
-31.993
-32.257
-32.553
-32.881
-33.241
-33.632
-34.053
-34.502
-34.979
-35.483
-36.01
-36.561
-37.132
-37.722
-38.329
-38.951
-39.587
-40.233
-40.889
-41.552
-42.219
-42.889
-43.558
-44.224
-44.884
-45.534
-46.171
-46.792
-47.393
-47.97
-48.519
-49.037
-49.518
-49.96
-50.357
-50.707
-51.005
-51.249
-51.433
-51.556
-51.615
-51.607
-51.529
-51.379
-51.154
-50.853
-50.473
-50.012
-49.469
-48.84
-48.127
-47.326
-46.439
-45.464
-44.403
-43.255
-42.023
-40.707
-39.311
-37.836
-36.286
-34.665
-32.977
-31.226
-29.419
-27.56
-25.657
-23.715
-21.743
-19.747
-17.736
-15.716
-13.696
-11.685
-9.691
-7.724
-5.794
-3.912
-2.087
-0.333
1.337
2.91
4.372
5.708
6.907
7.956
8.845
9.563
10.101
10.447
10.597
10.547
10.281
9.786
9.05
8.061
6.823
5.349
3.628
1.654
-0.54
-2.925
-5.48
-8.18
-11.044
-14.113
-17.356
-20.722
-24.304
-28.209
-32.324
-36.613
-41.053
-45.315
-50.106
-56.12
-62.269
-68.195
-71.927
-71.104
-68.219
-64.921
-63.695
-67.985
-74.707
-81.273
-85.941
-85.85
-83.195
-80.19
-77.406
-76.233
-76.019
-75.925
-76.256
-76.983
-78.312
-80.619
-83.863
-87.95
-92.733
-97.779
-102.655
-107.028
-110.472
-112.519
-112.916
-111.59
-108.918
-105.917
-103.442
-101.894
-101.795
-103.59
-107.095
-112.008
-116.507
-116.623
-109.924
-95.405
-73.085
-46.049
-14.47
26.307
80.696
154.295
248.136
352.433
454.5
541.311
602.116
637.083
651.986
651.438
640.046
617.491
579.504
524.845
453.851
368.649
273.829
173.399
70.82
-30.556
-127.628
-217.339
-296.992
-364.259
-417.383
-455.97
-480.74
-492.737
-493.554
-485.067
-468.809
-446.524
-420.427
-391.943
-361.496
-330.462
-299.996
-269.754
-240.899
-212.583
-182.725
-154.247
-129.304
-110.704
-102.139
-100.112
-100.623
-100.486
-96.046
-89.01
-81.31
-73.342
-66.295
-59.57
-52.92
-47.396
-43.31
-40.834
-40.024
-40.478
-41.886
-44.035
-46.507
-48.774
-50.476
-51.431
-51.568
-50.952
-49.641
-47.643
-45.022
-41.887
-38.327
-34.427
-30.262
-25.87
-21.308
-16.657
-11.984
-7.364
-2.87
1.436
5.487
9.239
12.676
15.799
18.623
21.17
23.465
25.541
27.443
29.21
30.879
32.485
34.055
35.625
37.232
38.915
40.714
42.658
44.764
47.044
49.502
52.139
54.95
57.927
61.052
64.309
67.684
71.163
74.736
78.385
82.093
85.837
89.595
93.346
97.068
100.739
104.336
107.836
111.219
114.465
117.555
120.469
123.188
125.692
127.961
129.976
131.721
133.179
134.334
135.174
135.687
135.865
135.702
135.192
134.333
133.125
131.569
129.668
127.428
124.855
121.959
118.75
115.241
111.446
107.379
103.058
98.501
93.725
88.753
83.602
78.296
72.855
67.301
61.656
55.942
50.183
44.4
38.615
32.85
27.127
21.464
15.883
10.401
5.035
-0.198
-5.284
-10.208
-14.96
-19.528
-23.903
-28.077
-32.042
-35.794
-39.329
-42.644
-45.737
-48.608
-51.258
-53.688
-55.902
-57.901
-59.692
-61.279
-62.668
-63.865
-64.879
-65.716
-66.385
-66.896
-67.258
-67.48
-67.573
-67.546
-67.41
-67.175
-66.85
-66.445
-65.971
-65.436
-64.849
-64.218
-63.552
-62.858
-62.144
-61.416
-60.681
-59.943
-59.21
-58.485
-57.775
-57.084
-56.416
-55.776
-55.168
-54.595
-54.061
-53.569
-53.122
-52.723
-52.374
-52.077
-51.833
-51.643
-51.509
-51.431
-51.41
-51.444
-51.535
-51.682
-51.883
-52.139
-52.447
-52.807
-53.219
-53.679
-54.187
-54.742
-55.341
-55.982
-56.663
-57.382
-58.136
-58.921
-59.735
-60.572
-61.429
-62.301
-63.184
-64.072
-64.959
-65.841
-66.712
-67.567
-68.399
-69.203
-69.974
-70.707
-71.395
-72.034
-72.618
-73.143
-73.604
-73.996
-74.316
-74.558
-74.72
-74.796
-74.784
-74.68
-74.48
-74.182
-73.782
-73.279
-72.67
-71.954
-71.129
-70.195
-69.153
-68.003
-66.745
-65.381
-63.913
-62.344
-60.675
-58.909
-57.051
-55.102
-53.067
-50.95
-48.756
-46.491
-44.158
-41.765
-39.316
-36.818
-34.276
-31.697
-29.088
-26.457
-23.81
-21.157
-18.505
-15.864
-13.244
-10.656
-8.111
-5.614
-3.175
-0.799
1.503
3.713
5.821
7.824
9.707
11.447
13.02
14.389
15.549
16.525
17.317
17.903
18.294
18.511
18.582
18.574
18.466
18.131
17.514
16.639
15.408
13.618
11.257
8.328
4.868
1.45
-2.494
-8.665
-16.47
-24.729
-30.289
-26.87
-15.573
-2.431
5.472
-3.018
-27.397
-56.935
-82.389
-92.042
-84.965
-71.773
-59.746
-55.867
-61.413
-69.938
-77.878
-83.335
-85.614
-86.795
-87.73
-88.085
-87.869
-86.871
-85.058
-82.747
-80.117
-77.236
-74.237
-71.276
-68.463
-65.871
-63.626
-61.899
-60.781
-60.293
-60.304
-60.484
-60.544
-60.287
-59.397
-57.471
-54.269
-49.734
-44.268
-38.771
-33.942
-30.19
-27.793
-26.838
-27.272
-28.784
-30.112
-29.164
-23.966
-12.712
5.919
32.699
68.488
113.859
168.102
229.415
295.516
363.435
430.42
494.069
551.182
598.303
632.693
652.133
655.019
641.041
610.072
561.917
497.78
419.901
330.973
234.597
134.733
34.684
-62.004
-151.263
-229.978
-295.895
-347.514
-384.858
-408.929
-420.819
-422.224
-415.559
-402.922
-386.088
-366.57
-345.053
-321.705
-296.696
-270.08
-241.842
-212.432
-182.783
-153.876
-126.733
-102.365
-81.536
-64.71
-52.044
-43.062
-36.601
-31.521
-26.997
-22.397
-17.365
-11.771
-5.607
0.772
6.58
11.193
14.336
15.944
16.184
15.322
13.605
11.409
9.26
7.564
6.557
6.378
7.053
8.565
10.916
14.059
17.885
22.31
27.264
32.673
38.495
44.668
51.1
57.707
64.419
71.157
77.86
84.459
90.871
97.043
102.955
108.596
113.974
119.1
123.983
128.644
133.116
137.429
141.611
145.688
149.673
153.591
157.465
161.32
165.189
169.091
173.031
177.012
181.029
185.076
189.145
193.221
197.28
201.304
205.277
209.184
213.013
216.751
220.38
223.882
227.238
230.434
233.456
236.29
238.921
241.335
243.518
245.462
247.165
248.609
249.776
250.652
251.22
251.48
251.443
251.091
250.404
249.413
248.139
246.602
244.834
242.813
240.495
237.912
235.12
232.001
228.411
224.451
220.122
215.409
210.646
204.974
197.556
189.62
181.551
175.596
174.444
175.153
175.771
173.378
163.962
151.105
137.847
126.278
119.838
116.095
112.586
108.777
103.171
96.661
90.39
84.157
78.119
72.213
66.222
60.305
54.593
49.055
43.691
38.522
33.553
28.78
24.205
19.811
15.574
11.509
7.627
3.925
0.405
-2.934
-6.096
-9.08
-11.885
-14.516
-16.978
-19.276
-21.414
-23.397
-25.232
-26.923
-28.477
-29.901
-31.199
-32.379
-33.446
-34.407
-35.268
-36.034
-36.712
-37.308
-37.828
-38.276
-38.66
-38.984
-39.255
-39.478
-39.657
-39.799
-39.908
-39.989
-40.046
-40.085
-40.108
-40.121
-40.127
-40.13
-40.132
-40.138
-40.149
-40.168
-40.199
-40.242
-40.301
-40.378
-40.474
-40.592
-40.734
-40.901
-41.095
-41.319
-41.573
-41.859
-42.178
-42.531
-42.92
-43.344
-43.804
-44.3
-44.832
-45.399
-46
-46.635
-47.302
-47.999
-48.726
-49.478
-50.255
-51.054
-51.87
-52.702
-53.546
-54.398
-55.255
-56.112
-56.965
-57.81
-58.642
-59.457
-60.25
-61.015
-61.747
-62.441
-63.092
-63.694
-64.242
-64.732
-65.158
-65.516
-65.802
-66.011
-66.14
-66.187
-66.147
-66.018
-65.799
-65.487
-65.081
-64.581
-63.986
-63.296
-62.513
-61.637
-60.672
-59.619
-58.481
-57.262
-55.966
-54.598
-53.161
-51.663
-50.108
-48.503
-46.856
-45.174
-43.464
-41.737
-39.999
-38.259
-36.528
-34.815
-33.127
-31.476
-29.87
-28.32
-26.836
-25.427
-24.104
-22.878
-21.76
-20.762
-19.896
-19.174
-18.606
-18.204
-17.977
-17.935
-18.082
-18.425
-18.967
-19.714
-20.67
-21.842
-23.232
-24.842
-26.673
-28.723
-30.99
-33.468
-36.145
-39.006
-42.042
-45.244
-48.616
-52.156
-55.858
-59.711
-63.702
-67.809
-72.009
-76.264
-80.526
-84.743
-88.87
-92.867
-96.71
-100.37
-103.812
-106.985
-109.826
-112.28
-114.304
-115.865
-116.937
-117.525
-117.647
-117.363
-116.768
-115.936
-114.95
-113.89
-112.832
-111.879
-111.148
-110.754
-110.86
-111.68
-113.333
-115.807
-118.926
-122.286
-125.441
-128.021
-129.58
-129.569
-127.69
-124.098
-119.437
-114.934
-111.841
-110.862
-112.476
-117.185
-124.934
-134.749
-144.702
-151.675
-152.247
-143.957
-124.92
-93.357
-48.309
9.989
79.97
158.163
239.959
321.166
397.876
466.073
522.088
562.815
585.948
590.746
577.968
548.779
504.446
446.419
376.519
297.001
210.552
119.996
27.567
-64.808
-154.888
-239.971
-317.357
-384.505
-439.568
-482.022
-511.557
-527.879
-531.24
-522.504
-503.372
-476.502
-444.576
-409.257
-372.108
-334.823
-299.181
-267.241
-240.144
-217.716
-199.395
-184.9
-173.873
-165.855
-159.867
-154.096
-147.361
-139.441
-130.434
-120.625
-110.324
-99.695
-89.291
-80.229
-73.195
-68.369
-65.709
-64.842
-65.42
-67.239
-69.897
-72.793
-75.511
-77.767
-79.386
-80.375
-80.693
-80.27
-79.123
-77.305
-74.877
-71.917
-68.477
-64.588
-60.316
-55.732
-50.913
-45.948
-40.905
-35.852
-30.861
-26.003
-21.352
-16.964
-12.863
-9.055
-5.529
-2.265
0.758
3.57
6.214
8.728
11.149
13.512
15.842
18.167
20.521
22.938
25.457
28.108
30.905
33.858
36.969
40.238
43.658
47.22
50.905
54.694
58.574
62.531
66.554
70.628
74.736
78.859
82.976
87.067
91.116
95.101
99.003
102.803
106.483
110.025
113.413
116.631
119.662
122.487
125.09
127.456
129.568
131.412
132.976
134.247
135.216
135.874
136.215
136.235
135.93
135.298
134.341
133.058
131.455
129.534
127.3
124.762
121.927
118.805
115.405
111.74
107.822
103.665
99.284
94.694
89.912
84.955
79.842
74.59
69.218
63.746
58.193
52.577
46.92
41.239
35.553
29.882
24.243
18.653
13.129
7.688
2.343
-2.891
-8
-12.972
-17.795
-22.46
-26.955
-31.271
-35.401
-39.337
-43.074
-46.604
-49.925
-53.034
-55.928
-58.606
-61.069
-63.318
-65.356
-67.186
-68.813
-70.241
-71.478
-72.53
-73.404
-74.109
-74.653
-75.045
-75.295
-75.413
-75.407
-75.289
-75.067
-74.751
-74.351
-73.877
-73.337
-72.741
-72.098
-71.416
-70.704
-69.97
-69.222
-68.466
-67.71
-66.959
-66.219
-65.496
-64.792
-64.112
-63.458
-62.832
-62.236
-61.671
-61.136
-60.634
-60.161
-59.719
-59.304
-58.917
-58.555
-58.217
-57.9
-57.602
-57.322
-57.058
-56.807
-56.569
-56.342
-56.123
-55.913
-55.709
-55.51
-55.315
-55.124
-54.935
-54.747
-54.562
-54.378
-54.197
-54.019
-53.844
-53.674
-53.511
-53.354
-53.207
-53.069
-52.943
-52.829
-52.73
-52.644
-52.574
-52.52
-52.482
-52.459
-52.452
-52.457
-52.475
-52.502
-52.537
-52.577
-52.618
-52.657
-52.69
-52.714
-52.725
-52.718
-52.689
-52.634
-52.546
-52.421
-52.254
-52.038
-51.767
-51.437
-51.04
-50.572
-50.029
-49.404
-48.693
-47.894
-47.001
-46.014
-44.929
-43.745
-42.462
-41.079
-39.598
-38.02
-36.351
-34.592
-32.749
-30.827
-28.832
-26.772
-24.654
-22.484
-20.273
-18.028
-15.76
-13.48
-11.198
-8.928
-6.681
-4.473
-2.319
-0.235
1.765
3.662
5.442
7.087
8.583
9.916
11.073
12.041
12.808
13.363
13.695
13.795
13.652
13.258
12.607
11.692
10.511
9.066
7.358
5.394
3.175
0.701
-2.027
-5.004
-8.224
-11.675
-15.343
-19.208
-23.235
-27.376
-31.58
-35.792
-39.961
-44.047
-48.005
-51.786
-55.344
-58.62
-61.563
-64.137
-66.305
-68.037
-69.32
-70.157
-70.596
-70.732
-70.669
-70.51
-70.343
-70.246
-70.311
-70.656
-71.405
-72.682
-74.582
-77.197
-80.66
-85.038
-90.287
-96.214
-102.389
-108.277
-113.388
-117.205
-119.176
-118.958
-116.449
-111.938
-106.217
-100.192
-94.637
-90.249
-87.576
-86.75
-87.313
-87.923
-86.416
-80.314
-67.2
-44.99
-11.855
33.552
91.483
160.753
238.927
322.413
407.086
489.04
563.976
627.359
675.432
705.366
715.281
704.958
675.021
625.938
559.327
478.058
385.33
285.004
181.317
77.761
-22.311
-114.795
-196.106
-264.653
-319.45
-359.562
-386.083
-398.214
-395.28
-382.494
-363.998
-344.731
-330.484
-318.837
-306.703
-292.221
-272.295
-248.741
-223.838
-197.875
-171.759
-145.48
-119.578
-95.339
-73.468
-54.336
-37.739
-23.488
-11.738
-2.195
5.849
12.953
19.543
25.567
30.432
33.864
35.939
36.677
36.114
34.339
31.442
27.756
23.898
20.327
17.331
15.145
13.879
13.611
14.429
16.322
19.181
22.916
27.433
32.64
38.481
44.868
51.697
58.865
66.259
73.761
81.267
88.673
95.875
102.809
109.433
115.723
121.688
127.339
132.693
137.781
142.637
147.293
151.784
156.139
160.386
164.56
168.696
172.832
177.006
181.243
185.557
189.951
194.428
198.983
203.602
208.262
212.939
217.606
222.257
226.889
231.482
236.007
240.476
244.891
249.251
253.564
257.791
261.876
265.825
269.666
273.274
276.504
279.426
282.019
284.247
286.382
287.646
287.285
286.353
285.165
285.669
290.198
296.159
301.825
304.624
301.027
294.16
286.672
280.385
278.301
278.285
278.173
277.491
274.926
271.258
267.487
263.439
259.254
254.879
250.131
245.156
240.074
234.869
229.548
224.143
218.665
213.126
207.538
201.898
196.199
190.468
184.727
178.988
173.266
167.572
161.917
156.316
150.781
145.321
139.944
134.658
129.47
124.389
119.419
114.568
109.841
105.242
100.776
96.446
92.257
88.211
84.312
80.56
76.958
73.507
70.207
67.059
64.061
61.213
58.513
55.961
53.553
51.288
49.164
47.177
45.325
43.604
42.012
40.545
39.199
37.969
36.855
35.852
34.959
34.172
33.486
32.895
32.398
31.994
31.672
31.42
31.228
31.083
30.986
30.945
30.945
30.967
31.033
31.159
31.354
31.64
31.99
32.356
32.758
33.233
33.665
33.92
34.073
34.112
34.009
34.041
33.449
31.495
29.226
26.96
26.623
30.525
36.107
41.664
44.658
41.603
35.584
29.216
24.291
23.772
25.546
27.471
29.075
29.055
28.174
27.414
26.594
25.845
25.106
24.188
23.225
22.328
21.468
20.646
19.879
19.172
18.523
17.935
17.395
16.887
16.426
16.026
15.689
15.422
15.229
15.113
15.079
15.136
15.284
15.524
15.861
16.294
16.825
17.455
18.185
19.012
19.937
20.957
22.07
23.273
24.562
25.933
27.383
28.906
30.496
32.148
33.855
35.61
37.407
39.236
41.089
42.958
44.833
46.705
48.563
50.397
52.196
53.95
55.647
57.275
58.824
60.279
61.629
62.859
63.956
64.905
65.695
66.31
66.739
66.97
66.992
66.798
66.379
65.727
64.835
63.696
62.303
60.651
58.735
56.554
54.107
51.396
48.428
45.212
41.757
38.071
34.157
30.016
25.657
21.087
16.319
11.371
6.268
1.044
-4.254
-9.58
-14.884
-20.121
-25.256
-30.247
-35.056
-39.637
-43.931
-47.883
-51.446
-54.573
-57.227
-59.393
-61.084
-62.346
-63.258
-63.9
-64.334
-64.638
-64.896
-65.207
-65.678
-66.407
-67.481
-69.033
-71.27
-74.312
-78.141
-82.577
-87.25
-91.78
-95.851
-99.048
-100.821
-100.831
-99.116
-96.121
-92.659
-89.581
-87.585
-87.294
-89.399
-93.364
-97.037
-98.262
-95.376
-89.236
-82.784
-75.999
-64.258
-38.534
10.56
85.464
180.084
281.941
378.297
461.901
530.837
586.332
629.005
657.271
668.438
660.43
633.109
587.326
524.857
448.456
360.913
265.542
166.224
66.048
-32.236
-125.421
-210.693
-285.73
-348.431
-397.765
-433.71
-456.262
-465.84
-463.615
-451.138
-430.443
-404.085
-374.414
-343.4
-313.003
-284.753
-259.841
-239.171
-222.89
-210.297
-200.324
-191.673
-183.632
-176.743
-171.015
-165.167
-155.862
-138.501
-111.424
-78.102
-46.959
-27.23
-23.412
-32.853
-47.046
-57.683
-60.812
-57.641
-53.073
-50.911
-52.301
-56.441
-61.309
-65.83
-69.943
-73.705
-77.241
-80.387
-82.822
-84.439
-85.244
-85.271
-84.59
-83.286
-81.467
-79.253
-76.743
-74.011
-71.116
-68.114
-65.079
-62.081
-59.189
-56.49
-54.043
-51.875
-49.996
-48.388
-47.024
-45.878
-44.915
-44.092
-43.37
-42.718
-42.107
-41.518
-40.926
-40.301
-39.61
-38.812
-37.878
-36.796
-35.557
-34.163
-32.617
-30.928
-29.108
-27.181
-25.165
-23.076
-20.927
-18.73
-16.499
-14.253
-12.011
-9.794
-7.621
-5.51
-3.481
-1.552
0.259
1.936
3.462
4.828
6.017
7.017
7.812
8.391
8.74
8.85
8.708
8.306
7.636
6.692
5.469
3.965
2.177
0.104
-2.254
-4.896
-7.818
-11.018
-14.492
-18.233
-22.237
-26.494
-30.998
-35.737
-40.702
-45.882
-51.265
-56.837
-62.585
-68.496
-74.554
-80.745
-87.053
-93.462
-99.955
-106.516
-113.128
-119.774
-126.437
-133.1
-139.745
-146.355
-152.914
-159.405
-165.812
-172.112
-178.286
-184.315
-190.18
-195.867
-201.357
-206.622
-211.648
-216.435
-220.976
-225.268
-229.294
-233.012
-236.405
-239.484
-242.212
-244.521
-246.357
-247.658
-248.411
-248.681
-248.476
-247.71
-246.466
-245.016
-243.401
-241.542
-239.476
-236.887
-234.397
-233.717
-234.365
-234.827
-232.418
-222.255
-204.975
-185.422
