Name,John Breau
Date of Birth,"Dec 20, 1971"
Recorded Date,2023-06-02 08:38:02 -0500
Classification,Sinus Rhythm
Symptoms,
Software Version,1.90
Device,"Watch6,3"
Sample Rate,512 hertz


Lead,Lead I
Unit,µV

-808.377
-1042.412
-1082.554
-930.733
-653.429
-347.933
-99.245
46.168
86.737
55.085
-6.418
-61.105
-85.878
-78.187
-49.45
-16.35
3.887
5.182
-6.354
-21.967
-32.552
-34.843
-33.638
-30.825
-24.255
-10.897
15.031
52.828
94.246
132.671
161.56
179.561
192.184
203.186
215.642
230.954
247.197
263.355
279.089
294.067
308.509
321.996
333.531
342.408
349.84
359.521
374.427
395.334
417.198
429.54
428.188
418.292
416.066
446.184
520.163
627.922
742.642
826.197
850.339
812.822
727.354
614.808
498.054
387.385
288.517
215.259
177.608
183.095
235.384
318.01
407.854
484.993
529.675
539.014
522.349
490.288
457.853
432.392
412.924
397.06
379.563
358.184
334.219
309.228
285.368
263.293
242.32
221.755
200.756
179.082
156.989
134.696
112.539
90.786
69.55
48.948
29.009
9.688
-9.05
-27.256
-44.972
-62.26
-79.26
-96.069
-112.727
-129.304
-145.84
-162.468
-179.471
-197.077
-215.449
-234.64
-254.539
-275.061
-296.177
-317.819
-339.869
-362.037
-383.819
-404.779
-424.605
-442.957
-459.533
-473.884
-485.316
-493.249
-497.273
-497.129
-492.74
-483.986
-470.642
-452.558
-429.784
-402.651
-371.79
-337.789
-301.087
-262.196
-221.659
-180.215
-138.878
-98.496
-59.681
-22.92
11.401
42.822
70.723
94.544
113.99
129.021
139.845
146.663
149.561
148.738
144.508
137.387
128.097
117.191
104.996
91.773
77.766
63.301
48.849
34.852
21.554
9.077
-2.554
-13.312
-23.099
-31.912
-39.871
-47.226
-54.316
-61.348
-68.374
-75.403
-82.447
-89.555
-96.833
-104.36
-112.108
-120.038
-128.112
-136.298
-144.595
-152.949
-161.238
-169.287
-176.906
-183.975
-190.436
-196.256
-201.41
-205.874
-209.629
-212.686
-215.097
-216.9
-218.12
-218.775
-218.879
-218.466
-217.596
-216.336
-214.753
-212.902
-210.83
-208.58
-206.195
-203.71
-201.152
-198.534
-195.863
-193.15
-190.41
-187.659
-184.911
-182.177
-179.461
-176.772
-174.115
-171.494
-168.904
-166.344
-163.806
-161.292
-158.803
-156.344
-153.912
-151.511
-149.143
-146.814
-144.529
-142.287
-140.083
-137.915
-135.79
-133.721
-131.727
-129.83
-128.049
-126.408
-124.935
-123.657
-122.605
-121.799
-121.248
-120.974
-121.007
-121.391
-122.209
-123.523
-125.369
-127.774
-130.736
-134.229
-138.22
-142.633
-147.336
-152.21
-157.14
-162.027
-166.833
-171.485
-175.889
-179.932
-183.428
-186.199
-188.145
-189.208
-189.394
-188.813
-187.585
-185.862
-183.93
-182.093
-180.616
-179.714
-179.486
-180.016
-181.418
-184.017
-188.358
-194.793
-203.585
-214.877
-228.133
-242.427
-256.972
-270.407
-281.848
-291.942
-300.324
-305.706
-305.478
-294.441
-269.662
-234.186
-197.109
-171.002
-166.217
-182.927
-208.046
-222.345
-205.606
-143.522
-35.49
110.894
284.119
468.728
653.344
831.859
999.805
1159.913
1317.629
1474.595
1631.455
1782.344
1916.931
2028.482
2112.38
2168.788
2201.206
2209.002
2188.323
2132.107
2032.565
1889.08
1706.278
1493.274
1263.996
1029.978
803.967
601.623
432.674
302.654
210.214
144.001
95.274
60.309
38.854
34.971
48.761
75.559
109.682
145.213
178.585
207.527
229.03
240.831
242.092
232.94
215.314
190.952
159.69
122.909
81.582
36.634
-7.075
-46.969
-80.275
-103.31
-119.433
-131.79
-143.606
-159.903
-179.415
-199.91
-220.325
-238.513
-254.826
-270.052
-283.541
-294.682
-302.904
-307.858
-309.791
-309.235
-306.633
-302.097
-295.601
-287.214
-276.896
-264.943
-252.092
-238.597
-224.368
-209.755
-195.234
-181.538
-169.909
-160.638
-152.948
-146.537
-141.346
-136.814
-132.387
-126.696
-117.248
-102.734
-83.006
-57.766
-27.156
8.159
47.618
89.477
130.583
168.541
201.405
227.358
245.81
256.73
260.041
256.647
248.496
237.569
226.509
218.074
213.584
213.754
219.201
230.108
246.389
267.483
291.53
316.06
339.596
361.256
380.395
396.483
408.7
416.588
420.789
422.665
423.195
422.908
422.054
420.779
419.566
418.845
418.542
418.194
417.381
415.898
413.738
411.021
407.723
403.744
399.076
393.781
387.949
381.629
374.801
367.385
359.316
350.571
341.148
331.062
320.327
308.949
296.938
284.313
271.1
257.331
243.036
228.247
212.993
197.308
181.23
164.805
148.08
131.102
113.912
96.547
79.049
61.464
43.84
26.229
8.681
-8.752
-26.019
-43.066
-59.838
-76.28
-92.341
-107.969
-123.115
-137.728
-151.76
-165.163
-177.89
-189.901
-201.154
-211.614
-221.244
-230.013
-237.893
-244.857
-250.885
-255.957
-260.056
-263.17
-265.291
-266.415
-266.545
-265.688
-263.856
-261.066
-257.342
-252.714
-247.216
-240.884
-233.759
-225.886
-217.314
-208.096
-198.287
-187.948
-177.138
-165.923
-154.372
-142.554
-130.542
-118.408
-106.222
-94.058
-81.989
-70.09
-58.433
-47.092
-36.14
-25.647
-15.687
-6.327
2.368
10.341
17.539
23.917
29.438
34.074
37.809
40.63
42.532
43.512
43.571
42.716
40.958
38.312
34.791
30.42
25.23
19.264
12.579
5.238
-2.697
-11.152
-20.051
-29.311
-38.837
-48.546
-58.366
-68.215
-78.004
-87.624
-96.945
-105.86
-114.296
-122.188
-129.49
-136.171
-142.204
-147.621
-152.511
-156.956
-161.039
-164.778
-168.119
-171.032
-173.498
-175.5
-177.05
-178.083
-178.453
-178.068
-176.872
-174.798
-171.803
-167.717
-162.247
-155.181
-146.373
-135.803
-123.617
-109.932
-94.871
-78.671
-61.616
-44.154
-26.877
-10.207
5.553
20.092
33.175
44.409
53.233
59.285
62.304
62.112
58.69
51.93
41.709
28.144
11.521
-7.668
-28.763
-51.345
-75.168
-99.948
-125.51
-151.524
-177.534
-203.348
-228.844
-253.838
-278.159
-301.385
-322.911
-342.355
-359.565
-374.597
-387.698
-398.815
-407.621
-413.945
-417.784
-419.511
-419.569
-417.831
-413.72
-406.709
-396.828
-384.5
-369.847
-352.133
-330.032
-302.526
-269.794
-233.106
-193.178
-150.318
-105.692
-61.347
-20.603
12.665
36.724
51.868
57.991
55.414
46.032
32.601
20.266
15.889
23.66
46.146
85.749
142.617
217.153
309.634
418.156
540.743
671.363
799.523
912.773
996.705
1044.974
1059.472
1044.136
1005.993
946.044
860.014
748.394
613.816
462.415
304.244
145.931
-7.395
-149.132
-274.238
-378.69
-460.456
-521.699
-564.379
-588.937
-596.025
-585.488
-562.117
-535.34
-513.05
-502.961
-505.936
-515.513
-525.911
-530.433
-526.082
-515.555
-500.974
-484.656
-467.962
-449.726
-429.684
-408.435
-386.706
-365.788
-346.318
-328.192
-311.274
-295.401
-280.466
-266.44
-253.23
-240.608
-228.334
-216.18
-203.998
-191.838
-179.876
-168.377
-157.564
-147.579
-138.485
-130.269
-122.842
-115.983
-109.494
-103.22
-97.027
-90.895
-84.839
-78.907
-73.134
-67.481
-61.792
-55.819
-49.348
-42.206
-34.325
-25.723
-16.499
-6.872
2.955
12.811
22.551
32.11
41.456
50.576
59.476
68.171
76.612
84.697
92.333
99.425
105.934
111.868
117.272
122.243
126.874
131.25
135.434
139.458
143.324
147.021
150.516
153.754
156.7
159.336
161.649
163.637
165.291
166.589
167.503
168.002
168.054
167.623
166.683
165.215
163.209
160.667
157.599
154.029
149.977
145.469
140.528
135.174
129.433
123.331
116.897
110.16
103.153
95.913
88.479
80.897
73.213
65.47
57.715
49.993
42.348
34.826
27.472
20.327
13.432
6.825
0.543
-5.377
-10.902
-16.002
-20.65
-24.824
-28.505
-31.676
-34.323
-36.442
-38.027
-39.082
-39.611
-39.62
-39.12
-38.127
-36.66
-34.74
-32.394
-29.648
-26.532
-23.082
-19.336
-15.331
-11.105
-6.695
-2.14
2.52
7.243
11.99
16.722
21.396
25.971
30.397
34.629
38.625
42.349
45.763
48.833
51.526
53.813
55.68
57.114
58.103
58.636
58.698
58.283
57.395
56.041
54.223
51.94
49.189
45.974
42.318
38.235
33.73
28.795
23.397
17.525
11.197
4.432
-2.747
-10.303
-18.182
-26.279
-34.432
-42.467
-50.216
-57.537
-64.305
-70.362
-75.538
-79.666
-82.578
-84.185
-84.42
-83.177
-80.393
-76.075
-70.319
-63.4
-55.678
-47.437
-39.054
-31.002
-23.619
-17.184
-11.8
-7.196
-3.097
0.525
3.91
7.734
12.223
17.232
22.621
26.366
26.563
23.956
18.007
10.8
7.374
7.699
13.14
22.22
26.752
27.138
28.523
41.982
89.417
183.722
326.677
513.208
724.714
941.616
1148.828
1328.147
1467.481
1563.132
1615.289
1634.11
1632.294
1618.161
1599.12
1577.906
1555.759
1533.198
1506.743
1474.049
1433.818
1388.121
1343.65
1305.453
1275.915
1254.64
1239.394
1228.881
1222.357
1218.571
1215.205
1209.559
1199.964
1185.751
1166.655
1142.804
1114.357
1081.893
1046.989
1010.996
974.591
938.167
901.703
865.083
828.367
791.367
753.553
714.655
674.654
633.661
592.03
550.052
507.908
465.874
424.286
383.437
343.565
304.822
267.285
231.052
196.261
163.052
131.551
101.868
74.116
48.396
24.77
3.267
-16.172
-33.677
-49.38
-63.501
-76.355
-88.095
-98.766
-108.311
-116.405
-122.77
-127.38
-130.074
-130.667
-129.586
-127.41
-125.209
-125.099
-128.755
-137.171
-150.805
-168.737
-189.214
-211.431
-236.286
-264.304
-294.419
-321.518
-333.845
-319.891
-274.82
-201.516
-112.217
-21.353
62.563
135.928
197.987
247.753
282.012
296.25
287.241
254.421
197.825
118.964
21.856
-88.915
-207.828
-328.767
-447.123
-558.172
-656.266
-736.783
-796.65
-834.951
-853.08
-853.379
-838.167
-810.626
-774.807
-734.76
-693.956
-653.953
-615.005
-577.061
-539.861
-503.289
-467.288
-431.899
-397.986
-367.46
-342.039
-323.054
-311.604
-307.804
-311.064
-320.127
-332.462
-345.201
-356.292
-364.186
-367.772
-366.691
-360.991
-351.361
-339.443
-326.776
-314.235
-302.365
-291.325
-281.058
-271.594
-262.735
-253.948
-244.902
-235.536
-225.936
-216.418
-207.286
-198.656
-190.636
-183.342
-176.8
-171.023
-165.996
-161.63
-157.851
-154.64
-151.991
-149.918
-148.438
-147.532
-147.17
-147.321
-147.95
-149.037
-150.572
-152.549
-154.966
-157.819
-161.103
-164.816
-168.948
-173.479
-178.374
-183.586
-189.065
-194.763
-200.631
-206.62
-212.674
-218.738
-224.757
-230.676
-236.441
-241.995
-247.277
-252.229
-256.792
-260.909
-264.524
-267.585
-270.038
-271.835
-272.932
-273.287
-272.863
-271.628
-269.553
-266.615
-262.796
-258.082
-252.467
-245.95
-238.537
-230.238
-221.072
-211.064
-200.246
-188.653
-176.33
-163.324
-149.69
-135.484
-120.771
-105.615
-90.086
-74.256
-58.201
-41.997
-25.724
-9.46
6.714
22.719
38.477
53.908
68.939
83.496
97.51
110.914
123.646
135.646
146.861
157.241
166.744
175.329
182.965
189.623
195.282
199.926
203.545
206.134
207.694
208.23
207.755
206.287
203.846
200.461
196.161
190.984
184.967
178.153
170.586
162.314
153.383
143.846
133.753
123.157
112.112
100.672
88.892
76.828
64.534
52.063
39.47
26.806
14.12
1.461
-11.128
-23.601
-35.916
-48.034
-59.917
-71.528
-82.833
-93.8
-104.402
-114.611
-124.404
-133.76
-142.661
-151.09
-159.032
-166.472
-173.397
-179.794
-185.653
-190.963
-195.715
-199.905
-203.532
-206.599
-209.11
-211.078
-212.516
-213.442
-213.882
-213.86
-213.4
-212.532
-211.285
-209.69
-207.782
-205.595
-203.162
-200.522
-197.719
-194.799
-191.812
-188.811
-185.851
-182.989
-180.284
-177.791
-175.57
-173.681
-172.176
-171.119
-170.574
-170.615
-171.335
-172.806
-175.08
-178.189
-182.147
-186.927
-192.484
-198.741
-205.583
-212.911
-220.646
-228.725
-237.125
-245.822
-254.785
-263.963
-273.274
-282.647
-292.041
-301.438
-310.826
-320.288
-329.966
-340.09
-351.011
-362.981
-376.144
-390.594
-406.283
-423.108
-440.971
-459.608
-478.614
-497.84
-517.284
-536.915
-556.854
-576.752
-595.764
-613.42
-629.322
-642.458
-651.632
-655.513
-652.304
-641.418
-623.579
-598.554
-567.092
-532.043
-494.575
-456.197
-417.223
-371.933
-319.102
-263.595
-212.636
-181.036
-175.949
-188.818
-204.947
-200.01
-152.267
-58.053
77.972
242.127
414.588
584.306
742.693
880.622
991.239
1065.672
1097.706
1088.677
1049.708
998.065
952.365
929.279
932.1
953.675
981.595
998.421
995.725
974.02
937.224
894.113
849.592
803.78
756.489
706.393
653.408
599.565
547.077
497.286
450.521
406.065
362.534
319.288
276.542
234.165
191.475
148.11
105.724
68.157
39.51
22.74
16.461
16.863
24.707
43.761
80.335
142.507
230.682
338.127
455.918
569.622
664.413
730.791
761.14
755.171
719.634
659.953
581.028
484.04
367.334
232.647
83.423
-74.728
-234.828
-392.288
-542.814
-681.42
-804.913
-910.667
-996.579
-1062.881
-1110.14
-1138.642
-1150.139
-1147.614
-1133.989
-1112.501
-1086.065
-1055.833
-1022.631
-987.394
-950.278
-911.092
-869.525
-824.911
-776.845
-725.804
-672.656
-618.409
-564.126
-510.737
-459.163
-410.422
-365.578
-325.406
-290.19
-259.935
-234.466
-213.419
-196.424
-182.948
-172.115
-163.133
-155.298
-147.869
-140.393
-132.561
-124.003
-114.489
-103.807
-91.611
-77.715
-62.055
-44.565
-25.351
-4.587
17.548
40.67
64.329
88.078
111.399
133.918
155.421
175.692
194.586
211.983
227.683
241.56
253.583
263.697
271.892
278.179
282.55
285.088
285.955
285.326
283.41
280.366
276.281
271.242
265.326
258.595
251.127
242.975
234.16
224.731
214.755
204.305
193.472
182.325
170.91
159.272
147.458
135.521
123.527
111.54
99.62
87.837
76.265
64.982
54.069
43.595
33.614
24.176
15.322
7.089
-0.489
-7.39
-13.599
-19.104
-23.897
-27.972
-31.33
-33.978
-35.93
-37.207
-37.835
-37.844
-37.271
-36.158
-34.552
-32.505
-30.07
-27.303
-24.26
-21.002
-17.591
-14.089
-10.557
-7.06
-3.658
-0.414
2.612
5.366
7.796
9.855
11.5
12.693
13.403
13.604
13.276
12.406
10.983
9.006
6.476
3.403
-0.198
-4.306
-8.893
-13.928
-19.372
-25.181
-31.309
-37.703
-44.309
-51.069
-57.923
-64.809
-71.663
-78.423
-85.023
-91.4
-97.491
-103.236
-108.577
-113.458
-117.828
-121.641
-124.854
-127.432
-129.344
-130.564
-131.076
-130.866
-129.93
-128.269
-125.893
-122.815
-119.059
-114.653
-109.631
-104.035
-97.911
-91.311
-84.291
-76.911
-69.235
-61.331
-53.267
-45.116
-36.948
-28.837
-20.857
-13.079
-5.574
1.587
8.34
14.62
20.369
25.53
30.054
33.896
37.016
39.382
40.966
41.749
41.718
40.866
39.193
36.707
33.422
29.361
24.552
19.028
12.831
6.008
-1.39
-9.303
-17.672
-26.432
-35.513
-44.846
-54.358
-63.975
-73.622
-83.223
-92.704
-101.992
-111.012
-119.695
-127.973
-135.78
-143.056
-149.744
-155.791
-161.151
-165.78
-169.644
-172.709
-174.95
-176.344
-176.878
-176.541
-175.333
-173.255
-170.319
-166.542
-161.948
-156.569
-150.441
-143.607
-136.112
-128.005
-119.338
-110.168
-100.551
-90.548
-80.221
-69.633
-58.85
-47.942
-36.975
-26.019
-15.138
-4.397
6.144
16.425
26.392
35.996
45.189
53.922
62.15
69.827
76.913
83.377
89.19
94.334
98.793
102.567
105.663
108.097
109.889
111.057
111.618
111.591
110.996
109.853
108.186
106.012
103.344
100.205
96.609
92.58
88.147
83.335
78.178
72.724
67.024
61.139
55.141
49.095
43.077
37.172
31.457
26.052
21.085
16.685
13.026
10.251
8.435
7.636
7.833
8.915
10.802
13.296
16.087
19.093
22.349
25.988
30.39
35.739
42.021
49.476
58.212
67.671
76.974
84.86
89.795
90.83
87.199
77.999
62.975
43.88
24.303
7.034
-5.732
-13.644
-18.814
-17.812
-4.572
24.304
74.757
145.528
228.793
321.302
412.864
491.617
551.941
584.822
589.161
572.138
536.744
486.633
423.445
345.293
254.038
154.394
51.297
-50.658
-146.343
-232.205
-305.94
-362.719
-400.746
-418.678
-414.474
-393.462
-361.633
-325.624
-293.651
-266.948
-244.942
-227.697
-213.972
-204.359
-199.031
-195.811
-192.116
-186.097
-177.005
-165.206
-151.462
-136.374
-120.511
-104.927
-91.143
-80.197
-72.447
-67.71
-65.329
-64.902
-66.47
-69.982
-75.239
-82.059
-90.087
-98.787
-107.637
-115.843
-122.041
-125.819
-127.829
-128.35
-127.54
-123.222
-111.784
-91.908
-65.117
-38.104
-18.002
-8.851
-13.212
-25.322
-35.151
-30.819
8.232
97.857
243.26
442.411
677.192
923.104
1161.271
1373.865
1548.001
1677.801
1761.305
1802.404
1814.147
1813.038
1809.006
1808.434
1809.495
1802.362
1783.088
1749.757
1703.696
1652.467
1601.131
1552.923
1509.925
1471.561
1437.428
1408.016
1383.667
1364.477
1349.418
1336.275
1322.938
1307.5
1288.719
1265.883
1238.595
1207.056
1172.129
1135.285
1097.698
1060.077
1022.733
985.657
948.796
912.016
874.932
836.903
797.538
756.765
714.703
671.674
627.933
583.624
538.946
494.165
449.509
405.186
361.369
318.117
275.492
233.584
192.458
152.177
112.775
74.224
36.477
-0.484
-36.669
-72.08
-106.705
-140.55
-173.62
-205.908
-237.413
-268.131
-298.055
-327.187
-355.53
-383.08
-409.83
-435.765
-460.86
-485.096
-508.459
-530.935
-552.514
-573.184
-592.936
-611.76
-629.652
-646.603
-662.604
-677.647
-691.722
-704.819
-716.935
-728.065
-738.211
-747.376
-755.565
-762.786
-769.052
-774.376
-778.776
-782.274
-784.894
-786.662
-787.607
-787.762
-787.16
-785.841
-783.842
-781.206
-777.978
-774.201
-769.924
-765.196
-760.065
-754.581
-748.794
-742.754
-736.509
-730.108
-723.6
-717.03
-710.443
-703.882
-697.386
-690.992
-684.734
-678.641
-672.739
-667.05
-661.593
-656.383
-651.429
-646.739
-642.317
-638.16
-634.266
-630.625
-627.227
-624.054
-621.09
-618.311
-615.694
-613.212
-610.837
-608.537
-606.28
-604.035
-601.766
-599.439
-597.019
-594.47
-591.757
-588.847
-585.707
-582.306
-578.615
-574.609
-570.264
-565.559
-560.476
-555
-549.119
-542.821
-536.099
-528.948
-521.365
-513.349
-504.906
-496.04
-486.762
-477.086
-467.027
-456.605
-445.839
-434.751
-423.368
-411.713
-399.813
-387.695
-375.386
-362.918
-350.322
-337.631
-324.878
-312.099
-299.324
-286.587
-273.919
-261.349
-248.904
-236.609
-224.49
-212.569
-200.871
-189.419
-178.239
-167.359
-156.806
-146.605
-136.778
-127.345
-118.322
-109.721
-101.548
-93.803
-86.477
-79.568
-73.07
-66.986
-61.318
-56.068
-51.232
-46.807
-42.785
-39.159
-35.917
-33.037
-30.481
-28.221
-26.239
-24.536
-23.138
-22.052
-21.253
-20.714
-20.401
-20.266
-20.266
-20.31
-20.251
-19.955
-19.298
-18.199
-16.656
-14.661
-12.165
-9.124
-5.45
-1.106
3.819
9.266
15.225
21.677
28.634
35.962
43.301
50.294
56.641
62.116
66.707
70.328
72.683
73.746
73.646
72.701
71.749
71.493
72.19
74.333
78.504
84.658
92.84
102.822
113.079
122.273
129.494
133.265
133.841
134.038
136.131
142.015
151.438
160.972
171.085
188.018
223.351
289.823
391.041
520.853
664.102
801.756
921.516
1015.198
1079.261
1116.957
1129.162
1116.729
1081.639
1021.012
934.96
827.744
704.003
571.501
437.193
305.237
180.318
67.522
-29.187
-106.953
-164.996
-204.814
-228.009
-236.027
-231.549
-218.302
-200.203
-180.996
-162.847
-146.251
-131.663
-119.482
-109.357
-100.421
-91.367
-80.68
-67.863
-53.424
-37.895
-21.845
-5.892
9.454
23.441
35.189
44.382
51.171
55.886
59.046
61.07
62.224
62.938
63.733
64.974
66.954
69.807
73.497
78.042
83.483
89.79
96.91
104.722
113.04
121.716
130.617
139.567
148.388
156.848
164.7
171.811
178.109
183.572
188.256
192.203
195.459
198.144
200.359
202.157
203.562
204.521
204.965
204.909
204.415
203.603
202.609
201.47
200.2
198.804
197.191
195.278
192.962
190.044
186.424
182.173
177.427
172.473
167.665
163.232
159.331
156.044
153.36
151.299
149.896
149.179
149.318
150.528
153.052
157.279
163.476
171.698
181.956
194.06
207.656
222.497
238.39
255.196
272.957
291.768
311.663
332.636
354.512
376.969
399.64
421.974
443.433
463.587
481.941
498.177
512.179
523.789
532.851
539.205
542.486
542.226
538.101
529.871
517.471
501.046
480.749
456.871
429.8
399.955
367.917
334.172
299.043
262.845
225.831
188.221
150.391
112.796
75.683
39.205
3.352
-32.089
-67.187
-101.982
-136.583
-171.114
-205.834
-240.962
-276.58
-312.725
-349.359
-386.389
-423.761
-461.407
-498.963
-535.915
-571.563
-604.987
-635.529
-662.71
-686.05
-705.169
-719.626
-728.945
-732.738
-730.646
-722.262
-707.286
-685.468
-656.587
-620.953
-579.236
-532.394
-481.922
-429.023
-374.28
-318.319
-261.687
-204.431
-146.745
-88.674
-29.48
30.877
91.261
150.578
207.308
259.406
305.836
345.53
376.242
396.501
405.973
404.31
392.431
372.143
343.824
308.317
268.246
225.935
183.706
144.435
109.296
78.652
54.34
37.437
27.48
24.014
25.41
28.94
33.268
37.438
39.491
38.209
33.015
23.278
9.667
-6.261
-23.744
-42.134
-60.541
-78.639
-96.141
-112.676
-128.504
-144.158
-159.84
-175.683
-191.688
-207.577
-223.144
-238.213
-252.524
-265.868
-278.126
-289.226
-299.18
-308.06
-315.922
-322.832
-328.834
-333.94
-338.163
-341.512
-344.009
-345.697
-346.615
-346.807
-346.309
-345.151
-343.366
-340.987
-338.038
-334.547
-330.539
-326.039
-321.093
-315.757
-310.087
-304.143
-297.984
-291.666
-285.252
-278.805
-272.384
-266.047
-259.849
-253.843
-248.08
-242.613
-237.491
-232.763
-228.474
-224.672
-221.398
-218.691
-216.586
-215.113
-214.288
-214.125
-214.623
-215.776
-217.577
-220.011
-223.059
-226.706
-230.929
-235.712
-241.034
-246.862
-253.159
-259.884
-266.991
-274.436
-282.172
-290.141
-298.284
-306.535
-314.815
-323.046
-331.153
-339.032
-346.569
-353.629
-360.051
-365.715
-370.514
-374.324
-377.015
-378.434
-378.454
-377.038
-374.215
-370.025
-364.551
-357.839
-349.988
-341.258
-331.767
-321.511
-310.386
-298.032
-284.16
-268.697
-251.44
-232.246
-211.487
-189.791
-168.24
-148.322
-130.95
-117.028
-107.56
-102.606
-101.595
-102.034
-100.215
-94.165
-81.926
-63.26
-38.078
-1.773
48.076
113.213
194.403
284.328
376.472
463.932
537.35
593.71
630.508
645.361
638.925
609.347
555.292
479.056
384.621
277.951
166.072
54.453
-52.012
-147.612
-227.298
-287.609
-327.145
-346.943
-349.585
-337.634
-314.336
-284.184
-251.839
-221.668
-196.67
-177.959
-165.663
-159.648
-159.102
-162.453
-167.755
-172.794
-176.275
-178.061
-178.351
-177.528
-176.008
-174.126
-172.393
-171.465
-171.484
-172.126
-172.916
-173.21
-172.604
-170.986
-168.215
-164.176
-158.823
-152.106
-144.072
-134.871
-124.59
-113.283
-101.012
-87.817
-73.832
-59.28
-44.388
-29.391
-14.463
0.304
14.824
29.032
42.883
56.336
69.377
82.022
94.258
106.054
117.377
128.185
138.469
148.243
157.532
166.365
174.769
182.765
190.376
197.629
204.543
211.13
217.402
223.364
229.031
234.427
239.578
244.513
249.261
253.846
258.295
262.633
266.88
271.051
275.158
279.208
283.208
287.162
291.072
294.939
298.761
302.536
306.26
309.928
313.533
317.068
320.522
323.886
327.149
330.3
333.328
336.226
338.986
341.603
344.076
346.405
348.592
350.641
352.559
354.356
356.046
357.643
359.168
360.642
362.092
363.55
365.053
366.637
368.339
370.2
372.26
374.564
377.162
380.101
383.419
387.168
391.413
396.205
401.6
407.641
414.328
421.668
429.69
438.362
447.611
457.4
467.679
478.415
489.678
501.513
513.874
526.891
540.891
555.851
571.536
587.944
604.592
621.802
641.404
662.811
683.977
701.852
709.662
705.972
696.05
686.81
690.957
714.987
753.361
796.986
830.104
841.326
832.025
808.791
784.018
767.96
762.152
763.769
766.454
765.037
758.277
746.768
732.356
716.13
698.037
677.954
655.706
631.416
605.456
578.027
549.243
519.236
488.096
455.92
422.805
388.826
354.08
318.703
282.855
246.69
210.355
174.001
137.776
101.829
66.309
31.353
-2.909
-36.349
-68.848
-100.292
-130.574
-159.596
-187.269
-213.514
-238.258
-261.443
-283.014
-302.932
-321.164
-337.689
-352.492
-365.573
-376.935
-386.595
-394.573
-400.901
-405.614
-408.756
-410.379
-410.537
-409.291
-406.705
-402.848
-397.794
-391.616
-384.392
-376.2
-367.117
-357.222
-346.595
-335.314
-323.456
-311.096
-298.308
-285.165
-271.739
-258.098
-244.31
-230.434
-216.528
-202.646
-188.842
-175.165
-161.661
-148.375
-135.346
-122.616
-110.227
-98.218
-86.628
-75.485
-64.819
-54.657
-45.021
-35.944
-27.454
-19.575
-12.33
-5.741
0.175
5.394
9.899
13.682
16.737
19.063
20.663
21.53
21.666
21.064
19.718
17.657
14.907
11.503
7.496
2.882
-2.34
-8.129
-14.456
-21.27
-28.467
-36.08
-44.154
-52.471
-60.864
-69.145
-77.048
-84.736
-92.471
-100.094
-107.486
-114.933
-122.538
-130.673
-139.855
-149.47
-158.818
-167.843
-176.319
-183.794
-190.104
-194.504
-196.117
-195.573
-193.494
-189.929
-185.215
-179.542
-172.894
-165.924
-159.328
-152.623
-145.395
-137.559
-128.855
-119.433
-109.561
-99.076
-87.792
-76.133
-64.652
-53.672
-43.422
-33.665
-23.756
-13.292
-2.372
9.124
21.674
35.124
49.034
62.68
73.972
81.912
87.977
92.031
93.162
90.282
79.659
63.321
50.081
48.656
68.254
110.177
166.381
228.807
289.446
344.463
393.764
434.273
462.371
474.025
465.021
434.154
380.844
304.417
206.715
91.719
-35.24
-168.143
-302.23
-433.711
-558.001
-669.366
-762.61
-834.895
-885.922
-916.999
-929.709
-925.803
-907.971
-880.625
-848.749
-815.81
-783.653
-752.938
-723.7
-695.874
-669.017
-641.648
-611.966
-579.136
-543.053
-504.238
-463.548
-421.625
-379.13
-337.053
-296.535
-258.422
-223.2
-190.985
-161.75
-135.548
-112.431
-92.467
-75.446
-60.982
-48.867
-38.9
-30.927
-24.933
-20.81
-18.337
-17.333
-17.524
-18.558
-20.311
-22.661
-25.428
-28.549
-31.847
-35.268
-39.063
-43.396
-48.404
-54.247
-60.87
-68.184
-76.282
-85.203
-94.991
-105.781
-117.408
-129.577
-142.124
-154.747
-167.176
-179.104
-189.939
-199.129
-206.239
-210.807
-212.543
-211.293
-206.779
-198.795
-187.251
-171.966
-153.042
-130.812
-105.486
-77.434
-47.105
-14.936
18.408
52.209
85.845
118.622
149.867
179.098
205.789
229.454
249.756
266.23
278.602
286.852
290.909
290.833
286.8
278.956
267.586
253.135
236.03
216.794
196.056
174.262
151.843
129.236
106.782
84.934
64.068
44.364
25.983
9.033
-6.447
-20.385
-32.757
-43.709
-53.406
-62.074
-70.038
-77.492
-84.585
-91.482
-98.299
-105.191
-112.295
-119.641
-127.211
-134.996
-142.973
-151.139
-159.492
-167.937
-176.361
-184.641
-192.62
-200.201
-207.326
-213.93
-219.971
-225.422
-230.261
-234.508
-238.215
-241.417
-244.142
-246.417
-248.26
-249.718
-250.846
-251.692
-252.31
-252.741
-253.018
-253.178
-253.252
-253.259
-253.216
-253.132
-253.01
-252.858
-252.69
-252.516
-252.351
-252.205
-252.088
-252.01
-251.983
-252.013
-252.102
-252.253
-252.463
-252.728
-253.045
-253.41
-253.815
-254.251
-254.709
-255.177
-255.646
-256.102
-256.533
-256.925
-257.264
-257.536
-257.73
-257.831
-257.827
-257.706
-257.457
-257.069
-256.53
-255.832
-254.963
-253.913
-252.675
-251.238
-249.596
-247.741
-245.666
-243.367
-240.841
-238.087
-235.105
-231.896
-228.463
-224.811
-220.946
-216.874
-212.602
-208.139
-203.492
-198.672
-193.688
-188.553
-183.277
-177.876
-172.36
-166.744
-161.04
-155.263
-149.426
-143.541
-137.618
-131.667
-125.698
-119.721
-113.743
-107.772
-101.815
-95.876
-89.961
-84.074
-78.215
-72.383
-66.577
-60.795
-55.031
-49.282
-43.538
-37.788
-32.027
-26.251
-20.442
-14.584
-8.661
-2.65
3.452
9.644
15.95
22.397
28.962
35.633
42.397
49.227
56.146
63.197
70.343
77.529
84.879
92.541
100.406
108.473
116.764
124.933
133.884
144.493
155.466
166.394
174.915
178.204
179.333
180.34
184.27
195.316
209.706
224.242
236.709
243.467
247.022
249.897
252.606
256.683
261.156
264.8
267.82
270.055
271.618
272.82
273.562
273.793
273.634
273.157
272.441
271.563
270.575
269.539
268.526
267.576
266.71
265.942
265.191
264.356
263.267
261.633
259.196
255.649
250.564
243.448
233.981
222.133
208.159
192.604
175.944
158.505
140.843
123.822
107.911
92.803
77.617
60.597
40.022
15.208
-14.661
-49.625
-87.384
-125.104
-159.421
-188.968
-215.956
-240.153
-257.269
-255.16
-216.931
-135.811
-14.274
134.579
289.821
440.798
580.757
702.331
802.375
872.536
907.454
910.844
886.481
839.351
771.718
682.336
573.301
448.859
315.085
178.864
45.172
-80.763
-192.901
-286.825
-360.191
-412.857
-446.425
-462.413
-462.544
-449.912
-429.253
-405.655
-382.488
-361.088
-341.62
-324.016
-308.219
-293.807
-279.182
-262.111
-241.465
-217.345
-190.582
-162.322
-133.412
-104.432
-76.308
-50.219
-26.899
-6.637
10.702
25.601
38.437
49.462
58.973
67.316
74.872
82.084
89.28
96.612
104.175
111.999
120.116
128.577
137.365
146.369
155.435
164.395
173.107
181.469
189.36
196.635
203.119
208.618
213
216.194
218.147
218.855
218.329
216.587
213.693
209.74
204.795
198.94
192.279
184.863
176.715
167.895
158.457
148.498
138.188
127.638
116.863
106.017
95.471
85.383
75.727
66.597
57.776
49.809
44.553
41.84
40.015
36.562
26.46
9.623
-8.732
-23.565
-27.716
-20.135
-7.712
4.178
9.91
8.005
3.542
-0.226
-1.274
1.184
5.027
9.145
13.571
18.151
23.12
28.517
33.987
39.362
44.62
49.685
54.476
58.936
63.014
66.672
69.9
72.664
74.893
76.534
77.554
77.919
77.605
76.592
74.863
72.41
69.238
65.355
60.776
55.524
49.622
43.104
36.007
28.373
20.248
11.685
2.737
-6.537
-16.076
-25.818
-35.699
-45.653
-55.614
-65.517
-75.295
-84.886
-94.225
-103.254
-111.912
-120.146
-127.903
-135.135
-141.798
-147.853
-153.265
-158.005
-162.047
-165.372
-167.966
-169.821
-170.932
-171.302
-170.935
-169.845
-168.047
-165.563
-162.417
-158.639
-154.262
-149.324
-143.865
-137.929
-131.56
-124.809
-117.724
-110.357
-102.761
-94.989
-87.095
-79.132
-71.153
-63.212
-55.357
-47.639
-40.105
-32.798
-25.762
-19.035
-12.651
-6.643
-1.039
4.137
8.866
13.13
16.918
20.224
23.044
25.378
27.234
28.621
29.552
30.047
30.129
29.823
29.159
28.17
26.894
25.369
23.637
21.744
19.735
17.66
15.568
13.511
11.54
9.709
8.069
6.673
5.571
4.815
4.451
4.525
5.08
6.154
7.786
10.007
12.847
16.33
20.475
25.296
30.805
37.006
43.901
51.484
59.745
68.667
78.233
88.418
99.193
110.525
122.373
134.696
147.45
160.588
174.064
187.825
201.815
215.973
230.235
244.536
258.807
272.978
286.973
300.72
314.149
327.196
339.801
351.909
363.455
374.373
384.589
394.035
402.654
410.396
417.218
423.089
427.983
431.888
434.807
436.747
437.716
437.723
436.762
434.828
431.952
428.199
423.689
418.557
412.898
406.757
400.152
393.112
385.705
378.03
370.113
361.88
353.352
344.729
336.425
328.834
322.031
315.644
309.177
302.469
295.332
287.241
277.294
264.464
248.298
229.41
208.829
186.897
164.002
140.962
119.033
100.134
85.778
76.236
71.49
72.242
78.821
91.14
108.599
129.197
150.927
172.399
191.984
208.019
219.489
225.51
225.7
220.954
212.191
200.407
186.746
171.277
153.575
133.362
110.24
83.722
53.533
19.515
-17.372
-54.329
-88.058
-115.043
-132.206
-137.018
-126.56
-98.735
-53.75
6.27
77.747
156.058
237.303
317.098
389.066
447.35
487.36
505.547
500.675
472.185
419.479
344.468
251.08
144.239
27.115
-100.055
-234.912
-371.953
-498.623
-596.907
-656.998
-677.131
-664.243
-633.945
-595.839
-554.595
-513.111
-469.69
-425.415
-383.272
-344.648
-311.358
-283.945
-261.14
-241.343
-222.705
-203.48
-183.071
-161.774
-140.179
-119.089
-99.256
-81.365
-66.189
-54.538
-46.923
-43.464
-43.993
-48.083
-55.228
-64.957
-76.783
-90.102
-104.294
-118.885
-133.508
-147.908
-161.957
-175.499
-188.318
-200.219
-210.949
-220.213
-227.854
-233.786
-237.957
-240.411
-241.199
-240.441
-238.397
-235.273
-231.182
-226.186
-220.243
-213.307
-205.409
-196.562
-186.781
-176.143
-164.682
-152.423
-139.423
-125.686
-111.189
-95.889
-79.678
-62.468
-44.241
-25.017
-4.855
16.154
37.934
60.383
83.366
106.766
130.467
154.355
178.332
202.285
226.071
249.548
272.557
294.938
316.549
337.252
356.919
375.432
392.686
408.59
423.07
436.06
447.494
457.31
465.455
471.882
476.558
479.46
480.573
479.894
477.432
473.211
467.267
459.643
450.393
439.577
427.267
413.541
398.483
382.186
364.747
346.268
326.859
306.632
285.704
264.192
242.216
219.895
197.347
174.69
152.037
129.499
107.181
85.183
63.603
42.531
22.052
2.243
-16.824
-35.087
-52.488
-68.981
-84.527
-99.095
-112.663
-125.219
-136.757
-147.277
-156.789
-165.309
-172.859
-179.467
-185.164
-189.99
-193.987
-197.202
-199.684
-201.486
-202.664
-203.275
-203.377
-203.031
-202.297
-201.235
-199.903
-198.358
-196.657
-194.852
-192.995
-191.133
-189.309
-187.564
-185.934
-184.453
-183.146
-182.039
-181.15
-180.492
-180.077
-179.91
-179.994
-180.329
-180.911
-181.733
-182.789
-184.07
-185.565
-187.264
-189.153
-191.221
-193.454
-195.837
-198.356
-200.995
-203.737
-206.568
-209.474
-212.442
-215.461
-218.52
-221.612
-224.73
-227.869
-231.027
-234.202
-237.395
-240.607
-243.846
-247.117
-250.431
-253.797
-257.23
-260.74
-264.342
-268.048
-271.868
-275.811
-279.882
-284.084
-288.417
-292.874
-297.446
-302.12
-306.888
-311.737
-316.654
-321.628
-326.642
-331.682
-336.731
-341.768
-346.764
-351.682
-356.476
-361.095
-365.492
-369.621
-373.434
-376.886
-379.928
-382.517
-384.626
-386.216
-387.24
-387.641
-387.335
-386.254
-384.378
-381.703
-378.249
-374.078
-369.235
-363.783
-357.82
-351.413
-344.593
-337.361
-329.642
-321.366
-312.518
-303.118
-293.257
-283.027
-272.428
-261.448
-250.059
-238.148
-225.642
-212.449
-198.375
-183.328
-167.358
-150.599
-133.375
-116.083
-98.983
-82.275
-66.088
-50.485
-35.643
-21.756
-8.983
2.41
12.175
20.058
25.65
28.656
29.04
26.907
22.631
16.784
9.737
1.761
-6.902
-16.14
-25.787
-35.639
-45.597
-55.497
-65.085
-74.102
-82.149
-88.837
-94.057
-97.832
-100.396
-102.283
-103.892
-105.455
-107.225
-109.292
-111.604
-114.211
-117.123
-120.098
-122.921
-125.245
-126.483
-126.26
-124.339
-120.198
-113.094
-102.647
-88.96
-72.922
-56.287
-40.44
-26.115
-14.22
-5.698
-0.313
3.4
8.277
18.514
37.483
67.199
110.029
168.41
242.73
331.473
431.187
536.158
641.361
743.388
836.448
913.37
969.535
1000.538
1006.032
989.957
951.634
889.583
802.078
685.43
542.695
381.447
212.613
52.462
-85.723
-193.804
-271.267
-326.706
-368.947
-403.449
-430.145
-443.389
-440.498
-423.459
-396.464
-365.511
-333.269
-298.718
-261.741
-222.752
-182.3
-141.551
-100.717
-59.251
-18.492
18.788
50.955
77.22
97.872
114.465
127.717
137.592
145.104
152.04
159.661
168.711
178.88
188.781
197.733
205.842
213.065
219.178
223.964
227.219
229.195
230.683
232.144
233.629
235.058
236.212
236.945
237.249
237.038
236.085
234.201
231.231
227.061
221.719
215.258
207.697
199.077
189.445
178.873
167.498
155.491
142.997
130.148
117.063
103.853
90.641
77.561
64.732
52.266
40.258
28.801
17.984
7.896
-1.382
-9.783
-17.258
-23.772
-29.294
-33.794
-37.248
-39.642
-40.97
-41.235
-40.448
-38.625
-35.791
-31.986
-27.255
-21.654
-15.246
-8.1
-0.289
8.107
17.007
26.326
35.975
45.863
55.898
65.989
76.044
85.975
95.691
105.108
114.142
122.714
130.75
138.18
144.941
150.975
156.229
160.66
164.228
166.904
168.663
169.491
169.378
168.322
166.33
163.415
159.6
154.913
149.388
143.068
136
128.238
119.84
110.869
101.392
91.481
81.208
70.65
59.886
48.994
38.055
27.149
16.356
5.753
-4.581
-14.573
-24.152
-33.249
-41.802
-49.75
-57.04
-63.622
-69.453
-74.495
-78.717
-82.093
-84.605
-86.241
-86.995
-86.868
-85.869
-84.012
-81.319
-77.818
-73.544
-68.537
-62.844
-56.519
-49.619
-42.207
-34.35
-26.121
-17.596
-8.852
0.03
8.966
17.872
26.662
35.253
43.561
51.502
58.996
65.966
72.338
78.04
83.008
87.181
90.502
92.922
94.397
94.889
94.369
92.812
90.203
86.533
81.802
76.016
69.19
61.347
52.517
42.737
32.054
20.518
8.19
-4.865
-18.577
-32.867
-47.655
-62.854
-78.375
-94.124
-110.006
-125.926
-141.787
-157.492
-172.944
-188.048
-202.712
-216.845
-230.36
-243.173
-255.203
-266.376
-276.621
-285.875
-294.08
-301.183
-307.14
-311.914
-315.475
-317.799
-318.872
-318.686
-317.242
-314.547
-310.618
-305.479
-299.159
-291.696
-283.134
-273.524
-262.921
-251.386
-238.985
-225.785
-211.859
-197.28
-182.127
-166.479
-150.415
-134.018
-117.37
-100.555
-83.657
-66.761
-49.949
-33.3
-16.893
-0.804
14.893
30.127
44.835
58.956
72.432
85.21
97.241
108.481
118.892
128.441
137.101
144.849
151.668
157.547
162.48
166.469
169.517
171.629
172.815
173.085
172.459
170.959
168.611
165.449
161.512
156.849
151.518
145.58
139.088
132.105
124.689
116.896
108.781
100.392
91.77
82.966
74.03
65.01
55.95
46.885
37.84
28.851
19.959
11.2
2.622
-5.741
-13.861
-21.672
-29.092
-36.025
-42.361
-48.036
-53
-57.173
-60.455
-62.735
-63.951
-64.135
-63.384
-61.801
-59.496
-56.552
-53.133
-49.561
-45.991
-42.466
-38.936
-35.059
-30.609
-25.604
-19.862
-13.249
-6.209
0.719
6.836
10.697
11.241
7.779
-0.82
-13.815
-28.251
-41.725
-52.106
-59.809
-68.331
-77.029
-80.336
-68.668
-30.848
35.751
125.2
225.339
320.003
398.701
454.959
486.032
495.764
486.093
458.482
414.594
351.032
267.288
166.545
52.123
-69.509
-192.86
-315.117
-432.48
-540.286
-634.534
-711.619
-769.159
-807.276
-826.215
-825.665
-806.378
-770.292
-720.353
-660.818
-596.251
-529.685
-464.09
-402.91
-348.856
-304.274
-270.397
-246.469
-230.645
-221.349
-216.635
-214.1
-211.876
-208.023
-201.095
-190.892
-177.841
-162.499
-145.832
-129.038
-112.776
-97.562
-83.729
-71.127
-59.546
-48.754
-38.268
-27.504
-16.176
-4.173
8.468
21.525
34.857
48.37
61.877
75.158
88.009
100.239
111.765
122.597
132.737
142.187
150.949
159.015
166.427
173.267
179.599
185.463
190.881
195.859
200.424
204.617
208.48
212.045
215.332
218.353
221.124
223.664
225.989
228.11
230.025
231.722
233.198
234.455
235.494
236.321
236.934
237.33
237.506
237.463
237.196
236.697
235.955
234.955
233.683
232.129
230.279
228.121
225.644
222.839
219.696
216.209
212.372
208.18
203.627
198.712
193.435
187.796
181.799
175.447
168.747
161.707
154.335
146.646
138.649
130.361
121.796
112.971
103.907
94.624
85.144
75.49
65.687
55.764
45.748
35.671
25.563
15.457
5.385
-4.62
-14.524
-24.295
-33.901
-43.309
-52.489
-61.41
-70.044
-78.363
-86.34
-93.952
-101.174
-107.986
-114.368
-120.303
-125.776
-130.772
-135.282
-139.295
-142.803
-145.801
-148.286
-150.256
-151.711
-152.654
-153.088
-153.021
-152.46
-151.416
-149.899
-147.924
-145.506
-142.66
-139.404
-135.757
-131.737
-127.365
-122.66
-117.644
-112.337
-106.76
-100.933
-94.877
-88.61
-82.151
-75.519
-68.732
-61.805
-54.755
-47.599
-40.349
-33.021
-25.629
-18.185
-10.703
-3.196
4.325
11.848
19.36
26.85
34.308
41.722
49.079
56.37
63.582
70.704
77.722
84.625
91.399
98.03
104.503
110.802
116.911
122.812
128.484
133.908
139.061
143.919
148.459
152.654
156.48
159.91
162.916
165.473
167.554
169.133
170.186
170.688
170.616
169.949
168.666
166.75
164.185
160.958
157.059
152.481
147.221
141.277
134.654
127.356
119.393
110.779
101.531
91.672
81.228
70.228
58.71
46.714
34.289
21.484
8.355
-5.04
-18.639
-32.377
-46.186
-59.997
-73.741
-87.344
-100.733
-113.834
-126.571
-138.87
-150.659
-161.863
-172.414
-182.246
-191.295
-199.505
-206.825
-213.206
-218.605
-222.984
-226.307
-228.546
-229.682
-229.698
-228.586
-226.348
-222.995
-218.552
-213.054
-206.542
-199.065
-190.677
-181.44
-171.419
-160.683
-149.299
-137.337
-124.873
-111.991
-98.781
-85.336
-71.754
-58.134
-44.58
-31.195
-18.08
-5.334
6.952
18.696
29.809
40.204
49.784
58.439
66.086
72.655
78.079
82.308
85.313
87.083
87.646
87.071
85.426
82.792
79.258
74.902
69.814
64.066
57.732
50.91
43.638
35.932
27.815
19.292
10.386
1.105
-8.617
-18.949
-30.075
-42.18
-55.455
-70.117
-86.453
-104.576
-124.368
-145.474
-167.162
-188.745
-209.749
-229.539
-247.36
-262.852
-276.201
-288.288
-300.842
-315.213
-331.771
-350.975
-373.346
-398.605
-425.597
-450.47
-467.759
-474.1
-466.866
-446.106
-411.913
-359.389
-286.436
-191.794
-76.029
50.79
180.399
305.499
415.891
507.994
578.913
624.41
644.575
639.022
606.503
548.725
469.359
372.885
265.449
153.981
43.473
-61.662
-156.015
-235.856
-298.911
-343.136
-368.882
-378.093
-371.719
-351.579
-321.025
-282.554
-239.078
-194.49
-150.936
-109.983
-74.302
-45.323
-23.511
-9.963
-4.364
-5.006
-11.077
-21.377
-33.669
-46.801
-59.727
-70.673
-79.055
-85.091
-88.683
-90.474
-91.584
-92.286
-92.969
-94.401
-96.751
-100.063
-104.365
-109.097
-113.599
-117.635
-121.018
-123.617
-125.501
-126.642
-127.06
-126.992
-126.702
-126.394
-126.177
-126.027
-125.87
-125.668
-125.398
-125.047
-124.576
-123.913
-123.011
-121.85
-120.42
-118.726
-116.747
-114.435
-111.749
-108.652
-105.111
-101.115
-96.649
-91.698
-86.255
-80.318
-73.892
-66.99
-59.626
-51.806
-43.541
-34.841
-25.716
-16.184
-6.263
4.027
14.659
25.603
36.824
48.281
59.931
71.731
83.633
95.589
107.552
119.473
131.305
142.999
154.508
165.781
176.774
187.438
197.729
207.602
217.015
225.928
234.305
242.114
249.327
255.919
261.866
267.152
271.76
275.681
278.908
281.438
283.271
284.412
284.872
284.666
283.813
282.337
280.264
277.623
274.45
270.779
266.649
262.099
257.171
251.907
246.352
240.55
234.545
228.383
222.106
215.758
209.382
203.016
196.7
190.469
184.357
178.394
172.609
167.026
161.668
156.553
151.696
147.111
142.805
138.785
135.052
131.607
128.444
125.559
122.942
120.582
118.464
116.575
114.896
113.409
112.093
110.928
109.892
108.963
108.118
107.334
106.589
105.862
105.13
104.374
103.573
102.711
101.769
100.733
99.589
98.325
96.931
95.398
93.721
91.893
89.911
87.774
85.479
83.028
80.422
77.663
74.753
71.697
68.498
65.16
61.689
58.088
54.362
50.517
46.556
42.483
38.303
34.019
29.636
25.156
20.583
15.921
11.173
6.34
1.427
-3.565
-8.632
-13.773
-18.984
-24.264
-29.608
-35.012
-40.473
-45.984
-51.539
-57.13
-62.748
-68.382
-74.022
-79.652
-85.258
-90.822
-96.324
-101.744
-107.057
-112.239
-117.263
-122.101
-126.723
-131.099
-135.2
-138.994
-142.45
-145.539
-148.231
-150.496
-152.306
-153.634
-154.455
-154.745
-154.482
-153.647
-152.224
-150.198
-147.56
-144.301
-140.418
-135.908
-130.774
-125.021
-118.657
-111.695
-104.153
-96.052
-87.417
-78.28
-68.675
-58.644
-48.23
-37.479
-26.44
-15.162
-3.699
7.897
19.571
31.269
42.935
54.515
65.954
77.197
88.193
98.892
109.248
119.218
128.764
137.852
146.45
154.531
162.069
169.044
175.439
181.241
186.443
191.05
195.067
198.511
201.404
203.775
205.656
207.086
208.102
208.741
209.047
209.064
208.841
208.42
207.837
207.117
206.288
205.364
204.361
203.291
202.161
200.997
199.836
198.724
197.721
196.885
196.265
195.904
195.834
196.103
196.788
198.011
199.918
202.637
206.261
210.873
216.513
223.142
230.698
238.95
247.5
256.157
264.891
273.852
283.443
293.882
305.044
316.953
329.777
343.051
355.845
366.466
372.552
372.695
366.251
352.667
331.673
303.632
270.784
237.01
206.093
181.304
162.747
150.337
148.058
157.576
182.643
226.376
283.697
353.254
429.599
501.319
561.782
600.647
613.374
606.018
583.094
549.829
507.13
448.91
372.739
280.04
174.846
63.861
-48.42
-159.058
-264.126
-358.775
-438.484
-500.742
-545.224
-573.062
-585.552
-584.14
-571.322
-551.098
-527.87
-504.624
-482.848
-463
-445.037
-428.743
-413.534
-398
-380.395
-359.956
-336.754
-311.262
-284.267
-256.41
-228.249
-200.658
-174.6
-150.585
-128.726
-108.874
-90.73
-74.157
-59.069
-45.25
-32.381
-20.081
-8.073
3.74
15.378
26.854
38.192
49.412
60.479
71.256
81.577
91.3
100.311
108.545
115.915
122.309
127.598
131.631
134.315
135.619
135.523
134.027
131.161
126.962
121.507
114.926
107.329
98.807
89.482
79.465
68.839
57.711
46.196
34.396
22.459
10.546
-1.252
-12.868
-24.07
-34.61
-44.484
-53.607
-61.869
-69.507
-75.593
-79.226
-81.534
-82.826
-85.239
-91.346
-98.233
-103.961
-105.658
-99.393
-88.665
-76.451
-64.807
-57.121
-51.051
-44.233
-36.195
-25.534
-13.187
-0.343
13.118
26.959
41.158
55.837
70.749
85.672
100.543
115.266
129.725
143.824
157.473
170.582
183.081
194.908
205.974
216.193
225.5
233.831
241.131
247.356
252.463
256.417
259.198
260.792
261.191
260.4
258.427
255.289
251.011
245.626
239.172
231.694
223.244
213.879
203.659
192.651
180.924
168.551
155.608
142.173
128.323
114.14
99.703
85.093
70.388
55.667
41.004
26.473
12.144
-1.916
-15.646
-28.986
-41.883
-54.288
-66.159
-77.456
-88.149
-98.211
-107.621
-116.364
-124.431
-131.819
-138.528
-144.566
-149.946
-154.684
-158.801
-162.324
-165.282
-167.71
-169.642
-171.119
-172.182
-172.876
-173.243
-173.332
-173.187
-172.854
-172.38
-171.81
-171.186
-170.551
-169.943
-169.4
-168.955
-168.64
-168.482
-168.505
-168.729
-169.171
-169.842
-170.752
-171.906
-173.303
-174.942
-176.814
-178.911
-181.217
-183.716
-186.387
-189.207
-192.149
-195.186
-198.288
-201.423
-204.557
-207.658
-210.691
-213.623
-216.42
-219.05
-221.483
-223.688
-225.638
-227.309
-228.678
-229.727
-230.439
-230.801
-230.804
-230.442
-229.711
-228.611
-227.147
-225.322
-223.147
-220.634
-217.798
-214.656
-211.23
-207.541
-203.615
-199.478
-195.16
-190.689
-186.096
-181.413
-176.67
-171.898
-167.129
-162.393
-157.718
-153.131
-148.658
-144.321
-140.142
-136.136
-132.318
-128.697
-125.282
-122.076
-119.083
-116.301
-113.727
-111.359
-109.191
-107.219
-105.434
-103.827
-102.387
-101.102
-99.959
-98.945
-98.045
-97.243
-96.524
-95.873
-95.28
-94.732
-94.219
-93.732
-93.262
-92.803
-92.35
-91.899
-91.447
-90.993
-90.536
-90.084
-89.647
-89.241
-88.88
-88.579
-88.352
-88.212
-88.167
-88.224
-88.38
-88.634
-88.985
-89.433
-89.98
-90.639
-91.42
-92.342
-93.423
-94.67
-96.09
-97.69
-99.476
-101.454
-103.628
-105.99
-108.524
-111.214
-114.031
-116.95
-119.94
-122.932
-125.845
-128.574
-131.001
-133.044
-134.621
-135.637
-135.975
-135.501
-134.117
-131.799
-128.599
-124.616
-119.987
-114.779
-109.104
-103.246
-97.388
-91.647
-85.993
-79.98
-73.088
-65.106
-55.999
-45.666
-34.305
-22.264
-10.22
0.119
6.637
8.662
7.4
4.255
1.391
-2.286
-11.939
-28.288
-49.007
-64.914
-58.258
-18.047
60.303
172.835
301.204
426.978
532.922
605.111
643.069
651.795
639.056
612.302
571.318
513.555
437.506
344.897
241.655
134.448
29.525
-67.667
-151.874
-218.777
-266.59
-295.865
-308.508
-306.605
-292.32
-268.518
-239.595
-210.326
-183.858
-161.56
-143.653
-130.043
-120.603
-114.878
-111.321
-107.74
-102.784
-96.051
-87.872
-78.922
-69.692
-60.529
-52.029
-44.99
-39.86
-36.713
-35.238
-34.828
-34.956
-35.197
-35.237
-34.841
-33.84
-32.122
-29.601
-26.275
-22.166
-17.31
-11.735
-5.445
1.545
9.188
17.353
25.874
34.573
43.264
51.838
60.229
68.374
76.232
83.775
90.983
97.866
104.45
110.733
116.693
122.311
127.564
132.458
137.006
141.222
145.123
148.716
152.003
154.987
157.665
160.025
162.049
163.716
164.997
165.876
166.338
166.372
165.969
165.12
163.816
162.05
159.816
157.107
153.914
150.227
146.037
141.338
136.125
130.394
124.146
117.382
110.107
102.328
94.054
85.296
76.067
66.383
56.261
45.721
34.783
23.473
11.818
-0.152
-12.404
-24.901
-37.607
-50.48
-63.481
-76.566
-89.692
-102.813
-115.885
-128.863
-141.7
-154.349
-166.765
-178.899
-190.704
-202.136
-213.149
-223.698
-233.742
-243.239
-252.151
-260.44
-268.074
-275.018
-281.244
-286.723
-291.432
-295.347
-298.452
-300.73
-302.17
-302.763
-302.505
-301.396
-299.438
-296.638
-293.008
-288.561
-283.315
-277.29
-270.512
-263.005
-254.8
-245.929
-236.427
-226.329
-215.676
-204.507
-192.866
-180.796
-168.344
-155.555
-142.477
-129.16
-115.653
-102.004
-88.266
-74.487
-60.719
-47.012
-33.416
-19.979
-6.749
6.227
18.903
31.238
43.189
54.719
65.79
76.368
86.422
95.923
104.845
113.164
120.859
127.912
134.306
140.03
145.073
149.427
153.089
156.054
158.325
159.904
160.797
161.012
160.562
159.46
157.722
155.369
152.42
148.903
144.842
140.267
135.209
129.7
123.774
117.467
110.818
103.863
96.638
89.18
81.526
73.716
65.796
57.807
49.779
41.757
33.797
25.947
18.266
10.798
3.54
-3.481
-10.206
-16.632
-22.779
-28.645
-34.267
-39.637
-44.615
-49.129
-53.224
-56.757
-59.431
-61.232
-62.203
-62.242
-61.826
-60.463
-56.154
-49.398
-41.944
-36.386
-39.133
-50.6
-64.071
-73.71
-69.346
-47.839
-19.727
7.204
23.569
24.041
17.963
11.905
10.428
17.877
29.283
40.906
52.158
61.257
69.472
78.076
86.496
94.768
102.815
110.336
117.441
124.228
130.627
136.615
142.217
147.407
152.121
156.319
159.962
163.011
165.467
167.33
168.585
169.219
169.226
168.595
167.312
165.369
162.764
159.508
155.625
151.145
146.096
140.512
134.447
127.931
120.99
113.631
105.826
97.573
88.915
79.906
70.627
61.187
51.667
42.161
32.808
23.704
14.916
6.469
-1.709
-9.669
-17.381
-24.759
-31.636
-37.883
-43.484
-48.427
-52.682
-56.263
-59.177
-61.549
-63.711
-65.956
-68.437
-71.156
-73.985
-76.917
-79.998
-83.221
-86.433
-89.07
-90.52
-90.474
-88.548
-84.249
-77.615
-68.967
-59.023
-49.59
-41.52
-34.48
-29.179
-26.751
-29.975
-42.68
-64.448
-88.778
-103.853
-96.482
-59.031
5.93
87.557
174.942
262.956
353.105
448.969
546.94
633.619
693.65
717.56
705.883
668.527
615.364
550.065
472.779
382.38
279.877
169.816
57.546
-51.656
-152.645
-240.134
-310.049
-360.895
-392.911
-407.495
-406.253
-390.92
-364.36
-331.115
-296.067
-262.473
-232.003
-205.319
-182.672
-164.204
-149.578
-137.382
-125.562
-112.97
-99.43
-85.228
-70.994
-57.198
-44.15
-32.528
-23.188
-16.509
-12.457
-10.715
-10.7
-11.97
-14.195
-16.907
-19.709
-22.311
-24.457
-26.056
-27.095
-27.511
-27.279
-26.413
-24.911
-22.832
-20.28
-17.33
-14.09
-10.68
-7.207
-3.81
-0.579
2.449
5.248
7.828
10.208
12.401
14.445
16.402
18.315
20.224
22.178
24.205
26.349
28.667
31.206
34.012
37.125
40.561
44.335
48.456
52.922
57.728
62.861
68.297
74.015
79.999
86.23
92.685
99.34
106.16
113.111
120.159
127.261
134.373
141.445
148.422
155.251
161.879
168.249
174.306
179.994
185.255
190.035
194.279
197.936
200.954
203.284
204.88
205.699
205.705
204.864
203.149
200.534
197.001
192.538
187.135
180.792
173.511
165.301
156.176
146.157
135.271
123.55
111.033
97.763
83.791
69.172
53.967
38.242
22.066
5.514
-11.338
-28.41
-45.619
-62.882
-80.114
-97.231
-114.148
-130.78
-147.045
-162.863
-178.156
-192.849
-206.874
-220.164
-232.658
-244.301
-255.045
-264.846
-273.668
-281.481
-288.263
-293.997
-298.676
-302.298
-304.868
-306.399
-306.912
-306.432
-304.994
-302.636
-299.405
-295.351
-290.531
-285.007
-278.842
-272.106
-264.868
-257.204
-249.188
-240.895
-232.401
-223.783
-215.114
-206.467
-197.913
-189.519
-181.346
-173.455
-165.901
-158.731
-151.989
-145.715
-139.939
-134.689
-129.984
-125.838
-122.261
-119.254
-116.813
-114.93
-113.59
-112.775
-112.459
-112.614
-113.208
-114.205
-115.565
-117.247
-119.208
-121.402
-123.784
-126.306
-128.921
-131.584
-134.25
-136.874
-139.415
-141.833
-144.092
-146.159
-148.004
-149.601
-150.928
-151.968
-152.707
-153.137
-153.252
-153.052
-152.539
-151.721
-150.606
-149.208
-147.542
-145.626
-143.478
-141.121
-138.578
-135.874
-133.033
-130.08
-127.039
-123.935
-120.791
-117.629
-114.468
-111.329
-108.227
-105.18
-102.201
-99.303
-96.496
-93.786
-91.178
-88.676
-86.278
-83.981
-81.776
-79.652
-77.597
-75.595
-73.631
-71.683
-69.731
-67.756
-65.737
-63.653
-61.484
-59.207
-56.801
-54.244
-51.517
-48.604
-45.49
-42.163
-38.614
-34.838
-30.834
-26.604
-22.152
-17.48
-12.592
-7.494
-2.194
3.297
8.968
14.806
20.796
26.915
33.138
39.436
45.78
52.142
58.489
64.784
70.995
77.089
83.039
88.818
94.405
99.771
104.898
109.774
114.383
118.712
122.749
126.475
129.882
132.972
135.741
138.204
140.377
142.267
143.898
145.286
146.42
147.299
147.897
148.111
147.885
147.216
146.114
144.679
143.039
141.248
139.384
137.737
136.572
135.879
135.668
135.905
136.322
137.871
141.552
146.482
152.447
157.402
158.837
159.396
160.78
165.419
176.529
190.352
203.941
215.579
222.716
228.247
234.61
242.474
253.512
266.507
279.604
291.602
300.118
303.589
301.696
293.76
279.31
259.504
236.27
212.687
193.331
181.593
179.691
190.542
217.005
260.262
320.121
394.086
477.303
565.799
656.161
743.152
820.424
882.175
923.591
942.413
939.898
916.741
871.945
807.589
725.798
629.598
528.045
427.216
333.074
253.728
189.652
140.689
105.851
80.88
66.474
64.242
73.75
93.794
119.978
147.399
173.209
195.349
212.057
220.996
219.821
207.916
186.149
156.306
120.348
79.967
37.418
-4.052
-41.378
-72.652
-97.034
-114.604
-125.872
-131.313
-131.93
-129.551
-125.863
-121.999
-118.646
-115.925
-113.762
-112.203
-111.072
-109.881
-108.304
-106.188
-103.507
-100.471
-97.273
-93.996
-90.764
-87.707
-84.879
-82.316
-80.014
-77.91
-75.982
-74.236
-72.673
-71.323
-70.21
-69.347
-68.756
-68.458
-68.464
-68.786
-69.433
-70.402
-71.69
-73.285
-75.166
-77.304
-79.662
-82.193
-84.846
-87.565
-90.296
-92.987
-95.587
-98.045
-100.312
-102.339
-104.081
-105.493
-106.536
-107.171
-107.366
-107.092
-106.33
-105.063
-103.281
-100.979
-98.155
-94.814
-90.964
-86.621
-81.802
-76.532
-70.84
-64.762
-58.338
-51.616
-44.646
-37.484
-30.186
-22.814
-15.431
-8.101
-0.89
6.139
12.92
19.391
25.489
31.153
36.327
40.955
44.99
48.384
51.097
53.094
54.345
54.825
54.517
53.406
51.484
48.751
45.209
40.869
35.745
29.86
23.238
15.913
7.922
-0.692
-9.883
-19.599
-29.785
-40.383
-51.332
-62.566
-74.018
-85.62
-97.3
-108.988
-120.609
-132.089
-143.357
-154.343
-164.978
-175.198
-184.94
-194.147
-202.765
-210.743
-218.038
-224.607
-230.413
-235.421
-239.603
-242.934
-245.397
-246.979
-247.672
-247.473
-246.386
-244.42
-241.591
-237.919
-233.425
-228.141
-222.1
-215.343
-207.915
-199.868
-191.256
-182.145
-172.606
-162.713
-152.544
-142.174
-131.68
-121.139
-110.627
-100.215
-89.966
-79.945
-70.217
-60.855
-51.936
-43.538
-35.734
-28.6
-22.211
-16.642
-11.969
-8.249
-5.513
-3.799
-3.141
-3.58
-5.179
-7.962
-11.92
-17.035
-23.269
-30.567
-38.875
-48.081
-58.012
-68.509
-79.408
-90.602
-102.063
-113.728
-125.521
-137.367
-149.164
-160.898
-172.656
-184.463
-196.33
-208.302
-220.396
-232.764
-245.688
-259.323
-273.768
-289.073
-305.117
-321.81
-339.112
-356.852
-374.808
-392.714
-410.132
-426.535
-441.432
-454.499
-465.339
-473.378
-478.275
-478.664
-473.331
-463.312
-448.947
-432.495
-416.601
-398.258
-375.569
-345.754
-305.162
-257.925
-207.585
-156.868
-109.932
-65.061
-20.584
23.405
67.957
111.726
153.205
192.265
228.319
261.143
290.745
316.75
339.028
357.609
372.525
383.983
392.315
398.005
401.539
403.258
403.373
402.024
399.329
395.421
390.486
384.641
378.007
370.791
363.121
355.118
346.844
338.209
329.02
319.019
307.996
295.828
282.489
268.008
252.427
235.87
218.508
200.559
182.224
163.594
144.711
125.624
106.419
87.245
68.311
49.822
31.917
14.757
-1.497
-16.741
-30.917
-44.126
-56.666
-68.9
-81.163
-93.756
-106.926
-120.693
-134.923
-149.286
-163.196
-176.168
-187.918
-198.044
-206.112
-212.232
-216.911
-221.146
-226.405
-233.231
-241.253
-250.312
-260.394
-270.915
-280.677
-286.997
-285.918
-274.955
-253.129
-219.639
-173.579
-113.915
-40.207
45.625
139.264
236.765
335.096
431.606
523.02
604.57
671.107
718.811
746.197
752.794
737.927
700.712
641.552
563.112
469.882
367.369
260.21
152.284
48.264
-46.585
-127.681
-191.741
-237.637
-266.353
-278.974
-276.605
-261.718
-237.689
-208.255
-177.228
-146.825
-117.539
-89.665
-63.558
-39.057
-15.475
8.193
34.021
64.154
97.809
132.709
165.577
190.771
207.692
220.636
233.603
253.256
280.56
308.873
333.262
348.333
352.787
352.015
349.704
348.421
349.424
350.892
351.915
352.746
353.459
354.523
356.152
358.02
359.946
361.902
363.839
365.77
367.652
369.318
370.54
371.071
370.671
369.149
366.324
361.947
355.802
347.745
337.698
325.688
311.769
295.97
278.297
258.804
237.682
215.302
192.17
168.809
145.723
123.358
102.159
82.706
65.59
51.319
40.362
33.154
30.045
31.463
37.94
49.66
66.457
87.801
112.742
140.378
170.111
201.438
233.814
267.072
301.349
337.068
375.116
415.93
459.14
503.71
548.188
590.443
628.066
658.935
680.456
690.463
687.934
672.687
645.343
607.811
562.33
510.385
454.447
397.328
341.243
288.513
240.677
197.781
159.999
128.448
103.142
83.477
68.468
55.936
44.505
34.091
23.941
12.578
-0.779
-16.902
-35.003
-52.055
-67.556
-82.714
-99.504
-122.007
-149.464
-176.851
-199.615
-211.8
-213.378
-210.603
-208.274
-211.469
-220.984
-232.199
-242.213
-248.883
-251.515
-251.963
-251.112
-249.029
-245.855
-241.261
-235.087
-227.517
-218.549
-208.08
-196.032
-182.181
-166.318
-148.322
-128.087
-105.619
-80.996
-54.263
-25.487
5.144
37.326
70.554
104.172
137.646
170.431
201.968
231.728
258.984
283.066
303.503
319.887
331.92
339.371
341.906
339.227
331.367
318.543
301.215
280.118
255.84
228.999
200.344
170.534
140.33
110.447
81.344
53.407
27.052
2.659
-19.272
-38.201
-53.943
-66.488
-75.982
-82.862
-87.498
-90.3
-91.879
-92.741
-93.334
-94.062
-95.113
-96.587
-98.695
-101.637
-105.67
-111.154
-118.232
-126.944
-137.3
-149.106
-162.154
-176.19
-190.792
-205.6
-220.373
-234.911
-249.135
-263.04
-276.546
-289.583
-302.095
-313.947
-325.056
-335.375
-344.831
-353.432
-361.233
-368.314
-374.836
-380.949
-386.735
-392.251
-397.518
-402.52
-407.257
-411.714
-415.849
-419.652
-423.125
-426.273
-429.122
-431.687
-433.961
-435.932
-437.575
-438.859
-439.763
-440.275
-440.384
-440.09
-439.402
-438.337
-436.926
-435.196
-433.167
-430.856
-428.273
-425.43
-422.338
-419.005
-415.439
-411.652
-407.664
-403.494
-399.171
-394.722
-390.175
-385.564
-380.916
-376.258
-371.612
-367.001
-362.439
-357.938
-353.505
-349.14
-344.848
-340.637
-336.518
-332.502
-328.6
-324.818
-321.166
-317.653
-314.284
-311.061
-307.972
-304.987
-302.094
-299.296
-296.616
-294.114
-291.83
-289.768
-287.937
-286.338
-284.935
-283.668
-282.411
-280.952
-279.12
-276.808
-273.949
-270.566
-266.685
-262.277
-257.307
-251.692
-245.337
-238.222
-230.32
-221.568
-212.041
-201.911
-191.507
-181.484
-172.484
-164.839
-158.639
-153.627
-149.289
-145.305
-141.533
-137.668
-133.274
-128.198
-122.88
-118.608
-117.198
-119.871
-126.773
-137.45
-151.712
-169.366
-189.3
-208.973
-224.516
-232.192
-229.424
-214.731
-186.41
-142.106
-81.526
-6.205
81.617
177.51
279.265
385.521
488.801
581.315
654.486
699.886
718.591
713.235
685.524
638.336
570.825
484.401
383.759
273.204
158.069
43
-67.754
-168.721
-255.582
-326.392
-381.043
-420.698
-446.441
-459.339
-461.505
-456.571
-448.538
-439.959
-431.713
-423.655
-415.501
-407.163
-398.369
-387.943
-374.167
-356.151
-333.992
-308.583
-281.186
-252.756
-223.973
-195.656
-168.791
-144.092
-121.946
-102.373
-85.05
-69.661
-55.978
-43.81
-32.931
-23.066
-13.859
-4.876
4.213
13.618
23.478
33.875
44.891
56.589
68.962
81.896
95.236
108.832
122.566
136.366
150.134
163.726
176.962
189.636
201.593
212.74
223.008
232.345
240.703
248.053
254.407
259.821
264.349
268.028
270.882
272.928
274.199
274.744
274.615
273.86
272.521
270.63
268.226
265.347
262.027
258.297
254.181
249.697
244.873
239.742
234.338
228.697
222.855
216.844
210.702
204.466
198.17
191.843
185.515
179.212
172.958
166.78
160.7
154.738
148.912
143.24
137.738
132.422
127.302
122.391
117.696
113.227
108.992
104.998
101.249
97.751
94.505
91.513
88.777
86.297
84.07
82.094
80.362
78.871
77.613
76.582
75.767
75.158
74.744
74.515
74.459
74.565
74.82
75.214
75.734
76.367
77.103
77.927
78.828
79.792
80.805
81.854
82.927
84.01
85.089
86.15
87.18
88.164
89.089
89.941
90.705
91.367
91.913
92.33
92.606
92.728
92.687
92.471
92.072
91.482
90.694
89.703
88.504
87.093
85.467
83.625
81.567
79.292
76.803
74.102
71.193
68.08
64.768
61.265
57.577
53.711
49.677
45.484
41.141
36.661
32.054
27.333
22.51
17.6
12.615
7.57
2.478
-2.649
-7.797
-12.954
-18.109
-23.251
-28.37
-33.457
-38.505
-43.506
-48.455
-53.346
-58.176
-62.942
-67.643
-72.277
-76.846
-81.35
-85.79
-90.169
-94.489
-98.754
-102.966
-107.129
-111.247
-115.322
-119.359
-123.361
-127.332
-131.273
-135.187
-139.077
-142.941
-146.781
-150.595
-154.38
-158.132
-161.847
-165.518
-169.137
-172.695
-176.182
-179.586
-182.896
-186.095
-189.17
-192.104
-194.878
-197.475
-199.876
-202.059
-204.006
-205.695
-207.108
-208.225
-209.027
-209.497
-209.618
-209.376
-208.757
-207.749
-206.343
-204.53
-202.306
-199.669
-196.617
-193.154
-189.285
-185.018
-180.366
-175.341
-169.961
-164.243
-158.208
-151.878
-145.279
-138.438
-131.384
-124.15
-116.769
-109.279
-101.719
-94.132
-86.561
-79.051
-71.644
-64.387
-57.324
-50.499
-43.953
-37.727
-31.862
-26.395
-21.364
-16.803
-12.743
-9.213
-6.238
-3.839
-2.033
-0.83
-0.237
-0.257
-0.89
-2.136
-3.99
-6.446
-9.488
-13.097
-17.248
-21.911
-27.05
-32.619
-38.564
-44.826
-51.351
-58.086
-64.98
-71.978
-79.024
-86.061
-93.045
-99.942
-106.723
-113.362
-119.835
-126.121
-132.208
-138.086
-143.736
-149.13
-154.222
-158.952
-163.266
-167.107
-170.416
-173.144
-175.211
-176.493
-176.846
-176.097
-174.093
-170.719
-165.891
-159.568
-151.761
-142.544
-132.127
-120.892
-109.074
-96.738
-83.788
-69.842
-54.649
-38.278
-20.663
-1.584
18.592
38.974
58.169
73.784
83.66
86.6
81.18
67.005
45.995
20.415
-6.598
-33.103
-60.523
-88.128
-111.462
-120.626
-101.899
-47.815
40.938
155.058
279.708
401.822
509.934
595.167
651.356
676.694
674.603
649.532
606.205
545.205
464.461
365.796
253.047
132.41
11.197
-106.409
-216.717
-314.8
-396.955
-460.552
-504.673
-531.032
-541.407
-537.016
-520.352
-494.969
-464.774
-433.889
-404.78
-378.026
-354.149
-333.455
-315.556
-299.861
-285.19
-269.885
-253.375
-235.922
-217.831
-199.749
-182.282
-165.851
-151.188
-139.068
-129.723
-123.075
-118.843
-116.517
-115.726
-116.112
-117.162
-118.456
-119.674
-120.598
-121.18
-121.399
-121.196
-120.565
-119.529
-118.122
-116.444
-114.581
-112.588
-110.564
-108.606
-106.823
-105.36
-104.293
-103.642
-103.406
-103.54
-103.987
-104.696
-105.574
-106.505
-107.384
-108.106
-108.57
-108.695
-108.377
-107.504
-105.967
-103.652
-100.463
-96.318
-91.143
-84.864
-77.426
-68.778
-58.882
-47.72
-35.267
-21.503
-6.415
10.005
27.752
46.811
67.158
88.761
111.578
135.552
160.616
186.694
213.701
241.548
270.138
299.365
329.12
359.287
389.747
420.379
451.056
481.648
512.026
542.059
571.617
600.573
628.802
656.182
682.595
707.927
732.074
754.934
776.415
796.43
814.902
831.762
846.952
860.421
872.132
882.054
890.171
896.474
900.97
903.671
904.604
903.8
901.304
897.166
891.446
884.21
875.531
865.489
854.166
841.651
828.039
813.423
797.901
781.573
764.536
746.891
728.733
710.158
691.258
672.124
652.839
633.486
614.139
594.869
575.74
556.81
538.13
519.744
501.689
483.995
466.685
449.774
433.273
417.185
401.507
386.23
371.341
356.823
342.653
328.805
315.249
301.955
288.888
276.013
263.293
250.693
238.176
225.708
213.255
200.784
188.267
175.678
162.993
150.191
137.256
124.176
110.943
97.552
84.004
70.305
56.463
42.493
28.412
14.244
0.013
-14.251
-28.516
-42.748
-56.909
-70.96
-84.862
-98.571
-112.047
-125.246
-138.126
-150.643
-162.758
-174.431
-185.624
-196.302
-206.432
-215.985
-224.936
-233.261
-240.942
-247.961
-254.309
-259.975
-264.955
-269.249
-272.861
-275.796
-278.066
-279.685
-280.67
-281.042
-280.824
-280.041
-278.721
-276.892
-274.585
-271.829
-268.658
-265.104
-261.201
-256.984
-252.485
-247.739
-242.778
-237.634
-232.337
-226.914
-221.391
-215.789
-210.129
-204.429
-198.703
-192.966
-187.228
-181.499
-175.787
-170.097
-164.434
-158.799
-153.192
-147.611
-142.052
-136.511
-130.981
-125.458
-119.935
-114.408
-108.874
-103.329
-97.772
-92.202
-86.617
-81.015
-75.395
-69.757
-64.104
-58.44
-52.769
-47.102
-41.453
-35.844
-30.302
-24.853
-19.523
-14.341
-9.337
-4.54
0.025
4.336
8.377
12.124
15.553
18.636
21.348
23.658
25.54
26.967
27.912
28.355
28.276
27.663
26.511
24.808
22.542
19.69
16.207
12.074
7.283
1.836
-4.252
-10.946
-18.197
-25.923
-34.001
-42.308
-50.713
-59.091
-67.34
-75.367
-83.104
-90.461
-97.333
-103.672
-109.457
-114.704
-119.453
-123.715
-127.525
-131.038
-134.506
-138.222
-142.524
-147.67
-153.936
-161.679
-170.978
-181.723
-193.652
-206.158
-218.689
-230.878
-242.019
-251.26
-258.482
-264.05
-268.76
-273.955
-280.403
-288.28
-298.299
-311.488
-326.602
-340.254
-348.555
-347.538
-337.781
-323.281
-304.295
-276.138
-228.891
-151.586
-39.881
101.079
257.343
411.839
547.053
649.472
715.346
746.99
751.941
738.536
708.445
658.996
587.04
492.498
380.032
257.095
130.624
5.222
-114.459
-223.132
-316.558
-391.537
-447.265
-485.305
-506.827
-512.798
-505.706
-489.235
-467.792
-445.91
-426.144
-409.173
-395.64
-386.098
-380.412
-377.876
-376.88
-375.196
-371.69
-366.37
-359.552
-351.793
-343.6
-335.333
-327.66
-321.488
-317.221
-314.815
-313.936
-313.927
-314.263
-314.582
-314.458
-313.542
-311.617
-308.491
-304.058
-298.332
-291.304
-282.973
-273.39
-262.571
-250.572
-237.506
-223.521
-208.809
-193.571
-178.001
-162.299
-146.622
-131.087
-115.794
-100.82
-86.213
-72.026
-58.29
-45.017
-32.24
-19.995
-8.303
2.813
13.345
23.3
32.684
41.509
49.785
57.514
64.698
71.334
77.418
82.946
87.91
92.303
96.125
99.388
102.103
104.29
105.97
107.16
107.882
108.163
108.024
107.488
106.576
105.306
103.699
101.777
99.563
97.079
94.347
91.387
88.221
84.868
81.348
77.68
73.878
69.956
65.927
61.805
57.6
53.325
48.989
44.602
40.171
35.705
31.209
26.69
22.15
17.592
13.019
8.433
3.837
-0.769
-5.381
-9.996
-14.61
-19.217
-23.811
-28.386
-32.935
-37.45
-41.922
-46.341
-50.698
-54.98
-59.176
-63.273
-67.255
-71.108
-74.816
-78.362
-81.728
-84.898
-87.854
-90.577
-93.049
-95.254
-97.173
-98.789
-100.086
-101.049
-101.663
-101.915
-101.793
-101.287
-100.389
-99.094
-97.397
-95.299
-92.799
-89.903
-86.615
-82.945
-78.904
-74.505
-69.766
-64.704
-59.341
-53.7
-47.805
-41.685
-35.369
-28.886
-22.269
-15.55
-8.763
-1.942
4.879
11.668
18.389
25.013
31.507
37.841
43.99
49.925
55.626
61.07
66.241
71.124
75.707
79.984
83.949
87.602
90.946
93.986
96.734
99.202
101.406
103.365
105.101
106.638
108.004
109.227
110.337
111.367
112.35
113.319
114.31
115.355
116.489
117.743
119.148
120.733
122.524
124.545
126.816
129.355
132.177
135.291
138.706
142.423
146.443
150.758
155.361
160.236
165.364
170.724
176.287
182.024
187.902
193.885
199.935
206.012
212.074
218.076
223.974
229.721
235.27
240.574
245.585
250.257
254.546
258.41
261.81
264.711
267.082
268.895
270.127
270.76
270.777
270.166
268.919
267.031
264.504
261.344
257.559
253.166
248.187
242.649
236.583
230.023
223.006
215.571
207.757
199.605
191.156
182.456
173.55
164.484
155.308
146.073
136.832
127.635
118.528
109.553
100.75
92.155
83.797
75.697
67.87
60.332
53.102
46.194
39.621
33.396
27.53
22.036
16.929
12.212
7.878
3.916
0.307
-2.971
-5.938
-8.619
-11.046
-13.239
-15.221
-17.011
-18.61
-20.038
-21.331
-22.53
-23.712
-24.942
-26.251
-27.678
-29.261
-30.989
-32.838
-34.722
-36.47
-37.97
-39.155
-39.968
-40.429
-40.557
-40.351
-39.85
-39.059
-37.935
-36.463
-34.575
-32.168
-29.269
-25.975
-22.554
-19.511
-17.257
-16.134
-16.501
-18.416
-21.78
-26.4
-31.638
-36.885
-41.785
-45.802
-48.691
-50.861
-52.692
-55.056
-59.458
-66.56
-76.867
-90.373
-105.126
-119.073
-131.121
-142.011
-153.917
-166.772
-175.244
-167.646
-132.3
-64.838
29.71
137.139
242.645
337.965
420.582
491.539
550.972
596.236
623.786
630.837
616.891
582.161
526.936
453.792
366.21
268.83
167.93
67.233
-31.165
-124.888
-213.075
-292.243
-356.582
-401.661
-422.46
-420.326
-403.539
-380.693
-362.116
-352.363
-348.762
-349.377
-352.007
-355.794
-362.48
-371.731
-381.291
-389.647
-395.724
-399.222
-400.998
-401.801
-401.993
-402.246
-403.422
-405.962
-410.009
-415.476
-421.813
-428.452
-434.96
-440.803
-445.572
-449.088
-451.201
-451.836
-450.974
-448.514
-444.378
-438.564
-431.049
-421.827
-410.922
-398.35
-384.217
-368.713
-352.046
-334.437
-316.048
-296.978
-277.325
-257.181
-236.629
-215.754
-194.623
-173.28
-151.802
-130.283
-108.819
-87.513
-66.446
-45.674
-25.254
-5.239
14.315
33.346
51.793
69.598
86.698
103.028
118.522
133.112
146.748
159.391
171.013
181.595
191.123
199.587
206.99
213.342
218.657
222.956
226.257
228.585
229.981
230.497
230.182
229.099
227.297
224.823
221.755
218.173
214.116
209.633
204.775
199.584
194.152
188.591
182.942
177.219
171.604
166.297
161.264
156.562
152.258
148.08
144.89
143.524
142.837
142.489
140.353
133.878
125.873
118.205
113.653
116.034
121.918
128.382
133.412
133.696
131.52
129.197
127.199
126.911
127.439
127.646
127.682
127.351
126.671
125.806
124.564
122.784
120.461
117.564
114.048
109.887
105.069
99.582
93.437
86.657
79.236
71.175
62.495
53.22
43.381
33.017
22.168
10.88
-0.793
-12.79
-25.048
-37.501
-50.08
-62.712
-75.324
-87.839
-100.184
-112.281
-124.058
-135.441
-146.361
-156.75
-166.545
-175.689
-184.127
-191.812
-198.702
-204.763
-209.966
-214.289
-217.719
-220.25
-221.883
-222.627
-222.499
-221.524
-219.734
-217.169
-213.876
-209.907
-205.323
-200.188
-194.573
-188.554
-182.208
-175.62
-168.873
-162.056
-155.256
-148.563
-142.065
-135.848
-129.997
-124.594
-119.716
-115.436
-111.821
-108.934
-106.828
-105.552
-105.145
-105.64
-107.061
-109.423
-112.731
-116.982
-122.165
-128.257
-135.229
-143.04
-151.642
-160.978
-170.985
-181.59
-192.714
-204.272
-216.173
-228.319
-240.609
-252.939
-265.198
-277.277
-289.063
-300.446
-311.312
-321.555
-331.067
-339.745
-347.492
-354.216
-359.832
-364.259
-367.427
-369.272
-369.74
-368.787
-366.377
-362.485
-357.096
-350.206
-341.822
-331.959
-320.645
-307.916
-293.817
-278.402
-261.737
-243.893
-224.952
-205.003
-184.14
-162.47
-140.103
-117.155
-93.747
-70.003
-46.047
-22.007
1.99
25.819
49.354
72.476
95.066
117.009
138.195
158.519
177.883
196.196
213.375
229.347
244.043
257.409
269.399
279.976
289.109
296.778
302.966
307.673
310.905
312.681
313.028
311.983
309.599
305.94
301.078
295.093
288.062
280.066
271.194
261.536
251.187
240.24
228.777
216.877
204.623
192.094
179.363
166.499
153.559
140.597
127.693
114.932
102.411
90.231
78.467
67.205
56.542
46.571
37.418
29.207
22.044
16.077
11.445
8.231
6.511
6.286
7.437
9.877
13.409
17.682
22.581
28.094
34.312
41.608
50.136
59.734
70.492
82.613
95.667
108.879
120.787
129.221
133.051
132.014
125.686
113.708
96.463
75.222
53.023
34.334
22.157
18.208
24.228
42.145
73.742
119.571
177.882
244.781
316.854
391.838
466.277
534.422
591.005
631.823
655.329
664.642
658.933
633.085
581.962
499.168
384.569
245.49
91.948
-61.999
-201.23
-314.495
-395.518
-445.802
-474.084
-488.841
-495.108
-493.359
-480.79
-457.371
-426.489
-393.08
-361.938
-335.073
-312.416
-293.591
-277.743
-263.772
-250.488
-236.193
-219.953
-201.977
-182.708
-162.827
-143.037
-123.861
-106.015
-90.341
-77.184
-66.459
-57.9
-51.025
-45.447
-40.883
-36.89
-33.105
-29.294
-25.255
-20.939
-16.362
-11.475
-6.276
-0.805
4.917
10.814
16.774
22.731
28.583
34.215
39.525
44.368
48.654
52.351
55.441
57.942
59.89
61.311
62.265
62.841
63.111
63.145
63.02
62.791
62.53
62.321
62.243
62.377
62.792
63.541
64.669
66.219
68.219
70.692
73.649
77.087
81.004
85.399
90.267
95.598
101.374
107.57
114.156
121.098
128.357
135.885
143.627
151.524
159.514
167.535
175.523
183.411
191.131
198.616
205.798
212.613
218.997
224.885
230.216
234.935
238.986
242.323
244.903
246.689
247.648
247.757
246.997
245.356
242.83
239.421
235.135
229.989
224.004
217.209
209.639
201.333
192.339
182.709
172.501
161.777
150.604
139.05
127.188
115.091
102.834
90.493
78.144
65.862
53.721
41.794
30.15
18.858
7.982
-2.419
-12.29
-21.58
-30.245
-38.244
-45.547
-52.125
-57.959
-63.036
-67.348
-70.895
-73.683
-75.724
-77.037
-77.647
-77.583
-76.881
-75.582
-73.729
-71.373
-68.564
-65.359
-61.813
-57.987
-53.941
-49.736
-45.433
-41.096
-36.783
-32.555
-28.47
-24.583
-20.948
-17.615
-14.629
-12.032
-9.864
-8.156
-6.938
-6.231
-6.055
-6.422
-7.339
-8.808
-10.825
-13.383
-16.468
-20.062
-24.142
-28.681
-33.648
-39.011
-44.731
-50.77
-57.086
-63.636
-70.375
-77.257
-84.236
-91.266
-98.3
-105.292
-112.196
-118.969
-125.569
-131.955
-138.088
-143.934
-149.46
-154.636
-159.437
-163.84
-167.826
-171.379
-174.488
-177.145
-179.345
-181.088
-182.375
-183.214
-183.612
-183.582
-183.138
-182.296
-181.072
-179.487
-177.559
-175.31
-172.759
-169.927
-166.836
-163.507
-159.96
-156.215
-152.292
-148.209
-143.983
-139.631
-135.165
-130.599
-125.943
-121.205
-116.391
-111.506
-106.552
-101.531
-96.441
-91.279
-86.041
-80.721
-75.311
-69.801
-64.181
-58.439
-52.565
-46.547
-40.377
-34.048
-27.553
-20.891
-14.062
-7.069
0.084
7.392
14.845
22.435
30.148
37.968
45.878
53.857
61.881
69.922
77.947
85.921
93.809
101.574
109.176
116.574
123.723
130.582
137.107
143.256
148.981
154.23
158.954
163.106
166.644
169.527
171.721
173.194
173.922
173.89
173.092
171.52
169.173
166.05
162.144
157.455
151.988
145.752
138.76
131.029
122.57
113.402
103.562
93.1
82.081
70.57
58.636
46.358
33.815
21.098
8.308
-4.453
-17.068
-29.408
-41.363
-52.82
-63.644
-73.682
-82.803
-90.944
-98.148
-104.532
-110.207
-115.242
-119.641
-123.466
-126.899
-130.031
-132.796
-134.912
-135.972
-135.809
-134.674
-132.905
-130.547
-127.584
-124.07
-120.583
-118.108
-117.165
-117.46
-118.027
-118.031
-116.951
-114.297
-108.721
-98.057
-80.334
-54.245
-19.891
22.075
71.197
126.89
187.665
250.55
311.453
365.725
409.771
441.058
457.306
456.382
436.427
397.325
341.457
273.247
197.567
118.568
40.072
-33.656
-97.508
-147.164
-180.632
-198.234
-201.637
-192.457
-172.385
-143.998
-111.238
-78.478
-48.824
-23.788
-3.85
10.881
20.623
26.076
28.836
31.113
34.389
39.252
45.753
53.452
61.803
70.386
78.536
85.447
90.79
94.592
97.16
99.104
100.854
102.617
104.59
106.869
109.45
112.327
115.415
118.6
121.911
125.387
129.059
132.992
137.161
141.486
145.862
150.113
154.081
157.682
160.864
163.616
165.967
167.94
169.583
170.966
172.127
173.084
173.846
174.404
174.765
174.957
175.014
174.985
174.926
174.88
174.887
174.985
175.196
175.541
176.029
176.656
177.417
178.317
179.359
180.547
181.887
183.377
185.015
186.799
188.721
190.769
192.927
195.171
197.481
199.832
202.201
204.563
206.891
209.163
211.356
213.444
215.406
217.217
218.858
220.309
221.554
222.571
223.338
223.852
224.108
224.101
223.835
223.299
222.476
221.382
220.033
218.405
216.481
214.252
211.701
208.862
205.797
202.496
198.928
195.238
191.593
187.925
184.263
180.655
176.802
173.584
171.859
170.444
168.992
165.313
156.782
146.329
135.91
128.427
127.866
130.71
133.977
135.622
132.265
126.315
120.215
114.501
110.657
107.806
104.822
101.904
98.898
95.863
93.011
90.18
87.236
84.204
81.078
77.829
74.447
70.929
67.265
63.468
59.552
55.499
51.29
46.925
42.397
37.702
32.841
27.808
22.6
17.22
11.671
5.954
0.074
-5.965
-12.16
-18.504
-24.992
-31.618
-38.375
-45.258
-52.259
-59.371
-66.59
-73.907
-81.316
-88.812
-96.388
-104.039
-111.758
-119.541
-127.381
-135.274
-143.214
-151.197
-159.218
-167.269
-175.347
-183.444
-191.554
-199.668
-207.779
-215.877
-223.952
-231.993
-239.987
-247.921
-255.782
-263.553
-271.219
-278.762
-286.163
-293.404
-300.463
-307.321
-313.954
-320.342
-326.462
-332.291
-337.806
-342.984
-347.802
-352.236
-356.263
-359.86
-363.003
-365.671
-367.842
-369.497
-370.616
-371.183
-371.182
-370.601
-369.428
-367.656
-365.276
-362.286
-358.683
-354.468
-349.644
-344.218
-338.197
-331.593
-324.418
-316.688
-308.421
-299.637
-290.354
-280.596
-270.385
-259.746
-248.706
-237.291
-225.53
-213.456
-201.101
-188.502
-175.696
-162.722
-149.619
-136.427
-123.185
-109.934
-96.714
-83.563
-70.52
-57.624
-44.911
-32.423
-20.196
-8.267
3.328
14.556
25.383
35.779
45.714
55.162
64.098
72.496
80.332
87.578
94.207
100.197
105.528
110.184
114.155
117.435
120.022
121.921
123.142
123.695
123.594
122.853
121.48
119.489
116.89
113.695
109.928
105.608
100.751
95.37
89.476
83.089
76.25
69.008
61.408
53.507
45.355
37
28.531
20.034
11.607
3.354
-4.657
-12.346
-19.603
-26.29
-32.252
-37.406
-41.781
-45.492
-48.671
-51.427
-53.776
-55.785
-57.683
-59.546
-61.367
-62.953
-63.738
-63.459
-62.33
-60.577
-58.446
-56.317
-54.25
-52.64
-52.765
-55.093
-59.38
-65.242
-71.39
-76.493
-79.948
-80.476
-75.813
-64.692
-45.976
-18.523
17.052
59.953
109.71
164.604
222.216
280.536
336.256
385.022
423.488
448.438
457.084
447.987
419.92
371.658
304.128
220.671
125.659
24.155
-79.066
-179.724
-272.956
-353.102
-415.768
-459.144
-483.443
-490.279
-481.588
-459.493
-427.185
-389.438
-351.107
-315.379
-283.95
-257.326
-235.592
-218.843
-206.537
-197.012
-188.221
-178.962
-168.876
-158.232
-147.569
-137.197
-127.38
-118.636
-111.606
-106.555
-103.316
-101.466
-100.382
-99.52
-98.571
-97.287
-95.419
-92.801
-89.353
-85.039
-79.924
-74.105
-67.621
-60.521
-52.87
-44.754
-36.328
-27.767
-19.256
-10.989
-3.103
4.321
11.22
17.555
23.313
28.481
33.073
37.126
40.658
43.67
46.166
48.148
49.638
50.674
51.301
51.567
51.515
51.182
50.602
49.807
48.826
47.685
46.404
45
43.497
41.925
40.32
38.717
37.151
35.652
34.252
32.981
31.864
30.922
30.173
29.629
29.301
29.2
29.334
29.707
30.323
31.182
32.282
33.617
35.181
36.963
38.949
41.123
43.465
45.955
48.57
51.287
54.079
56.922
59.788
62.65
65.478
68.246
70.923
73.484
75.899
78.142
80.19
82.018
83.606
84.936
85.992
86.762
87.234
87.4
87.256
86.797
86.024
84.937
83.541
81.841
79.845
77.564
75.01
72.197
69.141
65.859
62.369
58.691
54.845
50.852
46.732
42.507
38.197
33.823
29.405
24.962
20.513
16.075
11.666
7.301
2.995
-1.24
-5.39
-9.446
-13.397
-17.236
-20.954
-24.546
-28.005
-31.328
-34.509
-37.547
-40.437
-43.179
-45.77
-48.208
-50.493
-52.624
-54.6
-56.421
-58.084
-59.59
-60.936
-62.122
-63.144
-64
-64.689
-65.206
-65.55
-65.718
-65.707
-65.516
-65.144
-64.589
-63.853
-62.935
-61.84
-60.57
-59.131
-57.532
-55.779
-53.886
-51.865
-49.732
-47.505
-45.202
-42.847
-40.461
-38.073
-35.708
-33.397
-31.17
-29.061
-27.103
-25.333
-23.787
-22.501
-21.514
-20.863
-20.586
-20.717
-21.293
-22.347
-23.91
-26.011
-28.676
-31.929
-35.79
-40.274
-45.394
-51.155
-57.562
-64.61
-72.293
-80.598
-89.505
-98.992
-109.03
-119.586
-130.623
-142.096
-153.959
-166.158
-178.639
-191.339
-204.196
-217.139
-230.1
-243.005
-255.779
-268.349
-280.637
-292.57
-304.072
-315.07
-325.493
-335.272
-344.34
-352.636
-360.098
-366.673
-372.312
-376.971
-380.612
-383.203
-384.719
-385.141
-384.455
-382.656
-379.741
-375.716
-370.59
-364.381
-357.114
-348.819
-339.533
-329.3
-318.171
-306.205
-293.463
-280.013
-265.923
-251.265
-236.112
-220.541
-204.629
-188.454
-172.096
-155.635
-139.149
-122.72
-106.426
-90.343
-74.542
-59.09
-44.047
-29.473
-15.422
-1.942
10.921
23.122
34.623
45.39
55.392
64.612
73.034
80.653
87.475
93.51
98.776
103.3
107.109
110.228
112.689
114.525
115.768
116.455
116.614
116.262
115.422
114.109
112.345
110.158
107.577
104.638
101.389
97.894
94.229
90.478
86.726
83.03
79.45
76.072
73.006
70.421
68.508
67.418
67.278
68.201
70.238
73.392
77.636
82.756
88.42
94.45
100.807
107.677
115.499
124.559
134.833
146.395
159.425
173.539
187.878
200.92
210.427
214.729
213.119
204.961
189.741
168.229
142.212
114.753
90.361
72.664
64.084
67.41
85.315
118.739
167.323
228.947
299.275
374.614
451.979
525.781
589.883
640.409
673.045
687.444
685.523
664.242
623.105
561.487
478.433
380.2
271.312
159.069
55.431
-31.955
-94.126
-128.841
-143.234
-142.717
-134.219
-121.434
-102.515
-79.08
-53.853
-29.185
-8.671
6.283
16.103
21.196
22.732
22.668
22.955
24.951
29.318
36.019
44.485
54.11
64.378
74.545
83.768
91.619
98.015
103.164
107.612
111.875
116.216
120.837
125.874
131.305
137.117
143.261
149.612
156.121
162.783
169.577
176.513
183.577
190.674
197.683
204.426
210.667
216.24
221.05
225.024
228.15
230.424
231.841
232.435
232.254
231.327
229.674
227.303
224.217
220.447
216.043
211.07
205.613
199.753
193.563
187.12
180.499
173.767
166.994
160.235
153.537
146.954
140.546
134.374
128.504
122.995
117.902
113.278
109.175
105.635
102.696
100.385
98.72
97.715
97.378
97.711
98.709
100.363
102.656
105.567
109.07
113.133
117.717
122.781
128.275
134.146
140.335
146.783
153.426
160.198
167.032
173.861
180.619
187.237
193.649
199.788
205.588
210.984
215.914
220.319
224.14
227.327
229.83
231.608
232.624
232.846
232.25
230.815
228.527
225.378
221.367
216.497
210.776
204.222
196.854
188.702
179.796
170.177
159.884
148.967
137.476
125.466
112.993
100.12
86.907
73.421
59.726
45.891
31.985
18.074
4.229
-9.484
-22.997
-36.245
-49.166
-61.699
-73.787
-85.377
-96.417
-106.862
-116.67
-125.803
-134.231
-141.924
-148.862
-155.027
-160.409
-165.002
-168.805
-171.826
-174.075
-175.568
-176.327
-176.378
-175.752
-174.484
-172.615
-170.187
-167.247
-163.847
-160.039
-155.879
-151.425
-146.738
-141.878
-136.908
-131.889
-126.883
-121.951
-117.154
-112.549
-108.193
-104.14
-100.44
-97.141
-94.288
-91.919
-90.073
-88.778
-88.061
-87.943
-88.439
-89.56
-91.309
-93.686
-96.684
-100.292
-104.493
-109.264
-114.578
-120.404
-126.704
-133.436
-140.556
-148.013
-155.754
-163.723
-171.862
-180.11
-188.406
-196.686
-204.889
-212.95
-220.808
-228.401
-235.668
-242.55
-248.991
-254.936
-260.335
-265.139
-269.306
-272.797
-275.58
-277.623
-278.905
-279.405
-279.109
-278.008
-276.098
-273.378
-269.854
-265.538
-260.447
-254.603
-248.033
-240.769
-232.848
-224.311
-215.202
-205.566
-195.453
-184.911
-173.993
-162.751
-151.239
-139.511
-127.621
-115.626
-103.58
-91.54
-79.56
-67.69
-55.977
-44.465
-33.196
-22.207
-11.534
-1.209
8.739
18.282
27.391
36.043
44.215
51.893
59.065
65.724
71.867
77.496
82.615
87.232
91.358
94.998
98.162
100.86
103.098
104.886
106.235
107.155
107.657
107.76
107.483
106.851
105.886
104.61
103.039
101.199
99.109
96.783
94.233
91.463
88.476
85.289
81.921
78.391
74.717
70.908
66.979
62.957
58.853
54.662
50.355
45.868
41.15
36.194
31.01
25.629
20.118
14.54
8.971
3.539
-1.656
-6.56
-11.163
-15.529
-19.73
-23.751
-27.493
-30.786
-33.444
-35.377
-36.549
-36.962
-36.744
-36.087
-35.256
-34.706
-34.923
-36.086
-38.112
-40.621
-42.916
-44.504
-45.268
-44.988
-43.338
-40.524
-37.213
-34.603
-34.518
-38.208
-45.939
-58.036
-74.908
-95.885
-119.372
-142.59
-161.391
-172.412
-173.405
-161.591
-134.048
-89.362
-27.682
48.431
133.99
224.594
316.514
404.511
482.274
543.958
584.817
602.754
598.23
571.347
521.727
451.011
363.267
264.054
159.435
54.277
-47.78
-142.373
-224.015
-288.428
-333.966
-361.19
-372.06
-368.601
-352.807
-327.767
-298.215
-268.922
-242.941
-221.664
-205.326
-193.923
-187.452
-185.246
-185.52
-186.022
-185.335
-183.09
-179.661
-175.649
-171.453
-167.392
-164.005
-162.056
-161.971
-163.696
-166.827
-170.673
-174.621
-178.345
-181.632
-184.283
-186.187
-187.232
-187.314
-186.47
-184.757
-182.177
-178.744
-174.437
-169.235
-163.233
-156.597
-149.519
-142.214
-134.823
-127.406
-120.019
-112.704
-105.489
-98.405
-91.44
-84.558
-77.756
-71.057
-64.492
-58.103
-51.898
-45.864
-39.984
-34.242
-28.627
-23.135
-17.76
-12.495
-7.343
-2.317
2.568
7.289
11.833
16.199
20.389
24.407
28.261
31.955
35.5
38.909
42.191
45.353
48.4
51.336
54.166
56.898
59.538
62.094
64.574
66.986
69.34
71.644
73.907
76.136
78.336
80.513
82.671
84.814
86.942
89.057
91.16
93.252
95.331
97.396
99.442
101.465
103.456
105.408
107.308
109.146
110.907
112.576
114.138
115.58
116.886
118.043
119.034
119.844
120.461
120.868
121.053
121.002
120.703
120.142
119.309
118.194
116.789
115.086
113.078
110.76
108.13
105.184
101.922
98.344
94.452
90.251
85.745
80.942
75.852
70.485
64.853
58.969
52.85
46.51
39.967
33.239
26.344
19.302
12.131
4.851
-2.519
-9.959
-17.45
-24.973
-32.511
-40.044
-47.558
-55.033
-62.455
-69.808
-77.078
-84.249
-91.308
-98.243
-105.042
-111.692
-118.183
-124.505
-130.648
-136.605
-142.367
-147.927
-153.278
-158.414
-163.33
-168.019
-172.476
-176.697
-180.677
-184.41
-187.891
-191.116
-194.078
-196.772
-199.191
-201.33
-203.182
-204.74
-205.997
-206.946
-207.582
-207.897
-207.886
-207.544
-206.864
-205.844
-204.479
-202.767
-200.705
-198.293
-195.53
-192.417
-188.954
-185.146
-180.994
-176.505
-171.683
-166.537
-161.073
-155.303
-149.236
-142.886
-136.265
-129.389
-122.273
-114.934
-107.392
-99.665
-91.774
-83.743
-75.593
-67.348
-59.034
-50.675
-42.297
-33.925
-25.584
-17.298
-9.093
-0.992
6.981
14.803
22.45
29.9
37.131
44.12
50.847
57.291
63.435
69.262
74.754
79.895
84.671
89.066
93.069
96.664
99.839
102.583
104.883
106.733
108.124
109.053
109.515
109.51
109.039
108.106
106.714
104.866
102.568
99.824
96.641
93.027
88.992
84.547
79.706
74.484
68.899
62.971
56.719
50.164
43.323
36.217
28.865
21.291
13.519
5.574
-2.514
-10.715
-18.992
-27.311
-35.638
-43.94
-52.186
-60.346
-68.394
-76.309
-84.074
-91.667
-99.07
-106.259
-113.211
-119.903
-126.314
-132.417
-138.184
-143.589
-148.613
-153.242
-157.474
-161.307
-164.733
-167.754
-170.368
-172.582
-174.413
-175.868
-176.943
-177.643
-177.985
-178.012
-177.809
-177.447
-176.974
-176.436
-175.865
-175.278
-174.694
-174.068
-173.289
-172.247
-170.83
-168.983
-166.734
-164.11
-161.133
-157.814
-154.116
-150.008
-145.52
-140.668
-135.463
-129.982
-124.332
-118.754
-113.663
-109.552
-106.977
-106.294
-107.529
-110.466
-114.699
-119.843
-125.724
-132.042
-138.141
-143.75
-149.262
-155.644
-164.461
-176.826
-192.854
-212.666
-236.727
-264.899
-295.24
-323.905
-346.226
-358.724
-362.047
-358.443
-347.752
-327.366
-290.177
-228.469
-139.081
-24.183
106.003
235.362
345.531
421.708
458.924
461.68
441.439
408.423
366.011
312.906
245.655
164.365
73.592
-21.661
-116.205
-206.127
-288.277
-358.603
-414.323
-455.046
-481.768
-495.64
-497.713
-489.147
-472.109
-450.66
-428.902
-409.253
-392.835
-380.081
-371.161
-366.031
-363.902
-362.762
-360.164
-354.57
-345.461
-332.975
-317.685
-300.454
-282.287
-264.451
-248.502
-235.491
-225.643
-218.809
-214.34
-211.223
-208.82
-206.706
-204.219
-200.749
-196.114
-190.282
-183.805
-178.052
-173.879
-171.53
-171.28
-172.945
-175.729
-178.609
-179.287
-173.375
-156.275
-123.64
-71.089
4.277
104.307
230.815
383.811
560.455
756.495
966.224
1182.779
1400.363
1613.548
1816.021
2001.837
2166.087
2304.865
2416.304
2500.346
2557.075
2586.633
2589.973
2569.635
2529.793
2475.434
2411.262
2341.225
2268.993
2199.112
2136.85
2085.59
2046.404
2018.814
2001.042
1990.999
1986.601
1984.343
1979.285
1967.905
1948.316
1919.635
1882.315
1837.157
1784.877
1727.189
1666.693
1605.024
1542.935
1480.811
1418.343
1355.277
1291.613
1226.925
1160.538
1092.238
1022.129
950.502
877.933
804.846
731.511
658.326
585.713
514.041
443.672
374.834
307.637
242.231
178.766
117.372
58.17
1.226
-53.445
-105.802
-155.791
-203.363
-248.464
-291.062
-331.141
-368.692
-403.718
-436.228
-466.239
-493.782
-518.896
-541.629
-562.036
-580.17
-596.083
-609.837
-621.507
-631.175
-638.931
-644.87
-649.087
-651.683
-652.762
-652.426
-650.777
-647.913
-643.929
-638.921
-632.984
-626.208
-618.685
-610.503
-601.75
-592.508
-582.855
-572.866
-562.614
-552.165
-541.581
-530.92
-520.234
-509.572
-498.977
-488.489
-478.143
-467.971
-458
-448.254
-438.753
-429.514
-420.551
-411.874
-403.494
-395.415
-387.641
-380.177
-373.025
-366.186
-359.663
-353.455
-347.563
-341.986
-336.725
-331.779
-327.147
-322.829
-318.825
-315.134
-311.757
-308.694
-305.947
-303.517
-301.406
-299.614
-298.143
-296.995
-296.17
-295.669
-295.493
-295.641
-296.113
-296.908
-298.023
-299.455
-301.199
-303.249
-305.597
-308.235
-311.151
-314.333
-317.766
-321.435
-325.322
-329.407
-333.668
-338.084
-342.628
-347.274
-351.993
-356.756
-361.531
-366.286
-370.989
-375.608
-380.109
-384.46
-388.627
-392.58
-396.285
-399.712
-402.831
-405.61
-408.023
-410.043
-411.646
-412.811
-413.52
-413.755
-413.503
-412.755
-411.503
-409.741
-407.467
-404.681
-401.384
-397.584
-393.291
-388.515
-383.273
-377.583
-371.467
-364.953
-358.069
-350.844
-343.307
-335.491
-327.426
-319.146
-310.685
-302.079
-293.362
-284.571
-275.748
-266.932
-258.165
-249.484
-240.928
-232.53
-224.326
-216.349
-208.628
-201.191
-194.064
-187.276
-180.853
-174.825
-169.216
-164.05
-159.348
-155.133
-151.423
-148.229
-145.556
-143.4
-141.754
-140.615
-139.978
-139.831
-140.163
-140.964
-142.226
-143.944
-146.111
-148.707
-151.699
-155.055
-158.737
-162.715
-166.953
-171.406
-176.038
-180.826
-185.761
-190.866
-196.151
-201.58
-207.107
-212.663
-218.146
-223.478
-228.567
-233.268
-237.472
-241.112
-244.156
-246.649
-248.622
-250.034
-250.804
-250.792
-249.874
-247.998
-245.095
-241.141
-236.229
-230.482
-224.17
-217.713
-211.403
-205.457
-200.066
-195.111
-190.377
-185.68
-180.57
-174.697
-167.909
-159.835
-150.318
-139.745
-128.448
-117.193
-107.413
-99.956
-95.508
-94.26
-94.713
-95.134
-94.597
-94.175
-96.062
-99.971
-101.559
-89.677
-51.315
18.464
117.335
233.58
349.038
453.276
540.24
606.626
656.545
690.557
707.132
707.176
687.183
644.122
578.35
491.253
387.072
272.513
153.609
33.692
-82.929
-192.877
-293.57
-378.327
-443.368
-486.204
-504.607
-503.818
-489.559
-467.935
-446.58
-427.303
-410.535
-396.741
-384.698
-375.448
-369.682
-366.207
-363.823
-360.576
-355.206
-347.94
-339.18
-329.401
-319.162
-308.873
-299.151
-290.801
-284.141
-279.064
-275.3
-272.308
-269.648
-267.016
-263.962
-260.127
-255.292
-249.247
-241.937
-233.419
-223.697
-212.814
-200.861
-187.892
-174.018
-159.406
-144.189
-128.546
-112.666
-96.727
-80.942
-65.482
-50.463
-35.992
-22.142
-8.955
3.514
15.238
26.221
36.446
45.904
54.595
62.511
69.656
76.056
81.737
86.733
91.078
94.798
97.916
100.459
102.452
103.923
104.897
105.396
105.451
105.1
104.386
103.356
102.055
100.526
98.814
96.966
95.026
93.034
91.029
89.046
87.117
85.278
83.559
81.988
80.592
79.394
78.411
77.663
77.163
76.922
76.943
77.231
77.784
78.597
79.666
80.981
82.528
84.292
86.256
88.397
90.695
93.122
95.651
98.252
100.895
103.547
106.175
108.747
111.229
113.588
115.794
117.814
119.62
121.183
122.475
123.471
124.149
124.485
124.46
124.057
123.261
122.06
120.445
118.411
115.954
113.074
109.775
106.063
101.946
97.438
92.553
87.311
81.731
75.839
69.662
63.228
56.57
49.723
42.721
35.605
28.412
21.184
13.962
6.789
-0.292
-7.239
-14.009
-20.558
-26.845
-32.829
-38.47
-43.729
-48.572
-52.962
-56.87
-60.265
-63.123
-65.419
-67.136
-68.256
-68.769
-68.665
-67.941
-66.596
-64.635
-62.066
-58.902
-55.16
-50.861
-46.031
-40.699
-34.898
-28.664
-22.039
-15.065
-7.788
-0.257
7.477
15.359
23.336
31.352
39.348
47.267
55.052
62.646
69.991
77.032
83.716
89.99
95.804
101.113
105.872
110.041
113.584
116.469
118.669
120.161
120.928
120.957
120.241
118.779
116.574
113.634
109.974
105.612
100.572
94.884
88.581
81.7
74.284
66.378
58.032
49.298
40.23
30.885
21.322
11.601
1.783
-8.069
-17.893
-27.628
-37.211
-46.581
-55.68
-64.451
-72.839
-80.794
-88.27
-95.222
-101.613
-107.408
-112.577
-117.097
-120.946
-124.11
-126.578
-128.345
-129.412
-129.784
-129.471
-128.487
-126.851
-124.586
-121.717
-118.274
-114.288
-109.791
-104.818
-99.409
-93.602
-87.441
-80.968
-74.231
-67.277
-60.155
-52.914
-45.602
-38.266
-30.948
-23.689
-16.529
-9.505
-2.649
4.006
10.433
16.606
22.504
28.106
33.399
38.374
43.028
47.363
51.384
55.098
58.513
61.642
64.5
67.103
69.467
71.614
73.57
75.364
77.032
78.613
80.145
81.67
83.23
84.867
86.619
88.524
90.619
92.928
95.471
98.257
101.28
104.53
107.991
111.639
115.451
119.415
123.522
127.776
132.199
136.805
141.624
146.675
151.948
157.463
163.262
169.435
176.15
183.554
191.74
200.814
210.854
221.884
233.923
246.812
260.14
273.644
287.23
300.974
315.246
330.302
346.106
362.678
380.2
398.48
416.679
433.307
446.2
453.278
453.174
445.178
428.426
403.372
373.077
340.114
307.384
276.829
246.589
219.568
204.021
208.364
241.538
302.856
381.507
466.819
548.635
622.84
689.16
743.702
783.737
805.84
808.325
793.261
758.04
700.133
618.579
514.015
395.446
272.008
150.554
37.83
-64.112
-151.951
-221.61
-272.66
-304.805
-319.182
-318.281
-304.108
-279.997
-251.105
-222.398
-197.105
-176.866
-162.009
-152.361
-147.741
-147.286
-149.01
-150.574
-150.581
-148.686
-145.199
-140.731
-135.716
-130.514
-125.772
-122.267
-120.355
-119.894
-120.419
-121.261
-121.852
-121.904
-121.187
-119.469
-116.609
-112.478
-107.031
-100.339
-92.47
-83.452
-73.316
-62.089
-49.837
-36.732
-22.981
-8.802
5.565
19.958
34.271
48.407
62.296
75.876
89.096
101.931
114.379
126.406
137.962
148.988
159.426
169.248
178.443
187.002
194.923
202.199
208.818
214.771
220.05
224.641
228.529
231.696
234.124
235.808
236.755
236.976
236.492
235.323
233.493
231.031
227.97
224.341
220.174
215.499
210.344
204.741
198.722
192.322
185.572
178.508
171.163
163.571
155.764
147.772
139.623
131.343
122.953
114.473
105.917
97.299
88.63
79.916
71.162
62.371
53.541
44.667
35.742
26.758
17.701
8.558
-0.686
-10.048
-19.544
-29.19
-39
-48.988
-59.166
-69.543
-80.128
-90.925
-101.937
-113.165
-124.605
-136.25
-148.091
-160.113
-172.297
-184.621
-197.058
-209.577
-222.142
-234.714
-247.25
-259.704
-272.024
-284.159
-296.053
-307.649
-318.888
-329.709
-340.052
-349.856
-359.062
-367.611
-375.447
-382.515
-388.764
-394.148
-398.623
-402.151
-404.699
-406.24
-406.75
-406.215
-404.626
-401.979
-398.278
-393.535
-387.767
-380.999
-373.261
-364.593
-355.039
-344.649
-333.48
-321.593
-309.055
-295.938
-282.316
-268.268
-253.875
-239.219
-224.385
-209.457
-194.519
-179.655
-164.946
-150.473
-136.311
-122.535
-109.213
-96.409
-84.183
-72.588
-61.673
-51.48
-42.042
-33.389
-25.543
-18.517
-12.319
-6.951
-2.407
1.326
4.266
6.437
7.871
8.604
8.675
8.132
7.023
5.401
3.324
0.848
-1.966
-5.058
-8.366
-11.83
-15.391
-18.989
-22.568
-26.075
-29.458
-32.667
-35.659
-38.393
-40.832
-42.946
-44.709
-46.1
-47.103
-47.708
-47.908
-47.704
-47.099
-46.101
-44.722
-42.979
-40.893
-38.49
-35.798
-32.849
-29.678
-26.323
-22.824
-19.221
-15.554
-11.864
-8.19
-4.571
-1.045
2.353
5.588
8.627
11.44
13.998
16.274
18.246
19.894
21.205
22.171
22.785
23.047
22.96
22.532
21.772
20.692
19.304
17.623
15.669
13.462
11.026
8.389
5.578
2.626
-0.433
-3.566
-6.743
-9.932
-13.104
-16.237
-19.307
-22.297
-25.194
-27.981
-30.644
-33.17
-35.542
-37.744
-39.762
-41.577
-43.18
-44.567
-45.741
-46.708
-47.486
-48.089
-48.535
-48.844
-49.022
-49.077
-49.021
-48.857
-48.581
-48.208
-47.758
-47.27
-46.812
-46.429
-46.145
-45.99
-45.967
-46.055
-46.219
-46.373
-46.408
-46.256
-45.863
-45.215
-44.366
-43.339
-42.144
-40.793
-39.221
-37.383
-35.268
-32.798
-29.881
-26.527
-22.842
-19.078
-15.628
-12.781
-10.703
-9.58
-9.572
-10.67
-12.652
-15.107
-17.478
-19.293
-20.368
-20.42
-18.972
-16.101
-12.354
-8.484
-5.626
-4.79
-6.39
-10.972
-19.649
-31.302
-42.615
-51.316
-54.788
-52.486
-47.587
-37.135
-13.129
30.921
102.078
197.875
305.782
415.423
517.038
605.039
678.958
736.268
774.102
789.826
780.654
746.299
687.847
605.746
502.011
378.642
236.406
82.284
-73.5
-221.177
-347.594
-447.278
-523.821
-580.033
-621.395
-651.004
-665.463
-663.564
-646.755
-617.416
-580.131
-539.106
-496.531
-453.69
-412.099
-373.519
-338.929
-309.341
-285.876
-268.539
-257.102
-251.337
-249.96
-251.067
-253.495
-256.066
-257.22
-256.262
-252.845
-246.674
-238.429
-229.332
-219.92
-210.545
-201.738
-193.485
-185.745
-178.592
-171.548
-163.945
-155.505
-146.085
-135.659
-124.476
-112.696
-100.393
-87.812
-75.208
-62.786
-50.769
-39.246
-28.209
-17.676
-7.657
1.837
10.776
19.181
27.112
34.613
41.723
48.474
54.878
60.972
66.807
72.429
77.887
83.21
88.416
93.53
98.577
103.585
108.58
113.576
118.577
123.596
128.648
133.749
138.918
144.165
149.496
154.919
160.442
166.066
171.789
177.602
183.491
189.443
195.441
201.468
207.503
213.522
219.502
225.416
231.24
236.945
242.501
247.875
253.035
257.951
262.59
266.922
270.915
274.539
277.764
280.562
282.907
284.775
286.139
286.978
287.273
287.005
286.162
284.73
282.703
280.073
276.841
273.01
268.585
263.577
257.999
251.866
245.2
238.021
230.356
222.233
213.681
204.734
195.428
185.8
175.889
165.736
155.383
144.873
134.251
123.56
112.845
102.151
91.522
81.002
70.635
60.462
50.525
40.865
31.518
22.521
13.908
5.709
-2.045
-9.331
-16.125
-22.407
-28.163
-33.377
-38.041
-42.147
-45.694
-48.681
-51.112
-52.993
-54.335
-55.15
-55.455
-55.269
-54.612
-53.509
-51.986
-50.071
-47.793
-45.185
-42.279
-39.11
-35.715
-32.128
-28.389
-24.534
-20.603
-16.632
-12.661
-8.727
-4.866
-1.114
2.493
5.922
9.142
12.122
14.833
17.248
19.343
21.095
22.486
23.497
24.113
24.323
24.116
23.486
22.428
20.94
19.022
16.678
13.913
10.735
7.153
3.182
-1.165
-5.869
-10.912
-16.271
-21.922
-27.84
-33.997
-40.364
-46.91
-53.601
-60.405
-67.284
-74.203
-81.122
-88.003
-94.805
-101.487
-108.008
-114.326
-120.401
-126.191
-131.656
-136.757
-141.455
-145.713
-149.495
-152.765
-155.491
-157.642
-159.187
-160.101
-160.358
-159.938
-158.82
-156.989
-154.432
-151.141
-147.107
-142.329
-136.806
-130.542
-123.545
-115.827
-107.404
-98.299
-88.538
-78.153
-67.183
-55.67
-43.661
-31.207
-18.362
-5.184
8.266
21.925
35.728
49.605
63.489
77.304
90.978
104.436
117.601
130.398
142.755
154.597
165.855
176.462
186.354
195.469
203.747
211.13
217.56
222.989
227.371
230.671
232.859
233.913
233.824
232.596
230.241
226.777
222.225
216.612
209.968
202.328
193.731
184.22
173.834
162.618
150.62
137.892
124.487
110.458
95.86
80.758
65.229
49.358
33.248
17.003
0.722
-15.473
-31.458
-47.11
-62.269
-76.773
-90.466
-103.154
-114.649
-124.808
-133.498
-140.653
-146.319
-150.543
-153.467
-155.339
-156.269
-156.3
-155.379
-153.243
-149.67
-144.603
-137.824
-129.101
-118.7
-107.144
-95.528
-85.601
-78.728
-76.028
-77.851
-83.372
-91.553
-100.821
-111.425
-126.199
-145.394
-166.451
-181.148
-174.096
-135.31
-64.027
33.029
139.627
240.607
329.605
402.378
457.452
497.492
521.465
528.894
521.749
497.22
453.203
390.848
312.011
221.982
127.112
31.295
-62.555
-150.769
-228.982
-293.203
-340.484
-370.061
-383.202
-381.082
-364.877
-337.208
-301.806
-262.921
-224.828
-190.155
-159.935
-134.988
-115.788
-101.942
-92.412
-85.44
-78.969
-72.053
-64.618
-56.767
-48.839
-41.145
-33.96
-27.86
-23.508
-21.013
-20.095
-20.275
-20.899
-21.592
-22.186
-22.482
-22.306
-21.511
-20.015
-17.852
-15.136
-11.937
-8.283
-4.193
0.31
5.096
9.989
14.802
19.331
23.458
27.118
30.259
32.856
34.901
36.394
37.375
37.903
38.01
37.713
37.021
35.935
34.491
32.74
30.734
28.534
26.192
23.753
21.263
18.766
16.292
13.871
11.524
9.266
7.119
5.113
3.279
1.648
0.25
-0.889
-1.744
-2.291
-2.513
-2.4
-1.944
-1.144
-0.001
1.481
3.295
5.431
7.876
10.615
13.628
16.894
20.386
24.076
27.933
31.92
36
40.134
44.28
48.396
52.441
56.372
60.147
63.724
67.061
70.117
72.854
75.232
77.216
78.772
79.87
80.481
80.583
80.158
79.193
77.677
75.608
72.984
69.812
66.1
61.864
57.121
51.895
46.213
40.108
33.617
26.778
19.638
12.242
4.64
-3.115
-10.969
-18.867
-26.754
-34.573
-42.267
-49.781
-57.059
-64.049
-70.698
-76.959
-82.783
-88.13
-92.959
-97.235
-100.929
-104.014
-106.469
-108.278
-109.43
-109.918
-109.741
-108.905
-107.417
-105.292
-102.55
-99.215
-95.315
-90.884
-85.959
-80.58
-74.792
-68.641
-62.176
-55.448
-48.509
-41.412
-34.212
-26.962
-19.717
-12.527
-5.446
1.478
8.196
14.666
20.843
26.691
32.173
37.257
41.916
46.125
49.864
53.117
55.871
58.118
59.854
61.078
61.796
62.013
61.742
60.997
59.796
58.16
56.111
53.675
50.879
47.754
44.329
40.637
36.711
32.583
28.289
23.86
19.331
14.734
10.101
5.462
0.846
-3.718
-8.205
-12.59
-16.85
-20.963
-24.91
-28.674
-32.238
-35.59
-38.717
-41.609
-44.256
-46.653
-48.794
-50.674
-52.289
-53.637
-54.715
-55.524
-56.064
-56.334
-56.336
-56.071
-55.542
-54.752
-53.702
-52.398
-50.84
-49.034
-46.981
-44.687
-42.154
-39.387
-36.389
-33.165
-29.719
-26.056
-22.183
-18.103
-13.822
-9.345
-4.679
0.168
5.189
10.374
15.713
21.194
26.798
32.509
38.307
44.172
50.08
56.008
61.93
67.817
73.642
79.378
84.993
90.456
95.734
100.792
105.595
110.111
114.303
118.137
121.577
124.591
127.149
129.223
130.785
131.808
132.259
132.114
131.352
129.953
127.903
125.192
121.817
117.784
113.112
107.82
101.927
95.455
88.427
80.862
72.787
64.225
55.196
45.726
35.84
25.565
14.934
3.975
-7.287
-18.819
-30.585
-42.538
-54.613
-66.744
-78.863
-90.883
-102.696
-114.183
-125.21
-135.65
-145.396
-154.316
-162.246
-169.03
-174.559
-178.788
-181.769
-183.602
-184.335
-184.074
-183.076
-181.552
-179.623
-177.259
-174.087
-169.688
-163.935
-156.703
-147.715
-137.057
-125.277
-113.555
-103.848
-98.073
-96.746
-99.397
-106.883
-119.827
-139.171
-166.494
-196.67
-221.191
-232.105
-219.726
-182.539
-125.75
-53.173
29.419
119.971
218.019
316.813
406.996
476.684
518.431
533.138
524.208
497.344
453.731
389.906
306.299
205.224
91.746
-25.805
-141.887
-252.191
-351.242
-434.821
-500.003
-545.107
-570.936
-579.704
-573.258
-554.315
-526.838
-494.832
-462.301
-432.003
-404.876
-381.181
-361.007
-343.87
-328.801
-314.53
-299.385
-282.548
-264.197
-244.682
-224.611
-204.605
-185.183
-167.097
-151.126
-137.536
-126.364
-117.504
-110.39
-104.654
-100.041
-95.786
-92.395
-90.478
-88.632
-86.454
-81.754
-71.85
-59.674
-47.222
-37.428
-34.364
-34.624
-35.297
-34.454
-28.839
-20.996
-13.544
-7.138
-3.325
-1.273
0.137
0.712
0.611
-0.195
-1.851
-4.143
-6.889
-10.055
-13.594
-17.419
-21.44
-25.578
-29.745
-33.873
-37.917
-41.797
-45.435
-48.777
-51.769
-54.366
-56.537
-58.244
-59.444
-60.103
-60.191
-59.679
-58.552
-56.795
-54.395
-51.352
-47.67
-43.364
-38.456
-32.97
-26.937
-20.39
-13.371
-5.924
1.9
10.049
18.466
27.091
35.86
44.705
53.557
62.347
71.002
79.454
87.632
95.466
102.889
109.834
116.24
122.045
127.193
131.631
135.309
138.183
140.215
141.372
141.625
140.955
139.345
136.79
133.288
128.846
123.476
117.196
110.032
102.014
93.181
83.574
73.242
62.237
50.618
38.447
25.791
12.72
-0.694
-14.376
-28.247
-42.23
-56.245
-70.214
-84.056
-97.694
-111.05
-124.05
-136.621
-148.693
-160.198
-171.076
-181.266
-190.715
-199.373
-207.197
-214.148
-220.192
-225.302
-229.457
-232.639
-234.838
-236.05
-236.276
-235.522
-233.801
-231.13
-227.532
-223.035
-217.671
-211.477
-204.492
-196.762
-188.334
-179.257
-169.585
-159.372
-148.675
-137.55
-126.058
-114.256
-102.204
-89.961
-77.583
-65.129
-52.654
-40.212
-27.854
-15.632
-3.593
8.219
19.759
30.989
41.871
52.373
62.462
72.111
81.297
89.997
98.193
105.87
113.016
119.622
125.682
131.192
136.152
140.563
144.43
147.76
150.561
152.843
154.618
155.899
156.7
157.038
156.928
156.387
155.435
154.091
152.374
150.304
147.901
145.186
142.177
138.895
135.358
131.587
127.6
123.416
119.056
114.537
109.88
105.101
100.219
95.249
90.209
85.112
79.972
74.802
69.612
64.417
59.227
54.055
48.912
43.811
38.762
33.779
28.872
24.05
19.323
14.698
10.182
5.783
1.51
-2.629
-6.623
-10.463
-14.139
-17.641
-20.96
-24.09
-27.026
-29.765
-32.305
-34.642
-36.774
-38.697
-40.408
-41.9
-43.167
-44.204
-45.006
-45.571
-45.902
-45.999
-45.867
-45.517
-44.957
-44.201
-43.26
-42.141
-40.848
-39.388
-37.762
-35.974
-34.028
-31.925
-29.673
-27.283
-24.771
-22.158
-19.463
-16.703
-13.887
-11.026
-8.131
-5.212
-2.273
0.689
3.66
6.62
9.52
12.29
14.877
17.24
19.363
21.244
22.915
24.436
25.891
27.382
28.992
30.768
32.702
34.752
36.867
38.991
41.151
43.426
45.896
48.662
51.781
55.235
58.922
62.628
66.035
68.82
70.628
71.086
70.109
67.848
64.681
61.246
57.908
54.734
51.991
50.052
48.79
47.69
45.718
41.498
34.543
24.895
12.128
-4.183
-23.724
-44.533
-62.586
-74.664
-79.327
-77.034
-69.805
-55.239
-28.783
13.317
76.102
159.033
256.613
362.298
463.26
544.616
596.897
615.408
603.043
569.454
521.221
460.208
386.88
300.415
202.176
96.857
-10.224
-113.776
-208.084
-287.508
-348.895
-391.622
-416.326
-424.882
-419.508
-402.272
-376.723
-347.831
-319.153
-292.688
-269.463
-249.258
-231.646
-216.39
-202.398
-187.776
-171.392
-152.836
-132.215
-110.419
-88.278
-66.341
-45.417
-26.439
-9.916
3.952
15.241
24.395
31.808
37.767
42.684
46.991
50.977
54.848
58.736
62.702
66.85
71.299
76.1
81.261
86.771
92.595
98.688
104.984
111.378
117.749
123.964
129.886
135.43
140.556
145.239
149.482
153.296
156.692
159.714
162.426
164.882
167.128
169.209
171.167
173.058
174.95
176.909
179
181.277
183.783
186.551
189.61
192.976
196.658
200.655
204.958
209.559
214.453
219.634
225.094
230.821
236.797
243.003
249.416
256.008
262.748
269.598
276.517
283.464
290.396
297.272
304.047
310.677
317.119
323.329
329.264
334.882
340.141
344.999
349.419
353.364
356.8
359.7
362.038
363.791
364.944
365.482
365.395
364.679
363.332
361.355
358.755
355.54
351.726
347.328
342.368
336.87
330.862
324.377
317.448
310.113
302.41
294.379
286.063
277.505
268.749
259.84
250.823
241.742
232.643
223.569
214.566
205.675
196.938
188.394
180.082
172.036
164.29
156.875
149.819
143.147
136.881
131.041
125.642
120.699
116.222
112.217
108.689
105.639
103.066
100.966
99.332
98.155
97.424
97.126
97.244
97.763
98.665
99.928
101.533
103.457
105.677
108.168
110.907
113.868
117.024
120.351
123.823
127.413
131.096
134.848
138.644
142.46
146.275
150.068
153.817
157.505
161.114
164.629
168.035
171.319
174.47
177.479
180.338
183.039
185.578
187.951
190.154
192.187
194.049
195.74
197.262
198.619
199.813
200.849
201.731
202.467
203.062
203.525
203.863
204.086
204.202
204.221
204.154
204.01
203.801
203.536
203.225
202.88
202.511
202.126
201.737
201.352
200.981
200.632
200.315
200.036
199.804
199.626
199.509
199.46
199.488
199.598
199.799
200.098
200.503
201.022
201.663
202.434
203.342
204.395
205.598
206.957
208.48
210.17
212.032
214.07
216.287
218.686
221.269
224.037
226.99
230.126
233.444
236.939
240.607
244.442
248.439
252.589
256.886
261.321
265.882
270.557
275.333
280.192
285.116
290.083
295.067
300.042
304.98
309.849
314.62
319.263
323.745
328.033
332.094
335.894
339.403
342.585
345.406
347.829
349.821
351.35
352.384
352.898
352.865
352.26
351.064
349.261
346.835
343.772
340.057
335.675
330.619
324.885
318.477
311.406
303.689
295.349
286.417
276.933
266.936
256.47
245.575
234.282
222.626
210.645
198.373
185.855
173.137
160.254
147.252
134.179
121.079
108.015
95.049
82.235
69.638
57.318
45.323
33.732
22.626
12.094
2.244
-6.848
-15.119
-22.484
-28.85
-34.112
-38.183
-41.093
-42.964
-43.959
-44.279
-44.001
-43.173
-42.021
-40.705
-39.284
-37.693
-35.43
-31.94
-27.252
-21.629
-15.217
-8.372
-1.411
5.063
9.551
10.417
7.792
3.444
-1.996
-8.162
-16.426
-30.287
-46.351
-56.516
-53.081
-26.819
22.12
84.407
152.845
219.14
278.33
331.204
375.172
406.978
425.071
426.595
409.746
374.306
320.325
249.977
168.351
80.665
-9.451
-98.591
-183.369
-259.797
-322.752
-369.126
-398.994
-413.471
-413.812
-401.702
-378.898
-348.611
-315.89
-284.414
-255.942
-231.279
-210.382
-193.068
-179.35
-168.214
-157.519
-145.841
-132.612
-117.917
-102.512
-87.012
-71.753
-57.254
-44.246
-33.142
-24.046
-16.776
-10.859
-5.849
-1.379
2.816
6.921
11.039
15.209
19.502
23.952
28.545
33.256
38.037
42.844
47.638
52.366
56.896
61.078
64.745
67.721
69.915
71.293
71.828
71.523
70.382
68.407
65.643
62.155
57.988
53.175
47.751
41.746
35.223
28.265
20.949
13.358
5.564
-2.37
-10.379
-18.403
-26.394
-34.307
-42.107
-49.766
-57.248
-64.515
-71.534
-78.269
-84.692
-90.781
-96.517
-101.883
-106.874
-111.488
-115.733
-119.619
-123.163
-126.383
-129.3
-131.941
-134.334
-136.51
-138.503
-140.349
-142.087
-143.758
-145.405
-147.07
-148.799
-150.634
-152.617
-154.791
-157.195
-159.867
-162.842
-166.153
-169.83
-173.901
-178.388
-183.309
-188.679
-194.508
-200.799
-207.554
-214.766
-222.425
-230.516
-239.021
-247.914
-257.169
-266.751
-276.626
-286.754
-297.092
-307.595
-318.215
-328.903
-339.612
-350.291
-360.892
-371.367
-381.668
-391.751
-401.569
-411.078
-420.237
-429.005
-437.345
-445.224
-452.615
-459.496
-465.849
-471.665
-476.938
-481.671
-485.868
-489.539
-492.7
-495.367
-497.563
-499.314
-500.657
-501.628
-502.271
-502.634
-502.77
-502.736
-502.595
-502.406
-502.227
-502.115
-502.125
-502.309
-502.718
-503.396
-504.385
-505.729
-507.476
-509.671
-512.359
-515.584
-519.388
-523.809
-528.877
-534.606
-541.002
-548.061
-555.763
-564.098
-573.049
-582.602
-592.768
-603.54
-614.896
-626.813
-639.244
-652.093
-665.237
-678.502
-691.689
-704.647
-717.251
-729.397
-741.042
-752.133
-762.647
-772.587
-781.876
-790.426
-798.113
-804.737
-810.158
-814.387
-817.541
-819.932
-821.962
-823.819
-825.729
-828.02
-830.755
-833.889
-837.088
-839.456
-840.297
-839.538
-837.072
-832.722
-826.84
-819.629
-811.598
-804.586
-798.863
-792.589
-785.003
-775.263
-765.297
-761.532
-765.687
-774.656
-779.781
-765.188
-721.841
-647.383
-545.457
-430.853
-315.555
-210.449
-128.098
-71.15
-39.351
-30.339
-34.099
-42.711
-53.254
-62.412
-70.449
-81.48
-95.423
-112.306
-133.089
-154.322
-174.275
-193.123
-210.243
-227.026
-244.78
-263.278
-282.303
-301.384
-319.88
-337.471
-353.789
-368.499
-381.433
-392.536
-401.967
-409.936
-416.693
-422.61
-428
-433.108
-438.166
-443.299
-448.56
-454.011
-459.658
-465.433
-471.294
-477.169
-482.96
-488.611
-494.041
-499.149
-503.843
-508
-511.543
-514.444
-516.684
-518.275
-519.24
-519.592
-519.373
-518.645
-517.445
-515.829
-513.871
-511.643
-509.255
-506.8
-504.348
-501.985
-499.765
-497.697
-495.766
-493.883
-491.928
-489.838
-487.564
-485.085
-482.459
-479.721
-476.911
-474.081
-471.207
-468.275
-465.302
-462.242
-459.062
-455.766
-452.405
-449.255
-446.732
-445.14
-444.748
-445.669
-447.826
-451.264
-455.913
-461.408
-467.381
-473.344
-478.777
-483.459
-487.363
-490.448
-492.67
-494.736
-497.343
-500.187
-503.632
-505.918
-503.973
-499.13
-492.496
-486.004
-484.516
-485.016
-479.837
-463.507
-427.822
-370.717
-299.912
-220.614
-138.285
-58.712
18.15
90.128
151.972
200.529
232.501
245.175
237.395
207.996
156.922
86.726
2.416
-90.51
-187.515
-284.253
-375.914
-456.935
-522.148
-568.859
-597.343
-609.242
-606.106
-589.872
-563.272
-530.513
-496.608
-465.003
-437.202
-413.683
-394.556
-379.769
-369.071
-361.09
-353.524
-344.923
-334.728
-323.047
-310.599
-297.945
-285.422
-273.675
-263.533
-255.453
-249.599
-245.745
-243.268
-241.633
-240.379
-239.125
-237.651
-235.798
-233.457
-230.563
-227.048
-222.865
-218.013
-212.474
-206.214
-199.221
-191.481
-183.062
-174.124
-164.833
-155.366
-145.828
-136.253
-126.666
-117.085
-107.514
-97.956
-88.392
-78.777
-69.098
-59.373
-49.615
-39.85
-30.079
-20.279
-10.431
-0.517
9.47
19.528
29.649
39.824
50.031
60.237
70.401
80.477
90.426
100.218
109.823
119.212
128.357
137.226
145.791
154.027
161.902
169.385
176.443
183.043
189.157
194.758
199.821
204.327
208.257
211.599
214.341
216.477
218.003
218.917
219.22
218.914
218.007
216.507
214.426
211.779
208.583
204.86
200.634
195.929
190.772
185.19
179.212
172.868
166.188
159.202
151.94
144.433
136.715
128.817
120.772
112.615
104.377
96.09
87.784
79.491
71.239
63.056
54.967
46.998
39.172
31.513
24.044
16.785
9.758
2.983
-3.521
-9.735
-15.64
-21.219
-26.453
-31.325
-35.817
-39.911
-43.588
-46.83
-49.618
-51.932
-53.753
-55.062
-55.84
-56.068
-55.725
-54.792
-53.249
-51.077
-48.257
-44.772
-40.605
-35.737
-30.155
-23.844
-16.793
-8.993
-0.435
8.888
18.983
29.85
41.487
53.886
67.036
80.926
95.538
110.853
126.849
143.495
160.763
178.624
197.045
215.991
235.419
255.276
275.511
296.07
316.902
337.965
359.21
380.582
402.028
423.493
444.923
466.264
487.453
508.417
529.089
549.397
569.289
588.724
607.663
626.071
643.889
661.039
677.444
693.02
707.727
721.577
734.566
746.68
757.921
768.251
777.715
786.506
794.571
801.646
807.534
811.978
815.062
817.399
819.238
820.406
821.223
822.279
824.244
828.233
834.282
841.058
848.024
855.334
862.698
869.935
876.225
879.563
879.663
878.172
875.71
872.297
867.948
861.899
854.787
849.138
845.765
843.821
843.202
843.892
846.347
852.19
861.302
871.591
882.066
892.549
902.676
912.501
921.47
928.039
931.972
934.329
935.727
936.635
937.336
937.572
937.497
937.763
938.457
939.2
939.696
939.583
938.701
937.205
935.102
932.269
928.685
924.371
919.365
913.755
907.566
900.753
893.298
885.195
876.455
867.123
857.239
846.841
835.97
824.664
812.966
800.929
788.614
776.083
763.4
750.629
737.834
725.086
712.453
700
687.783
675.84
664.213
652.945
642.081
631.668
621.748
612.352
603.514
595.271
587.642
580.634
574.224
568.358
562.99
558.09
553.642
549.65
546.143
543.178
540.831
539.187
538.309
538.231
538.923
540.318
542.342
544.896
547.977
551.638
555.933
560.942
566.698
573.138
580.107
587.322
594.381
600.883
606.404
610.514
613.101
614.284
614.428
614.24
614.161
614.344
615.098
616.534
618.239
619.567
619.329
616.051
609.138
598.161
582.599
562.924
540.129
516.857
497.216
483.88
479.156
483.856
497.761
523.561
563.75
621.283
698.905
793.796
898.575
1000.568
1084.666
1139.861
1163.226
1160.046
1137.73
1101.955
1052.577
985.826
901.52
802.056
692.731
580.317
468.771
362.048
265.265
182.312
116.242
68.307
37.296
21.978
21.323
32.833
52.884
77.294
101.67
123.412
141.744
155.975
165.77
171.444
173.64
173.869
174.126
175.303
177.348
180.004
182.7
184.949
186.455
186.586
184.618
180.286
173.678
165.185
155.384
144.742
133.646
122.438
111.387
100.716
90.601
81.116
72.293
64.147
56.651
49.803
43.603
38.002
32.922
28.235
23.789
19.432
15.018
10.447
5.664
0.628
-4.682
-10.261
-16.1
-22.172
-28.426
-34.836
-41.386
-48.054
-54.817
-61.638
-68.465
-75.243
-81.922
-88.452
-94.794
-100.912
-106.776
-112.365
-117.659
-122.646
-127.32
-131.666
-135.665
-139.298
-142.543
-145.38
-147.795
-149.772
-151.299
-152.369
-152.979
-153.131
-152.831
-152.089
-150.913
-149.317
-147.317
-144.931
-142.181
-139.092
-135.692
-132.01
-128.083
-123.947
-119.644
-115.216
-110.708
-106.166
-101.636
-97.165
-92.801
-88.592
-84.587
-80.834
-77.379
-74.272
-71.557
-69.281
-67.484
-66.206
-65.485
-65.353
-65.839
-66.966
-68.755
-71.219
-74.369
-78.211
-82.745
-87.964
-93.859
-100.415
-107.61
-115.417
-123.806
-132.738
-142.173
-152.062
-162.356
-172.999
-183.934
-195.098
-206.427
-217.856
-229.314
-240.732
-252.04
-263.164
-274.033
-284.577
-294.724
-304.407
-313.56
-322.118
-330.022
-337.216
-343.648
-349.269
-354.038
-357.917
-360.875
-362.887
-363.932
-363.998
-363.079
-361.174
-358.293
-354.447
-349.657
-343.951
-337.362
-329.927
-321.692
-312.707
-303.027
-292.712
-281.826
-270.436
-258.614
-246.436
-233.976
-221.315
-208.531
-195.707
-182.921
-170.254
-157.786
-145.595
-133.756
-122.342
-111.424
-101.069
-91.339
-82.293
-73.985
-66.464
-59.773
-53.949
-49.025
-45.026
-41.972
-39.877
-38.75
-38.592
-39.399
-41.163
-43.868
-47.493
-52.011
-57.392
-63.598
-70.589
-78.319
-86.739
-95.796
-105.434
-115.595
-126.22
-137.245
-148.606
-160.24
-172.08
-184.061
-196.117
-208.183
-220.193
-232.085
-243.799
-255.275
-266.457
-277.292
-287.728
-297.716
-307.212
-316.173
-324.558
-332.332
-339.46
-345.914
-351.667
-356.7
-360.994
-364.535
-367.315
-369.327
-370.57
-371.045
-370.755
-369.707
-367.91
-365.378
-362.125
-358.171
-353.535
-348.239
-342.312
-335.781
-328.68
-321.04
-312.892
-304.27
-295.209
-285.742
-275.909
-265.745
-255.289
-244.582
-233.669
-222.595
-211.406
-200.149
-188.868
-177.608
-166.413
-155.326
-144.39
-133.646
-123.134
-112.896
-102.975
-93.415
-84.257
-75.543
-67.313
-59.604
-52.461
-45.914
-39.991
-34.714
-30.099
-26.166
-22.937
-20.421
-18.622
-17.544
-17.193
-17.574
-18.693
-20.543
-23.098
-26.334
-30.223
-34.738
-39.853
-45.531
-51.715
-58.369
-65.467
-73.007
-81.014
-89.473
-98.334
-107.529
-116.97
-126.57
-136.247
-145.877
-155.293
-164.378
-173.054
-181.288
-189.111
-196.498
-203.336
-209.48
-214.724
-218.893
-221.902
-223.724
-224.379
-223.98
-222.716
-220.836
-218.758
-216.88
-215.304
-213.916
-212.328
-209.996
-206.6
-202.109
-196.373
-189.118
-180.601
-171.4
-162.619
-155.979
-152.517
-152.429
-156.011
-163.623
-174.67
-187.948
-201.092
-210.029
-211.567
-203.721
-183.965
-150.781
-103.736
-41.833
32.972
118.06
211.313
306.257
396.871
475.286
532.687
567.981
581.278
574.282
550.652
507.953
444.047
360.451
259.213
145.911
26.874
-94.118
-213.359
-326.239
-427.746
-513.697
-581.405
-630.344
-661.663
-676.279
-675.224
-660.851
-636.653
-606.129
-572.149
-536.72
-501.053
-466.643
-435.315
-408.099
-385.099
-366.399
-352.439
-343.416
-339.331
-339.499
-342.269
-346.497
-351.725
-357.172
-361.782
-364.832
-365.821
-364.962
-363.396
-361.731
-359.994
-358.39
-357.107
-356.273
-356.08
-356.28
-356.158
-355.329
-353.702
-351.26
-348.183
-344.585
-340.469
-335.993
-331.402
-326.902
-322.683
-318.82
-315.268
-312.006
-309.018
-306.289
-303.826
-301.593
-299.51
-297.522
-295.572
-293.617
-291.633
-289.571
-287.371
-284.974
-282.321
-279.371
-276.104
-272.496
-268.52
-264.156
-259.38
-254.182
-248.568
-242.536
-236.084
-229.208
-221.907
-214.186
-206.059
-197.54
-188.642
-179.389
-169.804
-159.921
-149.778
-139.412
-128.865
-118.18
-107.401
-96.575
-85.749
-74.971
-64.29
-53.753
-43.411
-33.313
-23.506
-14.038
-4.951
3.713
11.914
19.617
26.787
33.395
39.415
44.824
49.601
53.729
57.195
59.992
62.113
63.56
64.333
64.442
63.897
62.715
60.915
58.521
55.558
52.054
48.044
43.559
38.638
33.318
27.639
21.643
15.372
8.868
2.177
-4.659
-11.597
-18.595
-25.611
-32.605
-39.538
-46.374
-53.079
-59.617
-65.959
-72.076
-77.941
-83.53
-88.821
-93.795
-98.437
-102.732
-106.668
-110.238
-113.435
-116.256
-118.699
-120.766
-122.46
-123.787
-124.754
-125.374
-125.657
-125.618
-125.275
-124.645
-123.747
-122.605
-121.239
-119.673
-117.934
-116.044
-114.032
-111.924
-109.746
-107.526
-105.292
-103.071
-100.891
-98.778
-96.76
-94.864
-93.114
-91.535
-90.153
-88.991
-88.071
-87.414
-87.041
-86.97
-87.218
-87.801
-88.731
-90.02
-91.676
-93.705
-96.112
-98.896
-102.055
-105.585
-109.477
-113.72
-118.301
-123.201
-128.4
-133.875
-139.6
-145.544
-151.676
-157.96
-164.359
-170.832
-177.336
-183.825
-190.251
-196.566
-202.719
-208.655
-214.323
-219.666
-224.629
-229.157
-233.195
-236.687
-239.58
-241.822
-243.362
-244.153
-244.15
-243.312
-241.599
-238.977
-235.414
-230.886
-225.368
-218.843
-211.298
-202.725
-193.12
-182.487
-170.83
-158.161
-144.496
-129.86
-114.279
-97.787
-80.424
-62.232
-43.262
-23.569
-3.211
17.748
39.241
61.196
83.539
106.192
129.075
152.108
175.21
198.3
221.295
244.113
266.673
288.894
310.695
331.999
352.725
372.797
392.138
410.677
428.339
445.056
460.757
475.369
488.829
501.08
512.063
521.728
530.027
536.917
542.369
546.364
548.881
549.9
549.41
547.397
543.864
538.816
532.258
524.194
514.632
503.581
491.064
477.121
461.784
445.082
427.045
407.694
387.082
365.296
342.427
318.579
293.869
268.423
242.397
215.998
189.406
162.772
136.235
109.892
83.872
58.336
33.423
9.271
-14.022
-36.44
-57.993
-78.682
-98.58
-117.79
-136.424
-154.709
-172.811
-190.771
-208.6
-226.229
-243.579
-260.681
-277.565
-294.193
-310.519
-326.4
-341.563
-355.85
-369.031
-380.643
-390.212
-396.944
-399.809
-398.132
-391.432
-379.179
-361.142
-337.378
-307.998
-274.123
-237.754
-200.299
-163.295
-127.605
-92.125
-56.677
-21.463
13.555
46.915
81.293
123.829
182.08
264.086
369.799
490.594
617.249
739.438
851.998
954.998
1045.004
1118.375
1171.398
1198.885
1199.479
1173.578
1120.517
1041.718
941.086
823.208
694.173
560.791
427.936
300.667
185.338
86.851
8.374
-48.633
-85.128
-103.205
-104.584
-91.811
-68.79
-39.424
-7.205
25.457
57.176
86.787
112.989
134.361
150.342
161.075
166.368
165.776
159.186
146.657
128.973
107.987
84.911
60.523
36.151
12.754
-9.108
-28.816
-46.643
-63.659
-80.274
-96.787
-113.717
-131.047
-148.745
-166.891
-185.013
-202.455
-218.932
-234.22
-248.213
-261.095
-272.947
-283.838
-293.995
-303.63
-312.926
-322
-330.843
-339.395
-347.612
-355.449
-362.878
-369.865
-376.335
-382.231
-387.513
-392.133
-396.066
-399.279
-401.721
-403.351
-404.131
-404.034
-403.054
-401.198
-398.466
-394.867
-390.412
-385.118
-379.016
-372.135
-364.503
-356.147
-347.097
-337.388
-327.062
-316.163
-304.731
-292.818
-280.474
-267.76
-254.736
-241.467
-228.016
-214.449
-200.833
-187.232
-173.713
-160.339
-147.172
-134.271
-121.695
-109.501
-97.743
-86.471
-75.733
-65.568
-56.017
-47.112
-38.884
-31.357
-24.55
-18.479
-13.155
-8.583
-4.767
-1.703
0.616
2.203
3.074
3.25
2.757
1.626
-0.108
-2.408
-5.231
-8.533
-12.266
-16.382
-20.828
-25.552
-30.501
-35.621
-40.859
-46.16
-51.47
-56.737
-61.912
-66.945
-71.79
-76.402
-80.741
-84.768
-88.449
-91.752
-94.649
-97.115
-99.129
-100.673
-101.733
-102.3
-102.367
-101.929
-100.989
-99.55
-97.619
-95.209
-92.334
-89.011
-85.262
-81.11
-76.582
-71.707
-66.517
-61.045
-55.328
-49.401
-43.303
-37.074
-30.753
-24.381
-17.997
-11.641
-5.353
0.83
6.87
12.731
18.381
23.785
28.914
33.739
38.235
42.376
46.142
49.513
52.472
55.005
57.101
58.75
59.948
60.69
60.978
60.815
60.206
59.161
57.693
55.816
53.548
50.912
47.93
44.629
41.036
37.184
33.105
28.834
24.406
19.859
15.23
10.558
5.882
1.242
-3.326
-7.781
-12.087
-16.207
-20.106
-23.748
-27.101
-30.134
-32.818
-35.126
-37.034
-38.52
-39.565
-40.152
-40.27
-39.906
-39.056
-37.713
-35.878
-33.553
-30.746
-27.466
-23.726
-19.545
-14.943
-9.944
-4.575
1.132
7.147
13.434
19.955
26.672
33.544
40.53
47.588
54.674
61.744
68.757
75.667
82.434
89.017
95.378
101.48
107.287
112.766
117.887
122.62
126.94
130.82
134.237
137.169
139.6
141.512
142.897
143.745
144.051
143.817
143.046
141.745
139.924
137.595
134.774
131.479
127.73
123.551
118.968
114.009
108.704
103.088
97.198
91.071
84.741
78.243
71.61
64.878
58.086
51.27
44.468
37.723
31.078
24.583
18.289
12.244
6.489
1.063
-3.998
-8.659
-12.891
-16.67
-19.982
-22.818
-25.175
-27.052
-28.454
-29.393
-29.884
-29.937
-29.55
-28.716
-27.416
-25.629
-23.346
-20.533
-17.157
-13.189
-8.563
-3.215
2.928
9.985
18.057
27.19
37.406
48.649
60.782
73.713
87.231
101.004
114.892
128.856
143.023
157.801
173.43
189.837
207.134
225.495
244.472
263.254
280.453
294.016
302.591
305.669
302.632
292.985
277.461
257.82
237.131
219.822
209.344
207.903
218.016
242.238
281.698
335.94
402.307
475.918
552.539
628.968
700.804
762.608
809.293
836.697
843.057
828.941
794.462
738.999
663.693
571.869
468.352
358.764
247.433
137.6
33.493
-59.476
-136.641
-195.511
-235.887
-259.217
-266.952
-260.667
-243.074
-218.404
-191.535
-165.977
-143.485
-124.732
-109.933
-99.092
-91.863
-86.937
-82.218
-76.45
-69.347
-61.073
-52.244
-43.393
-34.851
-27.307
-21.642
-18.245
-17.12
-18.007
-20.335
-23.656
-27.61
-31.678
-35.431
-38.571
-40.835
-42.13
-42.426
-41.635
-39.718
-36.686
-32.526
-27.289
-21.065
-13.912
-5.94
2.719
11.934
21.535
31.402
41.466
51.667
61.975
72.368
82.816
93.31
103.865
114.471
125.114
135.78
146.435
157.06
167.649
178.189
188.671
199.075
209.368
219.512
229.466
239.186
248.621
257.717
266.415
274.661
282.412
289.627
296.271
302.31
307.71
312.441
316.479
319.803
322.389
324.22
325.279
325.557
325.051
323.762
321.698
318.871
315.299
311.004
306.016
300.369
294.097
287.243
279.85
271.967
263.647
254.945
245.921
236.633
227.145
217.52
207.821
198.111
188.454
178.909
169.536
160.392
151.534
143.013
134.878
127.175
119.949
113.238
107.077
101.497
96.523
92.176
88.47
85.415
83.016
81.27
80.172
79.709
79.865
80.617
81.94
83.803
86.169
89.001
92.256
95.887
99.846
104.082
108.544
113.177
117.926
122.737
127.554
132.324
136.991
141.503
145.808
149.857
153.602
156.997
160
162.573
164.679
166.285
167.364
167.89
167.842
167.203
165.96
164.103
161.627
158.53
154.814
150.486
145.554
140.032
133.936
127.285
120.101
112.407
104.231
95.6
86.543
77.093
67.281
57.141
46.706
36.011
25.091
13.98
2.711
-8.682
-20.167
-31.714
-43.292
-54.875
-66.434
-77.945
-89.385
-100.732
-111.967
-123.07
-134.026
-144.82
-155.441
-165.877
-176.119
-186.162
-195.999
-205.625
-215.039
-224.237
-233.219
-241.984
-250.533
-258.866
-266.985
-274.893
-282.593
-290.087
-297.378
-304.468
-311.361
-318.055
-324.552
-330.849
-336.945
-342.836
-348.519
-353.989
-359.24
-364.266
-369.059
-373.611
-377.912
-381.951
-385.715
-389.19
-392.362
-395.218
-397.742
-399.922
-401.742
-403.191
-404.257
-404.929
-405.194
-405.042
-404.462
-403.444
-401.978
-400.055
-397.668
-394.811
-391.483
-387.684
-383.418
-378.692
-373.513
-367.894
-361.846
-355.382
-348.518
-341.271
-333.66
-325.709
-317.442
-308.891
-300.09
-291.076
-281.887
-272.562
-263.141
-253.663
-244.167
-234.691
-225.271
-215.947
-206.761
-197.754
-188.971
-180.456
-172.255
-164.419
-156.994
-150.023
-143.542
-137.585
-132.177
-127.342
-123.098
-119.455
-116.421
-114.004
-112.213
-111.057
-110.546
-110.685
-111.471
-112.9
-114.96
-117.629
-120.89
-124.707
-129.034
-133.841
-139.098
-144.799
-150.974
-157.622
-164.721
-172.259
-180.186
-188.429
-196.895
-205.414
-213.792
-221.889
-229.577
-236.78
-243.501
-249.713
-255.413
-260.591
-265.124
-268.895
-271.8
-273.698
-274.533
-274.356
-273.287
-271.656
-269.893
-268.379
-267.574
-267.664
-268.46
-269.689
-270.792
-271.191
-270.757
-269.195
-265.957
-261.303
-256.044
-251.196
-248.291
-248.324
-251.307
-257.528
-267.716
-280.47
-292.482
-301.266
-304.011
-300.241
-292.913
-278.973
-250.994
-202.781
-127.54
-27.984
84.099
199.017
307.287
403.089
485.255
550.921
597.407
623.09
626.394
606.763
564.053
499.754
418.016
324.199
223.976
122.075
22.103
-71.597
-153.569
-219.357
-266.901
-296.379
-309.391
-307.567
-292.601
