Name,John Breau
Date of Birth,"Dec 20, 1971"
Recorded Date,2024-01-21 17:25:11 -0500
Classification,Sinus Rhythm
Symptoms,
Software Version,1.90
Device,"Watch6,3"
Sample Rate,512 hertz


Lead,Lead I
Unit,µV

-97.095
-94.749
-91.4
-87.106
-81.848
-75.519
-68.098
-59.46
-50.001
-41.061
-33.337
-26.86
-21.553
-16.577
-10.952
-4.375
4.08
16.805
35.533
61.68
96.491
138.884
187.15
240.404
296.98
353.862
407.885
454.581
488.822
508.319
511.863
497.942
465.949
415.789
348.257
267.121
178.056
85.201
-7.861
-97.475
-180.485
-253.003
-311.555
-355.388
-385.468
-402.509
-407.639
-402.17
-387.357
-365.619
-339.635
-311.051
-281.393
-252.442
-225.218
-200.512
-179.152
-161.436
-147.642
-137.962
-131.61
-127.123
-123.634
-120.644
-117.704
-114.437
-110.13
-104.23
-97.094
-89.753
-82.893
-76.776
-71.433
-66.738
-62.824
-59.872
-57.652
-55.605
-53.293
-50.493
-47.173
-43.492
-39.518
-35.249
-30.775
-26.248
-21.824
-17.646
-13.803
-10.328
-7.277
-4.707
-2.652
-1.151
-0.214
0.174
0.03
-0.604
-1.673
-3.131
-4.939
-7.056
-9.447
-12.068
-14.866
-17.798
-20.823
-23.898
-26.978
-30.017
-32.965
-35.784
-38.44
-40.904
-43.149
-45.145
-46.863
-48.274
-49.353
-50.076
-50.422
-50.372
-49.907
-49.015
-47.69
-45.929
-43.733
-41.106
-38.053
-34.586
-30.717
-26.463
-21.842
-16.877
-11.589
-6.007
-0.161
5.919
12.197
18.639
25.207
31.863
38.567
45.279
51.959
58.565
65.06
71.402
77.554
83.479
89.139
94.502
99.535
104.207
108.49
112.358
115.79
118.765
121.268
123.286
124.808
125.827
126.341
126.348
125.852
124.857
123.372
121.41
118.986
116.119
112.829
109.141
105.08
100.675
95.957
90.957
85.708
80.245
74.602
68.815
62.92
56.952
50.949
44.945
38.976
33.075
27.275
21.61
16.108
10.8
5.711
0.869
-3.704
-7.987
-11.96
-15.605
-18.91
-21.861
-24.45
-26.67
-28.519
-29.995
-31.1
-31.84
-32.222
-32.254
-31.949
-31.319
-30.381
-29.149
-27.643
-25.882
-23.886
-21.676
-19.274
-16.703
-13.986
-11.147
-8.207
-5.192
-2.123
0.976
4.082
7.175
10.231
13.23
16.151
18.976
21.687
24.267
26.701
28.978
31.086
33.017
34.766
36.326
37.695
38.871
39.854
40.646
41.249
41.666
41.903
41.964
41.859
41.593
41.177
40.619
39.929
39.118
38.197
37.177
36.069
34.884
33.633
32.327
30.978
29.598
28.198
26.79
25.382
23.984
22.605
21.252
19.928
18.633
17.365
16.122
14.9
13.696
12.502
11.314
10.128
8.939
7.749
6.557
5.357
4.144
2.909
1.643
0.337
-1.019
-2.431
-3.905
-5.446
-7.053
-8.72
-10.446
-12.23
-14.08
-16.02
-18.063
-20.218
-22.485
-24.849
-27.29
-29.782
-32.285
-34.749
-37.126
-39.367
-41.436
-43.308
-44.964
-46.401
-47.6
-48.51
-49.101
-49.353
-49.273
-48.925
-48.366
-47.641
-46.82
-45.971
-45.196
-44.651
-44.475
-44.795
-45.724
-47.265
-49.493
-52.591
-56.535
-61.163
-66.111
-70.633
-74.13
-76.278
-76.618
-74.799
-70.954
-65.422
-59.086
-53.525
-49.933
-49.197
-52.215
-58.954
-68.26
-78.266
-86.204
-88.781
-83.209
-66.829
-36.96
7.536
65.63
134.462
209.848
287.201
362.14
429.978
485.267
523.281
541.386
539.258
517.954
478.462
423.298
355.345
276.667
191.769
100.997
3.207
-94.502
-186.66
-265.167
-320.196
-356.272
-378.831
-391.956
-402.526
-408.151
-406.355
-399.135
-386.963
-372.267
-357.071
-340.512
-321.213
-298.534
-272.257
-242.272
-209.427
-174.978
-139.975
-106.597
-77.799
-55.053
-38.98
-29.545
-25.207
-24.776
-27.672
-32.369
-36.949
-40.298
-41.687
-41.26
-40.201
-39.022
-37.763
-36.782
-36.414
-36.904
-38.429
-40.615
-42.642
-44.018
-44.478
-43.897
-42.336
-39.783
-36.256
-31.935
-27.136
-22.204
-17.38
-12.763
-8.354
-4.138
-0.116
3.681
7.241
10.587
13.708
16.603
19.273
21.698
23.903
25.947
27.901
29.87
31.952
34.201
36.653
39.334
42.249
45.41
48.824
52.469
56.339
60.432
64.745
69.283
74.044
79.014
84.171
89.492
94.942
100.494
106.122
111.797
117.492
123.182
128.843
134.455
139.999
145.448
150.778
155.96
160.965
165.766
170.335
174.645
178.671
182.388
185.777
188.817
191.494
193.791
195.696
197.198
198.289
198.961
199.211
199.037
198.438
197.418
195.981
194.136
191.892
189.264
186.266
182.916
179.235
175.242
170.962
166.419
161.638
156.649
151.479
146.158
140.717
135.187
129.601
123.989
118.383
112.814
107.311
101.903
96.617
91.479
86.515
81.746
77.196
72.882
68.822
65.031
61.522
58.304
55.384
52.766
50.453
48.443
46.733
45.318
44.191
43.341
42.756
42.424
42.325
42.442
42.752
43.232
43.857
44.6
45.434
46.33
47.258
48.19
49.097
49.948
50.714
51.364
51.87
52.203
52.335
52.241
51.895
51.278
50.369
49.154
47.62
45.758
43.561
41.028
38.157
34.949
31.406
27.53
23.326
18.801
13.965
8.829
3.408
-2.275
-8.196
-14.322
-20.614
-27.04
-33.564
-40.152
-46.769
-53.378
-59.946
-66.446
-72.844
-79.103
-85.179
-91.014
-96.56
-101.79
-106.687
-111.246
-115.488
-119.42
-123.057
-126.437
-129.577
-132.475
-135.112
-137.429
-139.364
-140.888
-141.993
-142.705
-143.054
-143.027
-142.607
-141.774
-140.475
-138.665
-136.293
-133.252
-129.486
-125.008
-119.881
-114.256
-108.329
-102.23
-96.066
-89.913
-83.822
-77.896
-72.242
-66.94
-62.11
-57.874
-54.373
-51.826
-50.395
-50.127
-51.018
-52.949
-55.741
-59.284
-63.478
-68.217
-73.435
-79.032
-84.899
-90.966
-97.114
-103.189
-109.021
-114.365
-119.025
-122.913
-125.967
-128.201
-129.694
-130.504
-130.72
-130.454
-129.74
-128.603
-127.096
-125.215
-122.982
-120.453
-117.715
-114.993
-112.564
-110.654
-109.416
-109.037
-109.92
-112.164
-115.204
-118.245
-120.285
-121.863
-125.403
-131.83
-139.578
-142.56
-132.296
-106.781
-72.638
-45.218
-41.816
-68.055
-115.717
-165.921
-198.513
-203.95
-183.255
-144.277
-93.794
-32.261
41.193
129.26
231.07
336.988
439.089
526.899
589.509
627.981
643.289
637.746
617.88
581.399
525.818
452.913
363.91
264.42
161.047
57.196
-43.963
-138.669
-222.63
-291.737
-343.497
-377.67
-395.398
-397.909
-386.926
-365.29
-337.234
-307.361
-278.885
-253.458
-231.743
-213.991
-200.18
-189.774
-181.22
-172.536
-162.713
-151.534
-139.252
-126.426
-113.434
-100.631
-88.734
-78.579
-70.572
-64.748
-60.85
-58.417
-57.125
-56.729
-56.916
-57.321
-57.579
-57.442
-56.805
-55.656
-53.998
-51.808
-49.056
-45.755
-41.989
-37.857
-33.458
-28.881
-24.189
-19.462
-14.792
-10.272
-5.998
-2.025
1.628
4.958
7.974
10.693
13.133
15.328
17.339
19.218
21.012
22.765
24.509
26.287
28.146
30.131
32.284
34.637
37.208
40.019
43.087
46.426
50.049
53.962
58.154
62.631
67.422
72.541
78.001
83.806
89.913
96.286
102.938
109.818
116.799
123.798
130.734
137.54
144.271
150.979
157.547
164.06
170.949
178.261
185.746
193.459
201.019
208.895
219.49
232.599
245.63
254.736
252.864
238.431
217.885
200.419
197.147
213.004
241.67
270.834
289.305
290.533
276.196
256.439
238.758
227.478
224.571
224.889
224.973
223.903
219.939
214.565
209.046
202.956
196.619
189.953
182.641
174.956
167.135
159.195
151.235
143.342
135.517
127.772
120.143
112.629
105.229
97.987
90.938
84.098
77.497
71.16
65.101
59.344
53.906
48.796
44.021
39.589
35.502
31.763
28.372
25.325
22.617
20.242
18.19
16.45
15.011
13.858
12.976
12.349
11.96
11.79
11.821
12.034
12.411
12.934
13.584
14.343
15.196
16.125
17.116
18.154
19.224
20.316
21.418
22.519
23.61
24.685
25.737
26.761
27.753
28.709
29.627
30.508
31.35
32.155
32.925
33.663
34.372
35.059
35.729
36.388
37.044
37.704
38.374
39.063
39.777
40.524
41.309
42.139
43.02
43.956
44.951
46.009
47.133
48.323
49.58
50.903
52.289
53.733
55.233
56.782
58.374
60.002
61.659
63.336
65.023
66.711
68.389
70.042
71.656
73.211
74.689
76.073
77.344
78.482
79.468
80.288
80.928
81.381
81.635
81.68
81.504
81.095
80.445
79.547
78.395
76.987
75.321
73.399
71.232
68.833
66.212
63.375
60.319
57.029
53.502
49.744
45.77
41.604
37.271
32.803
28.254
23.694
19.188
14.804
10.596
6.604
2.884
-0.514
-3.534
-6.09
-8.116
-9.595
-10.534
-10.966
-10.948
-10.514
-9.716
-8.696
-7.626
-6.699
-6.113
-6.015
-6.51
-7.769
-10.05
-13.466
-17.973
-23.253
-28.635
-33.564
-37.716
-40.613
-41.675
-40.809
-38.169
-34.52
-31.655
-30.716
-32.181
-37.242
-46.508
-59.008
-73.742
-87.007
-93.289
-90.781
-76.944
-50.906
-14.927
33.257
94.264
169.674
264.749
377.018
499.63
618.406
709.965
759.053
759.998
717.632
649.029
567.101
478.306
385.306
284.761
176.106
62.756
-51.518
-160.68
-259.152
-343.979
-413.154
-466.339
-504.659
-528.686
-538.857
-536.876
-525.395
-507.573
-486.917
-465.483
-443.842
-422.666
-402.477
-383.24
-364.608
-345.571
-324.653
-301.365
-276.119
-249.412
-221.99
-194.562
-167.631
-142.043
-118.832
-98.603
-81.662
-68.061
-57.552
-49.942
-45.087
-42.666
-42.272
-43.489
-45.842
-48.963
-52.557
-56.283
-59.893
-63.173
-65.927
-68.025
-69.324
-69.704
-69.122
-67.564
-65.046
-61.645
-57.445
-52.56
-47.187
-41.511
-35.718
-30.022
-24.551
-19.398
-14.647
-10.344
-6.541
-3.286
-0.582
1.591
3.251
4.431
5.162
5.476
5.453
5.177
4.739
4.24
3.75
3.315
2.981
2.776
2.723
2.842
3.136
3.592
4.207
4.984
5.921
7.023
8.28
9.675
11.192
12.809
14.509
16.277
18.097
19.952
21.83
23.72
25.612
27.5
29.373
31.217
33.016
34.754
36.416
37.984
39.444
40.777
41.971
43.011
43.887
44.59
45.111
45.443
45.58
45.516
45.247
44.771
44.084
43.187
42.079
40.763
39.241
37.519
35.601
33.494
31.204
28.74
26.11
23.323
20.387
17.312
14.108
10.788
7.362
3.842
0.241
-3.429
-7.154
-10.923
-14.722
-18.539
-22.363
-26.183
-29.988
-33.768
-37.512
-41.211
-44.856
-48.439
-51.951
-55.384
-58.732
-61.989
-65.148
-68.204
-71.154
-73.993
-76.719
-79.328
-81.819
-84.19
-86.441
-88.57
-90.579
-92.467
-94.235
-95.885
-97.418
-98.836
-100.143
-101.341
-102.432
-103.421
-104.31
-105.103
-105.804
-106.415
-106.941
-107.385
-107.749
-108.037
-108.252
-108.397
-108.475
-108.488
-108.439
-108.33
-108.162
-107.937
-107.654
-107.313
-106.913
-106.454
-105.934
-105.351
-104.703
-103.988
-103.205
-102.352
-101.428
-100.431
-99.359
-98.212
-96.989
-95.689
-94.312
-92.856
-91.323
-89.712
-88.026
-86.27
-84.446
-82.558
-80.612
-78.613
-76.566
-74.481
-72.362
-70.219
-68.059
-65.894
-63.735
-61.595
-59.492
-57.441
-55.462
-53.575
-51.797
-50.149
-48.645
-47.303
-46.135
-45.152
-44.364
-43.778
-43.404
-43.252
-43.337
-43.667
-44.246
-45.08
-46.168
-47.511
-49.113
-50.969
-53.064
-55.392
-57.944
-60.723
-63.749
-67.021
-70.521
-74.228
-78.112
-82.146
-86.309
-90.556
-94.809
-98.987
-102.999
-106.785
-110.334
-113.617
-116.591
-119.207
-121.38
-123.087
-124.387
-125.307
-125.858
-126.03
-125.771
-125.138
-124.327
-123.552
-123.048
-122.994
-123.429
-124.446
-126.23
-128.798
-132.042
-135.615
-138.863
-141.252
-142.543
-142.607
-141.347
-139.001
-136.033
-133.066
-131.041
-130.758
-132.576
-136.495
-142.312
-148.816
-153.878
-155.519
-151.69
-140.59
-121.128
-92.252
-52.862
-3.583
53.175
114.83
178.412
241.209
301.279
355.612
400.024
431.371
447.899
448.604
433.379
401.81
352.723
286.65
206.542
116.287
20.118
-78.096
-174.969
-266.337
-346.797
-411.777
-459.088
-488.544
-501.381
-499.224
-483.84
-457.93
-425.625
-391.312
-357.977
-327.159
-299.334
-274.534
-252.716
-233.484
-215.673
-197.786
-179.025
-159.246
-138.721
-117.982
-97.487
-77.663
-59.178
-42.842
-29.108
-18.128
-9.882
-4.121
-0.593
0.965
1.007
0.114
-1.223
-2.665
-4.006
-5.167
-6.063
-6.584
-6.69
-6.37
-5.615
-4.392
-2.605
-0.166
2.943
6.662
10.859
15.34
19.91
24.427
28.782
32.907
36.776
40.376
43.732
46.894
49.911
52.794
55.523
58.077
60.449
62.668
64.79
66.891
69.06
71.377
73.914
76.729
79.856
83.309
87.09
91.184
95.565
100.221
105.147
110.337
115.788
121.487
127.415
133.544
139.842
146.267
152.778
159.331
165.883
172.399
178.842
185.179
191.383
197.423
203.271
208.895
214.262
219.338
224.091
228.491
232.506
236.108
239.273
241.979
244.207
245.942
247.172
247.886
248.079
247.745
246.883
245.496
243.589
241.168
238.246
234.835
230.951
226.616
221.852
216.683
211.136
205.237
199.016
192.501
185.724
178.713
171.5
164.115
156.589
148.954
141.241
133.482
125.709
117.95
110.235
102.591
95.045
87.62
80.34
73.224
66.292
59.562
53.049
46.766
40.726
34.936
29.405
24.136
19.132
14.395
9.922
5.711
1.758
-1.943
-5.393
-8.6
-11.576
-14.334
-16.889
-19.254
-21.435
-23.442
-25.298
-27.021
-28.603
-30.025
-31.265
-32.325
-33.241
-34.052
-34.754
-35.359
-35.95
-36.661
-37.615
-38.872
-40.374
-42.036
-43.911
-45.956
-47.798
-49.088
-49.751
-49.872
-49.842
-48.99
-44.976
-36.567
-25.246
-16.729
-19.541
-37.968
-67.807
-96.644
-110.233
-101.501
-75.163
-45.322
-25.362
-21.449
-30.778
-44.132
-54.502
-59.435
-59.831
-58.856
-58.054
-57.253
-56.212
-54.596
-52.506
-50.346
-48.222
-46.084
-43.95
-41.832
-39.713
-37.551
-35.274
-32.824
-30.206
-27.459
-24.609
-21.664
-18.639
-15.551
-12.426
-9.29
-6.166
-3.07
-0.021
2.962
5.862
8.661
11.341
13.885
16.279
18.507
20.56
22.427
24.101
25.576
26.845
27.908
28.764
29.415
29.87
30.133
30.207
30.1
29.81
29.336
28.675
27.808
26.714
25.383
23.802
21.973
19.931
17.711
15.381
13.018
10.647
8.31
6.033
3.815
1.719
-0.212
-1.956
-3.432
-4.535
-5.166
-5.098
-4.155
-2.54
-0.495
1.647
3.53
5.158
6.416
6.905
6.402
5.389
4.801
5.803
9.169
14.772
22.681
32.913
45.053
57.592
67.258
71.98
72.309
68.95
62.353
48.657
18.479
-31.7
-97.399
-163.958
-206.379
-206.128
-155.502
-60.739
59.162
184.554
297.935
390.573
459.972
506.415
534.971
548.214
548.67
537.083
509.245
462.661
396.318
312.752
219.3
122.051
24.608
-70.231
-160.629
-243.27
-313.093
-367.228
-405.312
-428.002
-436.342
-431.665
-415.506
-390.855
-362.427
-333.564
-305.861
-280.205
-256.736
-235.408
-216.268
-198.374
-179.777
-159.508
-137.467
-113.946
-89.868
-65.98
-42.779
-21.192
-2.413
12.826
24.178
31.621
35.526
36.184
33.843
28.895
21.82
13.174
3.472
-6.87
-17.488
-28.066
-38.296
-47.849
-56.42
-63.809
-69.876
-74.537
-77.778
-79.588
-80.011
-79.149
-77.137
-74.174
-70.459
-66.187
-61.568
-56.768
-51.91
-47.117
-42.49
-38.084
-33.947
-30.094
-26.503
-23.161
-20.045
-17.109
-14.303
-11.556
-8.79
-5.922
-2.865
0.448
4.058
7.997
12.281
16.914
21.896
27.212
32.829
38.721
44.868
51.244
57.824
64.578
71.466
78.447
85.476
92.513
99.519
106.454
113.281
119.966
126.47
132.764
138.815
144.591
150.055
155.168
159.892
164.19
168.027
171.368
174.179
176.428
178.088
179.134
179.546
179.305
178.394
176.8
174.513
171.527
167.837
163.444
158.35
152.56
146.086
138.939
131.137
122.7
113.651
104.016
93.825
83.109
71.905
60.25
48.184
35.75
22.993
9.96
-3.3
-16.739
-30.304
-43.946
-57.613
-71.252
-84.814
-98.249
-111.509
-124.547
-137.316
-149.775
-161.882
-173.597
-184.885
-195.711
-206.044
-215.854
-225.117
-233.809
-241.91
-249.405
-256.28
-262.526
-268.137
-273.11
-277.444
-281.144
-284.217
-286.672
-288.522
-289.782
-290.472
-290.613
-290.227
-289.34
-287.979
-286.173
-283.951
-281.342
-278.378
-275.09
-271.508
-267.664
-263.585
-259.304
-254.847
-250.243
-245.519
-240.699
-235.806
-230.864
-225.892
-220.908
-215.932
-210.977
-206.058
-201.186
-196.373
-191.628
-186.957
-182.365
-177.855
-173.427
-169.081
-164.814
-160.622
-156.498
-152.437
-148.43
-144.47
-140.55
-136.662
-132.795
-128.941
-125.092
-121.241
-117.379
-113.499
-109.594
-105.659
-101.691
-97.689
-93.653
-89.582
-85.477
-81.34
-77.175
-72.984
-68.77
-64.537
-60.291
-56.036
-51.781
-47.538
-43.318
-39.134
-35.003
-30.94
-26.961
-23.082
-19.314
-15.671
-12.161
-8.794
-5.578
-2.519
0.378
3.107
5.662
8.036
10.229
12.242
14.077
15.736
17.218
18.523
19.663
20.645
21.472
22.139
22.63
22.934
23.057
23.007
22.796
22.441
21.958
21.384
20.799
20.291
19.948
19.844
20.001
20.442
21.212
22.361
23.943
25.985
28.455
31.331
34.659
38.443
42.666
47.225
51.823
56.165
60.009
63.077
65.177
66.259
66.315
65.524
64.307
63.018
62.029
61.814
62.54
63.982
65.607
66.422
65.431
62.13
56.178
47.129
34.981
20.415
4.913
-8.489
-16.39
-16.654
-7.331
12.537
41.891
81.769
133.637
197.965
277.931
369.838
462.586
544.783
601.507
627.424
629.868
616.398
596.584
573.291
539.767
492.457
429.78
353.396
270.179
184.298
97.542
12.117
-70.287
-147.097
-214.559
-270.264
-313.524
-343.86
-360.988
-364.839
-355.916
-335.821
-307.113
-272.648
-234.754
-195.327
-156.385
-120.278
-88.712
-62.851
-43.641
-30.904
-24.04
-22.541
-25.096
-29.755
-35.201
-40.196
-43.255
-43.815
-41.704
-36.791
-29.826
-21.989
-13.894
-6.032
1.067
7.334
12.752
17.293
21.379
25.598
30.24
35.458
41.275
47.523
54.095
60.932
67.872
74.722
81.34
87.604
93.455
98.907
103.965
108.614
112.849
116.658
120.043
123.038
125.688
128.025
130.072
131.853
133.385
134.698
135.826
136.797
137.632
138.349
138.967
139.507
139.996
140.459
140.913
141.369
141.838
142.331
142.864
143.45
144.103
144.834
145.652
146.567
147.59
148.726
149.977
151.345
152.825
154.415
156.111
157.908
159.799
161.776
163.833
165.959
168.146
170.382
172.657
174.958
177.274
179.592
181.903
184.193
186.453
188.673
190.843
192.955
195.001
196.975
198.87
200.68
202.4
204.027
205.557
206.99
208.322
209.553
210.684
211.716
212.651
213.489
214.235
214.888
215.454
215.933
216.33
216.647
216.887
217.052
217.146
217.171
217.129
217.022
216.85
216.613
216.311
215.943
215.504
214.993
214.405
213.735
212.979
212.13
211.182
210.128
208.962
207.676
206.265
204.72
203.038
201.212
199.238
197.113
194.835
192.402
189.814
187.072
184.177
181.133
177.943
174.612
171.147
167.553
163.84
160.017
156.095
152.086
148.002
143.859
139.673
135.459
131.236
127.023
122.84
118.707
114.645
110.677
106.823
103.107
99.551
96.174
93
90.047
87.335
84.882
82.705
80.82
79.24
77.978
77.046
76.455
76.214
76.329
76.808
77.654
78.871
80.461
82.424
84.757
87.458
90.521
93.941
97.708
101.814
106.246
110.992
116.038
121.368
126.964
132.809
138.883
145.164
151.633
158.265
165.038
171.927
178.908
185.955
193.043
200.148
207.242
214.301
221.296
228.202
234.994
241.646
248.13
254.423
260.498
266.331
271.898
277.175
282.14
286.771
291.049
294.956
298.476
301.594
304.296
306.57
308.406
309.792
310.721
311.188
311.195
310.748
309.861
308.546
306.82
304.701
302.206
299.355
296.169
292.659
288.835
284.709
280.298
275.631
270.736
265.633
260.333
254.844
249.172
243.333
237.351
231.241
225.015
218.693
212.31
205.931
199.64
193.515
187.6
181.915
176.494
171.38
166.65
162.395
158.643
155.374
152.53
150.035
147.814
145.836
143.998
142.036
139.827
137.406
134.993
133.111
132.181
132.283
133.385
135.511
138.199
140.693
142.067
140.685
135.108
124.66
109.086
88.633
64.878
40.342
17.345
-1.071
-11.562
-13.102
-4.788
15.811
47.356
89.797
143.812
201.437
256.108
300.022
322.701
325.139
310.448
282.276
246.196
199.848
140.592
68.427
-15.41
-105.023
-195.852
-286.331
-374.101
-457.127
-532.395
-595.29
-643.945
-678.912
-700.397
-708.838
-705.185
-690.477
-667.43
-640.43
-612.266
-584.194
-557.318
-532.009
-508.45
-487.029
-467.06
-446.884
-425.655
-403.203
-379.594
-355.482
-331.496
-308.065
-286.062
-266.589
-250.277
-237.414
-228.014
-221.778
-218.461
-217.863
-219.615
-223.273
-228.486
-234.978
-242.583
-251.177
-260.526
-270.308
-280.143
-289.677
-298.661
-306.92
-314.333
-320.806
-326.285
-330.764
-334.312
-337.038
-339.028
-340.328
-340.946
-340.906
-340.282
-339.195
-337.821
-336.302
-334.717
-333.119
-331.548
-330.031
-328.578
-327.17
-325.718
-324.116
-322.313
-320.28
-317.949
-315.251
-312.108
-308.413
-304.123
-299.251
-293.732
-287.472
-280.647
-273.471
-265.821
-257.741
-249.321
-240.15
-231.519
-224.685
-217.949
-210.829
-200.192
-182.277
-161.358
-140.3
-123.338
-116.274
-114.07
-112.46
-108.535
-97.45
-82.734
-67.964
-53.965
-42.932
-33.648
-24.539
-15.939
-7.674
0.122
7.098
13.45
19.331
24.673
29.454
33.687
37.364
40.47
43.002
44.931
46.23
46.922
47.035
46.578
45.569
44.025
41.966
39.416
36.405
32.956
29.092
24.842
20.232
15.292
10.052
4.541
-1.21
-7.173
-13.317
-19.614
-26.034
-32.548
-39.128
-45.747
-52.378
-58.996
-65.576
-72.094
-78.526
-84.852
-91.048
-97.097
-102.977
-108.67
-114.161
-119.432
-124.469
-129.258
-133.788
-138.048
-142.028
-145.719
-149.115
-152.208
-154.993
-157.464
-159.618
-161.452
-162.961
-164.143
-164.998
-165.525
-165.724
-165.596
-165.143
-164.366
-163.269
-161.855
-160.128
-158.092
-155.754
-153.121
-150.199
-147
-143.533
-139.81
-135.843
-131.646
-127.234
-122.62
-117.82
-112.849
-107.72
-102.45
-97.055
-91.552
-85.959
-80.294
-74.576
-68.825
-63.063
-57.311
-51.589
-45.918
-40.318
-34.81
-29.415
-24.156
-19.052
-14.126
-9.398
-4.891
-0.626
3.379
7.107
10.543
13.675
16.493
18.988
21.155
22.993
24.497
25.662
26.487
26.968
27.103
26.889
26.322
25.401
24.129
22.512
20.563
18.295
15.721
12.855
9.713
6.313
2.672
-1.195
-5.282
-9.575
-14.058
-18.7
-23.46
-28.307
-33.225
-38.202
-43.231
-48.308
-53.444
-58.671
-64.051
-69.644
-75.487
-81.583
-87.903
-94.434
-101.16
-108.073
-115.177
-122.426
-129.758
-137.132
-144.512
-151.848
-159.055
-165.964
-172.322
-177.913
-182.573
-186.202
-188.775
-190.242
-190.588
-189.851
-188.108
-185.552
-182.39
-178.763
-174.778
-170.583
-166.406
-162.644
-159.838
-158.456
-158.912
-161.544
-166.681
-174.775
-186.024
-200.321
-217.303
-236.226
-256.477
-277.848
-299.955
-322.112
-344.056
-365.692
-387.335
-410.247
-434.965
-460.9
-487.67
-514.814
-541.253
-565.951
-586.741
-599.852
-602.843
-594.812
-574.832
-542.714
-498.695
-442.449
-375.46
-301.398
-223.035
-142.555
-62.496
15.345
88.727
153.635
206.912
246.814
271.289
278.909
268.89
239.914
191.366
125.062
44.081
-47.811
-146.058
-246.573
-345.31
-437.216
-516.773
-579.82
-624.394
-650.493
-659.431
-652.726
-632.347
-601.504
-564.825
-527.022
-491.226
-458.959
-430.741
-406.787
-387.187
-371.475
-358.162
-345.341
-331.896
-317.545
-302.589
-287.607
-273.012
-259.139
-246.62
-236.231
-228.395
-223.202
-220.371
-219.304
-219.484
-220.513
-221.975
-223.473
-224.704
-225.438
-225.547
-225.016
-223.838
-222.006
-219.501
-216.288
-212.338
-207.624
-202.208
-196.238
-189.857
-183.201
-176.389
-169.51
-162.646
-155.875
-149.228
-142.688
-136.228
-129.807
-123.406
-117.031
-110.687
-104.388
-98.116
-91.817
-85.445
-78.963
-72.333
-65.531
-58.529
-51.288
-43.799
-36.078
-28.142
-20.013
-11.707
-3.227
5.42
14.223
23.17
32.241
41.415
50.677
60.004
69.373
78.756
88.119
97.434
106.68
115.832
124.865
133.754
142.468
150.983
159.275
167.319
175.087
182.555
189.699
196.495
202.923
208.967
214.606
219.827
224.616
228.962
232.854
236.287
239.255
241.755
243.785
245.345
246.441
247.075
247.255
246.991
246.295
245.179
243.661
241.759
239.493
236.884
233.956
230.732
227.238
223.498
219.54
215.39
211.075
206.622
202.061
197.416
192.716
187.987
183.254
178.542
173.874
169.272
164.759
160.353
156.075
151.941
147.968
144.172
140.564
137.158
133.964
130.991
128.245
125.732
123.457
121.42
119.622
118.063
116.738
115.646
114.779
114.132
113.697
113.466
113.428
113.573
113.891
114.368
114.995
115.757
116.643
117.639
118.733
119.91
121.159
122.467
123.819
125.203
126.606
128.017
129.425
130.817
132.183
133.514
134.8
136.034
137.207
138.314
139.349
140.306
141.183
141.978
142.689
143.318
143.864
144.33
144.719
145.034
145.281
145.463
145.586
145.654
145.676
145.658
145.609
145.536
145.448
145.356
145.269
145.199
145.154
145.145
145.179
145.266
145.414
145.631
145.924
146.3
146.764
147.322
147.981
148.743
149.61
150.582
151.656
152.828
154.096
155.453
156.892
158.404
159.98
161.613
163.294
165.013
166.758
168.515
170.269
172.004
173.702
175.341
176.898
178.35
179.679
180.866
181.894
182.749
183.417
183.889
184.16
184.22
184.057
183.662
183.022
182.135
181
179.619
177.992
176.124
174.023
171.709
169.207
166.52
163.646
160.576
157.296
153.818
150.166
146.345
142.372
138.305
134.203
130.165
126.308
122.672
119.292
116.24
113.49
110.983
108.713
106.65
104.801
103.283
102.115
101.185
100.677
101.046
102.309
104.156
106.361
108.213
110.466
115.836
123.655
131.199
134.193
124.809
103.87
79.952
61.542
60.245
76.926
101.029
124.074
136.699
136.878
131.532
124.431
118.192
113.346
106.779
98.494
90.597
84.724
83.906
90.9
107.614
136.404
178.284
231.412
292.66
358.918
426.447
491.467
549.686
595.317
623.645
633.053
623.604
595.811
550.487
488.166
410.734
323.026
230.389
136.566
44.454
-43.387
-124.053
-193.467
-248.637
-289.413
-316.723
-331.335
-333.944
-324.903
-305.36
-278.087
-245.509
-208.825
-169.13
-127.525
-85.531
-45.571
-9.341
22.541
49.248
70.03
84.734
93.413
97.018
97.594
96.554
94.831
93.677
93.916
95.951
100.101
105.896
112.189
118.405
124.24
129.194
133.139
136.074
137.958
139.237
140.629
142.505
145.094
148.62
153.053
158.349
164.485
171.194
178.126
185.05
191.767
198.173
204.278
210.061
215.492
220.593
225.375
229.852
234.046
237.919
241.432
244.586
247.399
249.932
252.279
254.51
256.68
258.851
261.058
263.33
265.689
268.13
270.637
273.201
275.818
278.492
281.235
284.048
286.924
289.855
292.822
295.809
298.8
301.768
304.689
307.539
310.299
312.953
315.489
317.893
320.147
322.236
324.142
325.847
327.331
328.576
329.558
330.259
330.661
330.749
330.508
329.927
328.991
327.693
326.022
323.971
321.535
318.708
315.485
311.865
307.848
303.433
298.625
293.427
287.844
281.884
275.554
268.863
261.821
254.436
246.72
238.68
230.328
221.674
212.728
203.503
194.013
184.268
174.279
164.059
153.619
142.975
132.144
121.132
109.948
98.617
87.165
75.613
63.99
52.3
40.536
28.736
16.936
5.101
-6.79
-18.747
-30.797
-42.881
-54.911
-66.924
-78.961
-90.793
-102.165
-113.161
-123.748
-133.901
-144.067
-152.93
-159.283
-164.932
-170.448
-179.083
-194.643
-212.757
-230.561
-243.958
-247.02
-244.396
-240.329
-237.893
-241.918
-249.396
-255.789
-257.588
-253.407
-246.919
-244.026
-252.204
-270.664
-291.638
-306.983
-305.839
-288.408
-264.991
-243.538
-232.89
-234.031
-239.206
-243.849
-244.612
-240.728
-235.433
-230.085
-224.638
-219.217
-213.363
-207.022
-200.657
-194.42
-188.269
-182.249
-176.406
-170.752
-165.294
-160.019
-154.873
-149.86
-145.033
-140.417
-136.023
-131.864
-127.948
-124.286
-120.895
-117.78
-114.939
-112.37
-110.071
-108.037
-106.264
-104.743
-103.465
-102.419
-101.593
-100.978
-100.56
-100.325
-100.258
-100.343
-100.565
-100.909
-101.356
-101.888
-102.488
-103.139
-103.826
-104.536
-105.255
-105.973
-106.679
-107.369
-108.037
-108.676
-109.279
-109.839
-110.35
-110.805
-111.199
-111.522
-111.767
-111.927
-112
-111.986
-111.882
-111.685
-111.39
-110.994
-110.5
-109.909
-109.221
-108.427
-107.524
-106.517
-105.424
-104.27
-103.076
-101.85
-100.598
-99.332
-98.065
-96.79
-95.476
-94.053
-92.439
-90.584
-88.47
-86.096
-83.456
-80.528
-77.276
-73.699
-69.826
-65.679
-61.247
-56.466
-51.31
-45.856
-40.287
-34.906
-30.011
-25.789
-22.428
-20.157
-19.034
-18.985
-19.772
-20.86
-21.815
-22.462
-22.525
-21.832
-20.677
-19.586
-19.438
-21.319
-25.711
-32.764
-42.9
-56.249
-72.058
-88.6
-103.01
-112.4
-114.897
-108.862
-92.279
-63.117
-20.436
34.386
97.785
165.851
235.146
302.142
362.521
410.624
441.352
452.418
443.599
415.474
369.011
305.277
226.74
138.495
45.872
-47.63
-138.952
-225.342
-304.761
-374.999
-434.702
-484.889
-524.989
-551.4
-564.716
-567.591
-564.116
-563.33
-564.338
-557.052
-534.31
-486.117
-412.149
-327.298
-241.561
-165.511
-109.263
-69.085
-44.554
-37.243
-39.819
-50.261
-65.057
-76.009
-83.426
-87.826
-88.433
-87.526
-84.319
-77.65
-68.862
-59.329
-50.463
-43.413
-38.366
-35.019
-33.086
-32.257
-31.909
-31.225
-29.669
-26.988
-23.188
-18.501
-13.121
-7.224
-1.07
5.014
10.72
15.847
20.554
25.134
29.484
33.568
37.385
40.473
44.126
49.555
54.984
59.851
60.929
54.465
44.881
35.109
29.401
33.795
43.417
53.814
62.045
63.251
60.511
58.618
59.56
63.807
69.585
72.148
68.048
61.223
54.53
52.394
60.239
72.857
86.029
96.83
100.401
100.158
99.577
99.418
101.815
105.543
108.971
112.353
115.463
118.374
121.376
124.227
126.727
128.897
130.727
132.177
133.229
133.876
134.109
133.943
133.403
132.466
131.111
129.342
127.157
124.56
121.563
118.17
114.39
110.24
105.741
100.912
95.778
90.36
84.683
78.772
72.653
66.356
59.908
53.337
46.672
39.941
33.174
26.399
19.643
12.933
6.293
-0.254
-6.687
-12.986
-19.134
-25.115
-30.916
-36.528
-41.941
-47.151
-52.153
-56.948
-61.537
-65.926
-70.12
-74.127
-77.959
-81.627
-85.143
-88.523
-91.78
-94.931
-97.99
-100.974
-103.899
-106.779
-109.631
-112.468
-115.304
-118.152
-121.025
-123.932
-126.883
-129.887
-132.948
-136.071
-139.259
-142.511
-145.825
-149.198
-152.623
-156.092
-159.593
-163.113
-166.639
-170.153
-173.637
-177.07
-180.431
-183.697
-186.845
-189.852
-192.692
-195.343
-197.781
-199.983
-201.927
-203.593
-204.959
-206.008
-206.723
-207.088
-207.09
-206.716
-205.959
-204.811
-203.268
-201.328
-198.993
-196.267
-193.155
-189.666
-185.812
-181.607
-177.067
-172.212
-167.062
-161.644
-155.984
-150.113
-144.061
-137.861
-131.548
-125.156
-118.723
-112.284
-105.875
-99.531
-93.287
-87.181
-81.247
-75.518
-70.029
-64.811
-59.893
-55.302
-51.065
-47.203
-43.736
-40.681
-38.051
-35.86
-34.119
-32.835
-32.017
-31.671
-31.8
-32.404
-33.478
-35.015
-37.001
-39.42
-42.25
-45.463
-49.03
-52.922
-57.107
-61.56
-66.253
-71.152
-76.224
-81.429
-86.729
-92.092
-97.479
-102.84
-108.134
-113.321
-118.375
-123.294
-128.069
-132.668
-137.056
-141.191
-145.024
-148.519
-151.625
-154.258
-156.336
-157.773
-158.497
-158.497
-157.771
-156.303
-154.059
-150.982
-147.041
-142.289
-136.818
-130.695
-124
-116.788
-109.142
-101.303
-93.542
-86.139
-79.364
-73.388
-68.297
-64.222
-61.378
-59.812
-59.404
-59.788
-60.292
-60.359
-59.653
-57.929
-54.915
-50.633
-45.346
-39.438
-33.915
-29.813
-27.79
-28.279
-31.068
-34.685
-37.142
-36.712
-31.067
-17.803
5.283
40.609
89.16
149.12
217.357
290.739
365.557
438.015
503.609
556.143
590.386
604.204
597.041
568.866
520.046
450.728
362.782
261.314
151.992
38.994
-73.93
-183.242
-284.863
-373.464
-445.469
-500.493
-539.341
-562.938
-572.709
-570.178
-558.124
-541.131
-522.497
-503.574
-484.943
-466.543
-448.145
-429.795
-410.662
-388.846
-363.366
-334.121
-301.499
-266.605
-230.392
-193.479
-156.819
-121.624
-88.771
-58.941
-32.549
-9.557
10.078
26.408
39.605
49.851
57.392
62.52
65.541
66.777
66.511
64.965
62.381
59.026
55.195
51.275
47.608
44.404
41.826
39.963
38.877
38.643
39.27
40.694
42.806
45.477
48.614
52.183
56.125
60.347
64.719
69.05
73.192
77.079
80.663
83.927
86.866
89.471
91.771
93.848
95.79
97.677
99.568
101.497
103.507
105.665
108.047
110.745
113.825
117.317
121.247
125.627
130.46
135.743
141.45
147.529
153.929
160.607
167.522
174.635
181.903
189.269
196.676
204.065
211.381
218.571
225.58
232.353
238.837
244.982
250.744
256.084
260.962
265.337
269.169
272.422
275.061
277.058
278.386
279.019
278.94
278.136
276.598
274.326
271.319
267.586
263.136
257.985
252.153
245.663
238.544
230.827
222.546
213.741
204.452
194.723
184.599
174.127
163.356
152.335
141.114
129.745
118.276
106.758
95.241
83.773
72.403
61.175
50.134
39.322
28.779
18.541
8.644
-0.883
-10.009
-18.712
-26.97
-34.763
-42.079
-48.904
-55.232
-61.057
-66.379
-71.197
-75.518
-79.35
-82.702
-85.588
-88.024
-90.026
-91.614
-92.809
-93.635
-94.114
-94.272
-94.135
-93.73
-93.083
-92.223
-91.178
-89.973
-88.637
-87.196
-85.675
-84.099
-82.492
-80.876
-79.272
-77.701
-76.18
-74.726
-73.356
-72.082
-70.916
-69.866
-68.941
-68.145
-67.481
-66.951
-66.552
-66.285
-66.142
-66.12
-66.21
-66.403
-66.689
-67.057
-67.492
-67.981
-68.508
-69.056
-69.609
-70.15
-70.661
-71.125
-71.524
-71.84
-72.058
-72.159
-72.128
-71.946
-71.599
-71.07
-70.345
-69.409
-68.251
-66.86
-65.227
-63.345
-61.207
-58.812
-56.156
-53.239
-50.062
-46.627
-42.94
-39.006
-34.831
-30.427
-25.803
-20.976
-15.961
-10.775
-5.437
0.033
5.614
11.285
17.025
22.809
28.615
34.419
40.194
45.914
51.549
57.068
62.438
67.63
72.614
77.361
81.844
86.04
89.927
93.489
96.711
99.579
102.075
104.188
105.901
107.204
108.092
108.561
108.612
108.249
107.475
106.295
104.727
102.784
100.475
97.803
94.758
91.343
87.586
83.515
79.165
74.573
69.772
64.805
59.747
54.677
49.678
44.835
40.191
35.78
31.655
27.881
24.544
21.7
19.328
17.383
15.846
14.727
14.077
13.9
14.058
14.342
14.519
14.359
13.757
12.623
10.758
8.108
4.782
1.097
-2.29
-4.7
-5.792
-5.43
-3.548
-0.582
2.731
5.581
6.783
5.355
0.926
-6.476
-16.475
-27.449
-36.786
-41.9
-40.082
-29.179
-8.042
24.255
68.508
123.818
187.485
256.274
326.436
394.604
458.429
515.173
561.247
593.787
611.109
612.594
598.762
570.096
526.372
467.846
396.172
314.189
225.497
133.141
39.473
-52.714
-139.86
-217.76
-282.717
-333.098
-369.029
-390.76
-398.73
-394.122
-378.872
-356.458
-330.856
-304.394
-278.173
-253.022
-229.376
-207.491
-187.392
-167.996
-147.779
-126.173
-103.233
-79.373
-55.325
-31.582
-8.566
12.934
31.991
47.982
60.631
70.005
76.405
80.086
81.306
80.407
77.841
74.115
69.65
64.804
59.892
55.141
50.779
47.015
44.003
41.915
40.886
40.972
42.196
44.545
47.949
52.332
57.586
63.517
69.944
76.673
83.484
90.242
96.843
103.19
109.216
114.848
120.016
124.696
128.887
132.589
135.813
138.57
140.87
142.767
144.325
145.611
146.707
147.658
148.489
149.225
149.876
150.447
150.942
151.345
151.628
151.775
151.772
151.608
151.277
150.759
150.031
149.071
147.856
146.367
144.593
142.519
140.135
137.438
134.426
131.101
127.47
123.538
119.308
114.782
109.965
104.862
99.48
93.827
87.911
81.743
75.338
68.711
61.881
54.869
47.696
40.385
32.958
25.443
17.864
10.249
2.624
-4.983
-12.542
-20.026
-27.406
-34.652
-41.736
-48.631
-55.312
-61.752
-67.928
-73.817
-79.398
-84.652
-89.558
-94.099
-98.259
-102.024
-105.381
-108.318
-110.827
-112.9
-114.532
-115.723
-116.471
-116.779
-116.651
-116.095
-115.118
-113.731
-111.947
-109.781
-107.248
-104.367
-101.157
-97.64
-93.839
-89.777
-85.478
-80.968
-76.273
-71.42
-66.436
-61.347
-56.182
-50.967
-45.729
-40.498
-35.298
-30.156
-25.098
-20.149
-15.334
-10.675
-6.194
-1.912
2.15
5.975
9.545
12.846
15.863
18.584
21.001
23.103
24.886
26.343
27.473
28.274
28.749
28.898
28.728
28.243
27.453
26.369
25.001
23.363
21.47
19.339
16.987
14.432
11.695
8.796
5.756
2.597
-0.658
-3.984
-7.357
-10.752
-14.144
-17.508
-20.82
-24.053
-27.184
-30.189
-33.045
-35.73
-38.223
-40.501
-42.544
-44.333
-45.851
-47.078
-48.001
-48.606
-48.88
-48.817
-48.409
-47.652
-46.544
-45.084
-43.273
-41.115
-38.617
-35.785
-32.628
-29.157
-25.386
-21.334
-17.02
-12.467
-7.697
-2.735
2.393
7.658
13.032
18.487
23.994
29.521
35.035
40.502
45.884
51.143
56.241
61.137
65.791
70.162
74.217
77.922
81.251
84.175
86.673
88.726
90.315
91.426
92.044
92.151
91.736
90.793
89.319
87.321
84.804
81.77
78.233
74.217
69.739
64.814
59.447
53.625
47.354
40.66
33.569
26.12
18.351
10.3
2.041
-6.317
-14.666
-22.889
-30.92
-38.734
-46.284
-53.503
-60.315
-66.624
-72.406
-77.687
-82.46
-86.682
-90.293
-93.277
-95.767
-98.009
-100.265
-102.777
-105.645
-108.962
-112.97
-117.724
-123.126
-128.994
-134.729
-139.764
-143.914
-146.862
-148.262
-148.391
-147.657
-146.48
-145.953
-147.087
-150.292
-156.176
-165.345
-175.495
-183.436
-188.295
-187.418
-181.577
-174.247
-159.773
-132.222
-86.99
-16.412
74.13
170.936
264.372
341.238
394.611
429.707
448.918
455.807
454.196
439.172
406.833
356.835
290.983
215.13
133.294
43.133
-60.679
-179.258
-304.164
-416.226
-495.517
-532.402
-531.205
-508.265
-479.441
-452.671
-427.903
-398.96
-361.68
-316.498
-266.519
-216.695
-170.497
-129.05
-92.545
-60.87
-34.45
-13.704
1.438
11.62
18.141
21.891
23.201
22.712
21.363
19.786
18.339
16.719
13.88
9.332
3.199
-4.393
-13.315
-23.411
-34.547
-46.201
-57.386
-67.402
-75.891
-82.657
-87.719
-91.088
-92.719
-92.697
-91.257
-88.656
-85.153
-80.999
-76.366
-71.393
-66.212
-60.949
-55.734
-50.673
-45.82
-41.181
-36.738
-32.48
-28.402
-24.492
-20.717
-17.007
-13.274
-9.431
-5.394
-1.106
3.466
8.358
13.607
19.211
25.137
31.337
37.745
44.331
51.108
58.054
65.101
72.246
79.532
86.984
94.637
102.453
110.286
118.076
125.907
133.617
140.763
147.257
153.194
158.499
163.626
167.619
167.872
165.099
161.578
161.358
171.816
191.993
214.58
232.126
234.082
220.444
201.04
183.42
175.947
179.55
186.844
193.466
196.244
194.456
191.142
187.561
183.652
179.51
174.679
169.09
163.158
157.002
150.568
143.88
136.969
129.83
122.46
114.833
106.894
98.639
90.115
81.346
72.342
63.12
53.691
44.071
34.283
24.342
14.26
4.048
-6.281
-16.71
-27.224
-37.805
-48.437
-59.101
-69.777
-80.448
-91.09
-101.681
-112.198
-122.618
-132.913
-143.06
-153.03
-162.794
-172.325
-181.602
-190.601
-199.299
-207.674
-215.695
-223.333
-230.579
-237.4
-243.751
-249.599
-254.901
-259.625
-263.801
-267.443
-270.517
-273.064
-275.167
-276.85
-278.18
-279.2
-279.777
-279.8
-279.334
-278.19
-275.936
-272.608
-268.386
-263.125
-257.424
-250.824
-240.765
-227.784
-214.412
-204.396
-206.167
-221.694
-242.961
-259.893
-257.896
-229.285
-184.358
-138.462
-107.453
-102.941
-118.541
-139.8
-155.868
-157.824
-146.931
-131.899
-117.295
-106.222
-99.346
-93.618
-88.011
-82.79
-77.77
-73.403
-69.853
-66.7
-63.787
-61.14
-58.671
-56.327
-54.146
-52.144
-50.337
-48.781
-47.479
-46.385
-45.478
-44.746
-44.163
-43.712
-43.369
-43.105
-42.898
-42.734
-42.595
-42.464
-42.326
-42.164
-41.961
-41.703
-41.373
-40.964
-40.466
-39.872
-39.178
-38.375
-37.452
-36.418
-35.283
-34.04
-32.694
-31.239
-29.663
-28.006
-26.308
-24.571
-22.793
-21.015
-19.254
-17.565
-16.022
-14.559
-13.083
-11.62
-10.207
-8.709
-6.993
-5.157
-3.125
-1.045
0.397
2.568
6.648
10.839
15.072
14.885
5.239
-7.872
-21.084
-26.932
-15.731
3.165
22.63
35.477
30.983
17.902
4.217
-6.226
-6.207
-0.508
5.677
11.836
15.479
17.94
21.143
24.526
28.087
31.624
34.592
36.96
38.684
39.543
39.47
38.427
36.259
32.909
28.493
23.323
18.004
13.169
9.181
6.308
4.861
4.744
5.636
7.166
8.453
8.632
7.145
3.57
-2.034
-8.242
-12.824
-14.02
-9.903
1.761
23.22
56.725
103.969
162.573
226.635
293.616
361.975
431.819
506.499
579.433
637.979
672.186
671.348
636.13
577.716
505.123
428.142
351.281
272.232
190.335
104.876
17.474
-66.757
-143.884
-210.319
-263.975
-305.287
-334.086
-349.73
-352.452
-342.941
-322.839
-295.102
-262.459
-226.773
-190.277
-155.348
-123.487
-95.797
-72.941
-54.951
-41.802
-33.43
-28.885
-26.57
-25.56
-25.289
-25.279
-25.168
-24.257
-21.968
-18.585
-15.03
-11.856
-9.246
-7.157
-5.392
-4.151
-3.667
-3.735
-3.854
-3.586
-2.691
-1.18
0.766
3.113
5.863
8.911
12.111
15.254
18.166
20.814
23.199
25.291
27.147
28.863
30.468
32.058
33.71
35.309
36.782
38.24
39.483
40.024
39.906
39.349
38.199
37.17
35.714
30.804
23.043
15.375
12.13
23.196
50.783
85.332
115.177
123.21
100.569
59.678
18.098
-5.873
1.058
30.748
66.619
96.281
109.399
107.911
101.705
95.754
93.608
95.773
98.716
101.347
103.903
106.153
108.591
111.348
113.924
116.133
117.988
119.373
120.225
120.586
120.474
119.918
118.99
117.706
116.031
113.966
111.522
108.698
105.505
101.953
98.046
93.801
89.242
84.396
79.288
73.949
68.407
62.695
56.846
50.894
44.876
38.827
32.784
26.781
20.855
15.041
9.371
3.881
-1.399
-6.439
-11.21
-15.685
-19.841
-23.656
-27.108
-30.18
-32.857
-35.127
-36.978
-38.403
-39.398
-39.961
-40.094
-39.8
-39.087
-37.966
-36.45
-34.555
-32.299
-29.702
-26.788
-23.581
-20.107
-16.393
-12.47
-8.366
-4.113
0.257
4.715
9.226
13.76
18.284
22.769
27.183
31.496
35.68
39.706
43.548
47.179
50.577
53.718
56.581
59.149
61.404
63.332
64.922
66.164
67.051
67.579
67.746
67.552
67
66.095
64.844
63.255
61.34
59.11
56.58
53.765
50.682
47.349
43.786
40.012
36.048
31.916
27.639
23.24
18.742
14.168
9.544
4.892
0.238
-4.393
-8.979
-13.494
-17.916
-22.223
-26.393
-30.406
-34.244
-37.887
-41.322
-44.531
-47.502
-50.221
-52.675
-54.855
-56.749
-58.348
-59.645
-60.632
-61.303
-61.656
-61.686
-61.392
-60.774
-59.831
-58.566
-56.982
-55.083
-52.873
-50.359
-47.548
-44.45
-41.078
-37.444
-33.564
-29.454
-25.13
-20.61
-15.912
-11.054
-6.055
-0.935
4.288
9.591
14.951
20.342
25.737
31.106
36.419
41.647
46.762
51.732
56.532
61.138
65.529
69.685
73.587
77.213
80.542
83.552
86.222
88.536
90.479
92.037
93.201
93.961
94.311
94.257
93.802
92.942
91.669
89.959
87.801
85.207
82.192
78.776
74.987
70.853
66.415
61.757
56.967
52.135
47.351
42.652
38.064
33.646
29.461
25.591
22.096
18.949
16.1
13.539
11.271
9.324
7.675
6.131
4.44
2.355
-0.363
-3.795
-7.995
-13.155
-19.316
-26.365
-34.019
-41.612
-48.465
-54.275
-58.862
-62.076
-64.257
-65.783
-67.08
-69.195
-72.941
-78.714
-86.736
-96.541
-106.446
-114.283
-117.898
-114.753
-102.959
-80.932
-47.024
-0.737
56.57
122.01
192.192
263.479
332.812
397.046
452.076
494.119
520.705
531.028
525.111
503.159
464.939
410.678
342.62
264.046
178.298
88.714
-1.373
-88.486
-167.791
-236.095
-293.947
-340.055
-372.463
-388.09
-380.229
-351.753
-314.31
-279.422
-260.899
-260.554
-267.596
-273.335
-268.476
-250.847
-227.375
-202.149
-178.388
-157.341
-136.352
-114.67
-92.94
-71.795
-52.673
-36.338
-22.787
-12.173
-4.58
0.078
1.948
1.394
-1.177
-5.493
-10.948
-16.567
-21.888
-26.832
-31.19
-35.355
-38.166
-36.367
-30.604
-23.784
-20.669
-30.234
-51.857
-76.471
-95.186
-95.101
-75.333
-48.428
-23.957
-12.142
-15.354
-23.198
-28.794
-30.133
-26.531
-24.999
-31.229
-40.676
-50.531
-55.828
-50.335
-39.792
-28.758
-20.14
-18.975
-21.557
-24.106
-25.739
-24.136
-20.523
-16.576
-12.026
-7.102
-1.68
4.577
11.436
18.71
26.43
34.581
43.123
52.005
61.171
70.595
80.279
90.169
100.17
110.196
120.162
130.052
139.881
149.558
158.952
168.181
177.402
186.43
195.223
203.767
211.556
219.776
229.585
239.227
248.146
253.158
250.461
244.208
237.165
233.464
238.791
248.104
257.136
262.965
260.77
254.024
246.253
238.262
232.218
226.918
220.806
214.228
207.027
199.359
191.596
183.581
175.199
166.565
157.747
148.785
139.744
130.693
121.698
112.847
104.23
95.885
87.849
80.175
72.906
66.082
59.746
53.924
48.642
43.928
39.802
36.28
33.373
31.087
29.421
28.372
27.931
28.084
28.816
30.103
31.921
34.241
37.03
40.253
43.872
47.846
52.13
56.68
61.449
66.387
71.446
76.574
81.723
86.841
91.879
96.789
101.522
106.033
110.278
114.215
117.804
121.007
123.792
126.128
127.988
129.348
130.188
130.493
130.249
129.449
128.086
126.16
123.674
120.631
117.042
112.92
108.28
103.142
97.528
91.463
84.975
78.094
70.853
63.285
55.429
47.32
38.999
30.507
21.886
13.178
4.426
-4.329
-13.043
-21.676
-30.188
-38.539
-46.694
-54.617
-62.273
-69.632
-76.663
-83.338
-89.633
-95.523
-100.99
-106.015
-110.584
-114.687
-118.316
-121.467
-124.137
-126.326
-128.039
-129.283
-130.066
-130.401
-130.301
-129.785
-128.873
-127.589
-125.961
-124.017
-121.787
-119.304
-116.6
-113.71
-110.668
-107.508
-104.266
-100.977
-97.674
-94.396
-91.18
-88.065
-85.088
-82.286
-79.692
-77.34
-75.261
-73.479
-72.019
-70.895
-70.121
-69.71
-69.67
-70.013
-70.747
-71.879
-73.409
-75.334
-77.647
-80.338
-83.395
-86.803
-90.532
-94.555
-98.845
-103.385
-108.173
-113.198
-118.427
-123.822
-129.334
-134.91
-140.502
-146.049
-151.458
-156.624
-161.441
-165.809
-169.679
-173.023
-175.797
-177.939
-179.372
-180.029
-179.921
-179.11
-177.627
-175.498
-172.734
-169.354
-165.521
-161.499
-157.543
-153.909
-150.768
-148.132
-146.084
-144.818
-144.341
-144.544
-145.123
-145.357
-144.696
-143.08
-140.41
-136.586
-131.823
-126.077
-119.413
-112.833
-107.186
-102.622
-99.304
-96.644
-92.933
-87.045
-78.086
-64.066
-43.169
-13.933
25.545
75.522
133.796
198.257
266.81
336.309
403.767
465.499
516.066
551.272
569.671
570.335
552.794
517.262
463.507
392.756
309.338
218.078
122.469
25.838
-68.624
-157.441
-235.769
-299.578
-347.817
-381.022
-399.854
-405.389
-399.051
-383.103
-361.641
-338.969
-317.631
-298.881
-283.464
-271.711
-263.785
-259.417
-257.208
-255.389
-253.026
-249.864
-246.041
-241.932
-237.815
-233.936
-230.878
-229.357
-229.691
-231.866
-235.632
-240.559
-246.302
-252.605
-259.117
-265.415
-271.215
-276.338
-280.701
-284.335
-287.228
-289.334
-290.661
-291.251
-291.165
-290.479
-289.262
-287.559
-285.443
-282.998
-280.315
-277.494
-274.598
-271.649
-268.661
-265.63
-262.548
-259.407
-256.18
-252.823
-249.3
-245.583
-241.649
-237.481
-233.056
-228.345
-223.322
-217.967
-212.264
-206.207
-199.792
-193.016
-185.883
-178.401
-170.585
-162.45
-154.013
-145.288
-136.29
-127.036
-117.547
-107.844
-97.949
-87.886
-77.682
-67.366
-56.971
-46.528
-36.071
-25.634
-15.251
-4.957
5.213
15.224
25.043
34.638
43.976
53.026
61.759
70.147
78.166
85.791
93.002
99.779
106.104
111.963
117.344
122.238
126.637
130.536
133.932
136.825
139.218
141.117
142.528
143.46
143.925
143.938
143.516
142.677
141.443
139.835
137.879
135.601
133.027
130.186
127.107
123.819
120.352
116.736
113
109.175
105.288
101.369
97.444
93.54
89.682
85.896
82.202
78.623
75.179
71.887
68.765
65.828
63.089
60.562
58.256
56.182
54.347
52.757
51.417
50.33
49.498
48.922
48.598
48.526
48.699
49.113
49.759
50.63
51.716
53.006
54.489
56.154
57.986
59.973
62.102
64.358
66.727
69.195
71.747
74.371
77.051
79.775
82.529
85.3
88.074
90.841
93.586
96.298
98.965
101.575
104.116
106.577
108.946
111.214
113.368
115.401
117.302
119.065
120.681
122.145
123.451
124.594
125.57
126.377
127.011
127.471
127.757
127.866
127.801
127.561
127.149
126.567
125.816
124.901
123.824
122.588
121.199
119.66
117.976
116.152
114.196
112.115
109.917
107.612
105.21
102.722
100.161
97.539
94.867
92.158
89.423
86.674
83.921
81.176
78.45
75.754
73.097
70.489
67.941
65.462
63.061
60.746
58.521
56.394
54.37
52.453
50.646
48.955
47.38
45.927
44.595
43.385
42.297
41.327
40.472
39.722
39.069
38.498
37.994
37.545
37.134
36.744
36.363
35.977
35.575
35.149
34.691
34.192
33.642
33.026
32.326
31.528
30.616
29.578
28.408
27.095
25.634
24.03
22.288
20.412
18.398
16.225
13.871
11.333
8.612
5.721
2.698
-0.424
-3.603
-6.762
-9.83
-12.737
-15.412
-17.837
-20.01
-21.923
-23.565
-24.892
-25.852
-26.453
-26.734
-26.737
-26.538
-26.202
-25.81
-25.53
-25.531
-25.969
-27
-28.688
-31.066
-34.188
-38.067
-42.762
-48.383
-54.843
-61.924
-69.292
-76.301
-82.327
-86.916
-89.535
-89.74
-87.37
-82.222
-74.781
-66.66
-59.499
-54.707
-51.945
-48.787
-43.302
-35.311
-28.233
-26.737
-31.668
-38.175
-33.592
-3.402
61.548
161.725
283.581
405.248
503.369
559.969
571.67
547.252
503.342
454.298
404.63
351.854
288.557
211.103
122.417
26.946
-70.323
-166.078
-258.505
-344.832
-420.998
-483.664
-531.487
-563.802
-580.331
-581.373
-567.804
-541.988
-508.277
-471.073
-433.201
-396.68
-362.853
-332.449
-305.995
-283.282
-262.931
-243.27
-223.396
-203.009
-182.223
-161.443
-141.048
-121.5
-103.642
-88.475
-76.51
-67.796
-62.122
-59.05
-58.16
-59.062
-61.176
-63.809
-66.484
-68.895
-70.876
-72.407
-73.385
-73.656
-73.111
-71.63
-69.149
-65.688
-61.26
-55.894
-49.707
-42.852
-35.56
-28.145
-20.819
-13.703
-6.883
-0.374
5.795
11.575
16.952
21.921
26.476
30.626
34.37
37.7
40.653
43.287
45.694
48
50.299
52.645
55.081
57.626
60.292
63.095
66.029
69.071
72.212
75.443
78.763
82.177
85.68
89.251
92.869
96.5
100.115
103.689
107.194
110.605
113.899
117.056
120.06
122.901
125.567
128.042
130.311
132.353
134.152
135.695
136.965
137.948
138.634
139.014
139.08
138.831
138.265
137.382
136.184
134.674
132.857
130.741
128.334
125.645
122.686
119.471
116.013
112.329
108.436
104.354
100.102
95.7
91.168
86.527
81.796
76.994
72.139
67.251
62.346
57.442
52.555
47.7
42.892
38.146
33.473
28.885
24.39
19.996
15.711
11.539
7.486
3.554
-0.252
-3.931
-7.481
-10.9
-14.19
-17.349
-20.38
-23.284
-26.061
-28.716
-31.25
-33.665
-35.964
-38.149
-40.22
-42.18
-44.03
-45.77
-47.401
-48.922
-50.335
-51.637
-52.829
-53.908
-54.873
-55.721
-56.45
-57.058
-57.542
-57.898
-58.126
-58.223
-58.187
-58.018
-57.715
-57.279
-56.71
-56.01
-55.181
-54.227
-53.151
-51.957
-50.653
-49.243
-47.736
-46.14
-44.462
-42.714
-40.904
-39.042
-37.141
-35.21
-33.262
-31.308
-29.36
-27.431
-25.532
-23.676
-21.875
-20.14
-18.483
-16.913
-15.443
-14.08
-12.833
-11.711
-10.719
-9.863
-9.147
-8.573
-8.143
-7.856
-7.708
-7.697
-7.817
-8.062
-8.424
-8.894
-9.463
-10.12
-10.855
-11.655
-12.509
-13.403
-14.323
-15.257
-16.19
-17.109
-17.999
-18.848
-19.642
-20.369
-21.019
-21.581
-22.043
-22.394
-22.626
-22.729
-22.696
-22.522
-22.2
-21.729
-21.108
-20.344
-19.444
-18.417
-17.27
-16.015
-14.664
-13.228
-11.719
-10.145
-8.512
-6.831
-5.115
-3.379
-1.637
0.098
1.813
3.496
5.134
6.717
8.236
9.686
11.063
12.356
13.55
14.625
15.549
16.301
16.874
17.264
17.469
17.501
17.375
17.12
16.786
16.413
16.048
15.742
15.533
15.475
15.607
15.966
16.616
17.599
18.91
20.542
22.457
24.595
26.955
29.469
31.992
34.384
36.416
37.851
38.537
38.247
36.748
34.007
30.089
25.253
20.076
15.023
10.458
6.925
4.735
3.746
3.485
2.873
0.623
-3.969
-11.264
-21.661
-35.11
-50.679
-66.336
-78.789
-84.67
-81.616
-67.997
-42.372
-3.464
48.953
113.252
185.881
262.678
339.969
414.663
483.69
543.109
589.061
618.922
631.508
626.67
604.581
565.062
507.982
434.873
348.702
253.121
152.041
48.885
-52.883
-148.831
-233.938
-304.224
-357.605
-393.95
-414.078
-418.627
-409.076
-388.352
-360.318
-328.899
-296.516
-263.687
-231.037
-200.046
-171.4
-144.902
-119.846
-95.063
-70.595
-47.952
-27.641
-8.906
8.611
25.026
40.171
53.31
64.501
74.764
84.312
92.514
98.983
103.417
105.84
106.861
106.812
105.575
103.37
100.727
98.04
95.701
93.944
92.699
92.004
92.062
92.935
94.595
97.012
100.063
103.629
107.628
111.878
116.142
120.26
124.105
127.601
130.74
133.502
135.863
137.833
139.409
140.588
141.381
141.791
141.826
141.53
140.96
140.207
139.39
138.599
137.901
137.358
136.998
136.848
136.931
137.24
137.762
138.507
139.465
140.611
141.941
143.424
145.032
146.795
148.717
150.747
152.917
155.3
157.897
160.763
163.924
167.204
170.453
173.706
176.712
178.951
180.426
181.282
181.293
181.082
180.12
175.519
167.806
159.717
155.264
163.829
187.746
217.959
243.146
246.712
219.467
173.082
125.028
93.461
92.13
113.588
141.033
161.86
165.407
153.267
135.691
118.004
103.958
94.241
85.218
75.731
66.08
56.088
46.336
37.026
27.701
18.228
8.689
-0.969
-10.752
-20.566
-30.339
-39.995
-49.415
-58.541
-67.376
-75.889
-84.046
-91.824
-99.198
-106.15
-112.67
-118.745
-124.356
-129.492
-134.143
-138.307
-141.982
-145.171
-147.878
-150.111
-151.88
-153.198
-154.081
-154.547
-154.616
-154.313
-153.661
-152.688
-151.423
-149.896
-148.137
-146.18
-144.056
-141.799
-139.441
-137.014
-134.55
-132.078
-129.629
-127.231
-124.911
-122.693
-120.602
-118.657
-116.88
-115.286
-113.89
-112.704
-111.737
-110.996
-110.483
-110.202
-110.151
-110.326
-110.721
-111.329
-112.138
-113.137
-114.311
-115.642
-117.113
-118.702
-120.389
-122.152
-123.967
-125.811
-127.66
-129.491
-131.281
-133.007
-134.648
-136.179
-137.58
-138.83
-139.911
-140.802
-141.488
-141.953
-142.182
-142.167
-141.899
-141.37
-140.577
-139.516
-138.188
-136.593
-134.736
-132.621
-130.255
-127.647
-124.809
-121.756
-118.504
-115.072
-111.478
-107.744
-103.892
-99.942
-95.92
-91.845
-87.741
-83.63
-79.537
-75.488
-71.509
-67.627
-63.869
-60.266
-56.845
-53.632
-50.652
-47.924
-45.467
-43.296
-41.424
-39.862
-38.617
-37.692
-37.094
-36.83
-36.902
-37.309
-38.046
-39.103
-40.473
-42.151
-44.125
-46.374
-48.883
-51.636
-54.63
-57.873
-61.366
-65.093
-69.042
-73.186
-77.502
-81.97
-86.534
-91.109
-95.601
-99.908
-103.962
-107.744
-111.216
-114.326
-117.023
-119.236
-120.939
-122.157
-122.867
-123
-122.52
-121.424
-119.826
-117.993
-116.191
-114.637
-113.547
-113.125
-113.457
-114.516
-116.08
-117.681
-118.843
-119.253
-118.583
-116.503
-113.197
-109.263
-105.649
-103.782
-104.696
-108.725
-116.407
-128.341
-143.904
-161.482
-178.3
-190.317
-194.444
-188.851
-171.243
-139.227
-91.847
-29.659
44.272
124.613
206.758
287.063
361.22
424.282
471.503
499.225
506.595
494.891
465.344
418.769
356.25
280.429
195.655
106.486
16.16
-72.736
-157.561
-234.855
-300.234
-351.09
-387.139
-409.011
-417.576
-414.073
-400.026
-378.301
-353.346
-328.307
-304.692
-283.377
-264.586
-248.382
-234.84
-223.062
-211.146
-198.048
-183.592
-167.932
-151.726
-135.455
-119.329
-103.931
-90.117
-78.356
-68.789
-61.301
-55.463
-50.954
-47.61
-45.165
-43.315
-41.749
-40.155
-38.354
-36.297
-33.947
-31.267
-28.216
-24.76
-20.937
-16.833
-12.531
-8.113
-3.642
0.837
5.257
9.542
13.614
17.39
20.827
23.912
26.641
29.022
31.069
32.8
34.258
35.504
36.589
37.558
38.449
39.292
40.13
41.004
41.951
43.005
44.195
45.541
47.064
48.779
50.697
52.824
55.16
57.701
60.444
63.385
66.519
69.839
73.335
76.996
80.809
84.759
88.827
92.993
97.234
101.526
105.844
110.161
114.451
118.687
122.84
126.884
130.792
134.538
138.095
141.439
144.545
147.392
149.959
152.228
154.183
155.808
157.094
158.029
158.608
158.827
158.683
158.177
157.311
156.089
154.52
152.61
150.37
147.813
144.953
141.806
138.39
134.725
130.831
126.731
122.448
118.007
113.431
108.745
103.971
99.138
94.274
89.403
84.553
79.744
74.996
70.336
65.792
61.37
57.075
52.915
48.889
45.022
41.348
37.856
34.533
31.431
28.59
26.041
23.829
21.917
20.231
18.809
17.72
16.767
15.72
14.706
13.702
12.653
12.035
10.538
6.883
2.869
-0.972
-1.336
5.746
15.866
26.066
31.955
27.515
18.029
7.998
0.52
0.662
4.758
9.158
13.071
14.273
14.109
14.225
14.228
14.374
14.624
14.456
13.877
13.201
12.364
11.318
10.562
8.829
4.876
0.475
-3.862
-4.912
1.24
10.319
19.461
24.411
19.311
9.36
-1.025
-8.816
-9.024
-5.205
-0.961
2.912
4.218
4.242
4.629
5.072
5.781
6.648
7.341
8.077
9.028
10.132
11.373
12.765
14.299
15.955
17.717
19.547
21.396
23.27
25.173
27.085
28.992
30.877
32.721
34.512
36.239
37.883
39.427
40.858
42.162
43.327
44.343
45.2
45.885
46.387
46.692
46.789
46.667
46.319
45.734
44.907
43.838
42.528
40.983
39.212
37.217
35.005
32.582
29.956
27.136
24.128
20.935
17.583
14.101
10.514
6.854
3.138
-0.637
-4.436
-8.229
-12.078
-16.027
-20.089
-24.294
-28.584
-32.852
-37.113
-41.404
-45.445
-48.926
-51.912
-54.319
-56.087
-57.726
-57.838
-55.056
-51.229
-46.891
-45.585
-51.563
-60.223
-68.507
-71.821
-63.923
-50.622
-36.895
-26.226
-24.215
-27.124
-31.182
-35.766
-38.575
-40.958
-44.564
-48.53
-52.522
-56.095
-58.434
-59.418
-59.417
-58.441
-56.609
-54.928
-54.471
-56.304
-61.883
-70.497
-78.834
-84.166
-85.072
-84.006
-86.354
-93.873
-101.522
-95.476
-60.188
14.207
127.41
262.344
394.979
501.153
562.014
576.515
555.688
516.208
473.156
430.467
384.396
328.19
258.813
179.441
94.708
9.041
-74.586
-154.77
-229.163
-294.181
-347.826
-389.626
-418.967
-435.642
-440.093
-433.105
-417.296
-396.987
-375.017
-352.817
-331.676
-312.16
-294.512
-278.964
-264.508
-249.157
-231.968
-212.806
-191.785
-169.546
-146.591
-123.245
-100.326
-78.897
-59.557
-42.578
-27.998
-15.608
-5.396
2.569
8.429
12.448
14.962
16.307
16.719
16.358
15.462
14.335
13.245
12.375
11.791
11.498
11.54
12.019
13.093
14.867
17.365
20.564
24.405
28.824
33.755
39.095
44.674
50.291
55.798
61.111
66.21
71.099
75.756
80.129
84.166
87.85
91.187
94.188
96.86
99.203
101.239
103.02
104.634
106.183
107.73
109.315
110.956
112.663
114.45
116.331
118.306
120.356
122.469
124.638
126.862
129.145
131.477
133.839
136.204
138.543
140.833
143.057
145.195
147.228
149.14
150.92
152.559
154.055
155.399
156.58
157.588
158.41
159.035
159.453
159.653
159.624
159.358
158.849
158.093
157.088
155.834
154.331
152.58
150.584
148.348
145.879
143.182
140.265
137.138
133.812
130.301
126.619
122.781
118.802
114.699
110.49
106.193
101.825
97.403
92.945
88.468
83.992
79.535
75.113
70.745
66.447
62.238
58.132
54.146
50.293
46.587
43.037
39.656
36.451
33.432
30.604
27.972
25.541
23.311
21.285
19.46
17.834
16.403
15.161
14.099
13.21
12.483
11.907
11.468
11.154
10.95
10.84
10.808
10.838
10.914
11.018
11.135
11.247
11.339
11.396
11.402
11.344
11.209
10.984
10.659
10.224
9.669
8.989
8.179
7.233
6.152
4.935
3.585
2.106
0.502
-1.216
-3.041
-4.961
-6.961
-9.027
-11.142
-13.288
-15.444
-17.591
-19.705
-21.764
-23.745
-25.627
-27.385
-28.998
-30.445
-31.703
-32.753
-33.576
-34.153
-34.467
-34.5
-34.239
-33.67
-32.782
-31.567
-30.019
-28.133
-25.909
-23.347
-20.45
-17.226
-13.68
-9.824
-5.67
-1.233
3.47
8.42
13.596
18.975
24.53
30.234
36.058
41.973
47.95
53.961
59.976
65.966
71.9
77.749
83.488
89.087
94.517
99.747
104.747
109.486
113.941
118.086
121.9
125.362
128.457
131.176
133.514
135.47
137.038
138.215
138.998
139.383
139.373
138.972
138.185
137.025
135.5
133.627
131.43
128.931
126.152
123.105
119.785
116.192
112.341
108.253
103.965
99.52
94.964
90.353
85.761
81.264
76.946
72.883
69.127
65.712
62.649
59.968
57.732
55.982
54.738
53.971
53.592
53.523
53.706
54.059
54.485
54.825
54.822
54.242
52.876
50.567
47.335
43.123
37.735
31.2
23.685
15.585
7.762
0.904
-4.858
-9.343
-12.393
-14.204
-14.713
-14.26
-14.225
-15.748
-19.185
-24.456
-30.503
-35.435
-37.992
-36.656
-28.822
-12.014
15.806
55.828
107.123
166.904
232.546
301.162
369.055
432.365
486.534
526.987
550.996
558.033
547.972
521.028
477.713
418.526
345.784
263.549
175.719
85.195
-5.14
-92.372
-172.924
-242.237
-297.539
-338.358
-365.089
-378.441
-379.544
-369.768
-351.696
-329.393
-305.787
-282.326
-259.847
-238.572
-218.567
-199.997
-182.215
-163.702
-143.754
-122.398
-99.972
-77.34
-55.279
-34.332
-15.382
0.448
12.497
20.452
24.274
24.29
20.76
13.915
4.158
-8.016
-22.081
-37.532
-53.978
-71.079
-88.425
-105.62
-122.276
-138.016
-152.615
-165.91
-177.756
-188.078
-196.825
-203.991
-209.655
-213.936
-216.951
-218.836
-219.713
-219.713
-219.026
-217.8
-216.152
-214.193
-211.966
-209.497
-206.824
-203.945
-200.833
-197.462
-193.781
-189.732
-185.283
-180.388
-174.999
-169.078
-162.562
-155.418
-147.642
-139.233
-130.219
-120.653
-110.565
-99.989
-88.987
-77.611
-65.936
-54.08
-42.12
-30.096
-18.124
-6.381
4.979
15.793
25.974
35.561
44.513
52.642
60.007
66.984
73.618
79.734
85.343
89.942
94.347
101.217
109.971
118.117
121.598
112.765
92.04
67.127
45.689
38.609
46.68
59.662
69.653
68.139
53.627
33.861
13.641
-3.751
-17.242
-29.883
-43.027
-56.483
-70.278
-83.857
-97.016
-110.094
-123.139
-135.999
-148.608
-160.913
-172.825
-184.262
-195.121
-205.274
-214.647
-223.23
-230.992
-237.899
-243.925
-249.048
-253.258
-256.558
-258.953
-260.446
-261.048
-260.78
-259.669
-257.748
-255.057
-251.639
-247.544
-242.827
-237.544
-231.758
-225.534
-218.94
-212.044
-204.918
-197.633
-190.261
-182.875
-175.544
-168.338
-161.325
-154.569
-148.132
-142.073
-136.445
-131.299
-126.681
-122.632
-119.187
-116.38
-114.235
-112.773
-112.01
-111.954
-112.612
-113.979
-116.051
-118.813
-122.247
-126.331
-131.035
-136.327
-142.169
-148.52
-155.331
-162.556
-170.14
-178.031
-186.17
-194.498
-202.958
-211.488
-220.029
-228.521
-236.906
-245.125
-253.121
-260.841
-268.231
-275.242
-281.825
-287.936
-293.534
-298.581
-303.045
-306.895
-310.107
-312.658
-314.533
-315.717
-316.205
-315.99
-315.074
-313.461
-311.16
-308.187
-304.56
-300.304
-295.445
-290.013
-284.043
-277.571
-270.637
-263.282
-255.549
-247.481
-239.126
-230.529
-221.74
-212.81
-203.789
-194.731
-185.688
-176.71
-167.846
-159.142
-150.641
-142.383
-134.403
-126.731
-119.394
-112.418
-105.832
-99.665
-93.94
-88.674
-83.877
-79.556
-75.713
-72.351
-69.463
-67.025
-65.021
-63.432
-62.252
-61.49
-61.142
-61.18
-61.57
-62.263
-63.212
-64.38
-65.706
-67.104
-68.487
-69.757
-70.851
-71.753
-72.436
-72.858
-72.958
-72.636
-71.838
-70.589
-68.921
-66.849
-64.391
-61.522
-58.272
-54.792
-51.258
-47.869
-44.79
-42.094
-39.825
-38.085
-37.054
-36.787
-37.123
-37.618
-37.606
-36.518
-34.039
-30.017
-24.25
-16.9
-8.461
0.371
8.273
13.967
16.691
16.099
12.491
7.46
3.211
1.785
5.846
17.843
39.889
74.009
120.885
178.95
245.056
315.838
387.595
456.953
520.262
572.809
610.26
629.845
631.032
614.275
580.027
528.346
459.46
375.388
280.031
177.953
72.48
-33.676
-137.215
-233.949
-318.524
-386.475
-436.189
-468.01
-482.508
-480.614
-464.006
-435.413
-399.533
-361.356
-323.919
-288.842
-257.096
-229.04
-204.889
-184.405
-166.042
-147.976
-129.304
-109.49
-88.489
-67.051
-45.561
-24.303
-4.765
13.355
31.064
46.205
58.261
64.468
59.606
47.593
33.939
24.549
29.63
47.623
69.476
89.008
96.472
89.975
78.751
68.107
63.536
68.702
78.244
88.897
99.541
107.926
115.497
123.41
130.964
138.298
145.217
151.317
156.795
161.842
166.431
170.636
174.528
178.063
181.19
183.894
186.165
188.027
189.575
190.918
192.135
193.309
194.507
195.77
197.129
198.603
200.186
201.861
203.627
205.492
207.466
209.567
211.801
214.166
216.656
219.261
221.964
224.747
227.588
230.47
233.377
236.297
239.219
242.136
245.04
247.921
250.767
253.561
256.288
258.929
261.468
263.885
266.163
268.286
270.236
272.001
273.567
274.923
276.057
276.957
277.615
278.019
278.163
278.036
277.632
276.943
275.965
274.69
273.115
271.238
269.057
266.57
263.778
260.68
257.277
253.571
249.564
245.258
240.657
235.766
230.59
225.137
219.415
213.433
207.202
200.732
194.037
187.127
180.018
172.721
165.253
157.63
149.87
141.989
134.01
125.952
117.838
109.691
101.537
93.4
85.307
77.287
69.366
61.573
53.938
46.49
39.257
32.27
25.557
19.145
13.063
7.337
1.993
-2.947
-7.457
-11.518
-15.11
-18.216
-20.819
-22.906
-24.466
-25.491
-25.976
-25.916
-25.311
-24.164
-22.481
-20.27
-17.543
-14.311
-10.593
-6.414
-1.804
3.205
8.581
14.296
20.317
26.595
33.094
39.792
46.681
53.753
60.976
68.282
75.608
82.931
90.2
97.304
104.089
110.405
116.179
121.446
126.247
130.501
134.255
137.856
141.574
145.464
149.437
153.04
157.107
163.921
174.265
186.768
195.665
192.634
174.622
145.762
118.048
105.352
113.066
136.394
162.088
177.176
176.816
164.02
147.248
133.288
124.103
118.68
114.25
109.358
104.207
99.082
94.256
89.633
84.871
79.887
74.738
69.427
63.96
58.373
52.727
47.113
41.596
36.184
30.854
25.599
20.421
15.324
10.308
5.366
0.492
-4.309
-9.028
-13.659
-18.195
-22.636
-26.991
-31.273
-35.499
-39.688
-43.852
-47.999
-52.133
-56.248
-60.322
-64.313
-68.166
-71.83
-75.271
-78.469
-81.409
-84.077
-86.444
-88.487
-90.189
-91.52
-92.44
-92.913
-92.896
-92.352
-91.343
-90.001
-88.506
-87.083
-85.907
-85.079
-84.724
-85.01
-85.944
-87.364
-88.927
-90.07
-90.344
-89.524
-87.488
-84.165
-79.813
-74.964
-70.489
-67.786
-68.174
-72.568
-81.245
-93.716
-108.49
-123.406
-135.961
-142.978
-141.049
-127.003
-98.785
-56.066
-0.583
64.409
135.391
208.376
278.39
339.669
386.775
415.645
424.504
413.456
382.582
331.792
262.39
177.762
82.783
-17.272
-118.176
-216.649
-308.728
-389.304
-453.85
-500.066
-527.951
-539.022
-535.02
-517.785
-490.111
-456.308
-421.119
-387.9
-358.378
-333.131
-312.263
-295.699
-282.92
-272.501
-262.532
-251.83
-240.01
-227.197
-213.816
-200.238
-186.798
-174.108
-162.946
-153.686
-146.34
-140.691
-136.323
-132.897
-130.168
-127.789
-125.35
-122.581
-119.33
-115.541
-111.269
-106.525
-101.283
-95.57
-89.448
-82.995
-76.307
-69.463
-62.521
-55.567
-48.696
-42.009
-35.611
-29.565
-23.898
-18.621
-13.73
-9.214
-5.063
-1.246
2.284
5.567
8.638
11.528
14.263
16.877
19.412
21.909
24.404
26.928
29.505
32.158
34.908
37.771
40.758
43.876
47.13
50.523
54.062
57.754
61.6
65.602
69.757
74.063
78.514
83.102
87.813
92.632
97.542
102.523
107.555
112.617
117.683
122.73
127.732
132.663
137.498
142.208
146.767
151.147
155.32
159.26
162.94
166.335
169.421
172.175
174.575
176.602
178.238
179.468
180.277
180.652
180.585
180.068
179.095
177.662
175.77
173.42
170.618
167.372
163.693
159.595
155.094
150.208
144.958
139.367
133.458
127.258
120.793
114.092
107.184
100.1
92.871
85.529
78.105
70.631
63.139
55.659
48.221
40.854
33.588
26.448
19.461
12.653
6.048
-0.331
-6.462
-12.325
-17.902
-23.176
-28.133
-32.761
-37.049
-40.99
-44.579
-47.811
-50.685
-53.202
-55.364
-57.175
-58.642
-59.773
-60.576
-61.064
-61.248
-61.142
-60.76
-60.118
-59.231
-58.115
-56.787
-55.262
-53.557
-51.689
-49.674
-47.531
-45.277
-42.929
-40.505
-38.023
-35.501
-32.955
-30.401
-27.854
-25.328
-22.835
-20.388
-17.996
-15.67
-13.418
-11.246
-9.161
-7.167
-5.268
-3.465
-1.759
-0.147
1.371
2.799
4.142
5.404
6.59
7.706
8.758
9.751
10.691
11.586
12.442
13.27
14.076
14.871
15.664
16.467
17.29
18.143
19.035
19.973
20.964
22.014
23.129
24.312
25.568
26.897
28.301
29.78
31.332
32.955
34.642
36.387
38.181
40.011
41.864
43.723
45.57
47.389
49.164
50.878
52.518
54.067
55.514
56.849
58.062
59.138
60.059
60.801
61.341
61.663
61.75
61.59
61.171
60.481
59.518
58.292
56.808
55.07
53.067
50.768
48.156
45.234
42.016
38.528
34.798
30.858
26.762
22.596
18.446
14.384
10.447
6.622
2.917
-0.656
-4.058
-7.212
-10.094
-12.707
-15.049
-17.131
-18.96
-20.557
-22.016
-23.503
-25.18
-27.213
-29.695
-32.664
-36.189
-40.235
-44.814
-50.04
-55.771
-61.755
-67.664
-72.856
-76.769
-79.259
-80.057
-78.834
-75.763
-70.942
-64.905
-59.207
-55.101
-53.086
-53.294
-54.944
-56.527
-57.072
-55.056
-47.658
-32.21
-6.481
30.683
78.124
133.354
194.252
258.3
322.078
381.371
430.88
465.865
483.821
483.912
465.642
428.494
371.939
297.062
207.739
109.068
5.705
-98.577
-200.039
-294.299
-375.905
-439.922
-485.805
-515.064
-527.581
-524.651
-504.99
-467.657
-421.221
-373.076
-330.548
-301.062
-280.121
-263.511
-248.257
-229.103
-208.373
-188.008
-167.852
-149.791
-132.788
-115.86
-99.955
-85.501
-73.39
-64.683
-59.442
-57.413
-58.358
-61.746
-67.016
-73.588
-80.733
-87.865
-94.646
-100.882
-106.442
-111.188
-114.904
-117.369
-118.479
-118.195
-116.529
-113.532
-109.239
-103.777
-97.361
-90.291
-82.916
-75.481
-68.124
-60.933
-53.969
-47.3
-41.019
-35.191
-29.823
-24.921
-20.497
-16.559
-13.126
-10.172
-7.623
-5.368
-3.287
-1.296
0.654
2.596
4.554
6.55
8.599
10.702
12.838
15
17.193
19.427
21.717
24.067
26.467
28.903
31.358
33.822
36.281
38.726
41.143
43.523
45.86
48.152
50.4
52.599
54.741
56.813
58.803
60.698
62.482
64.14
65.654
67.009
68.19
69.184
69.979
70.562
70.922
71.048
70.93
70.556
69.919
69.008
67.817
66.34
64.572
62.51
60.154
57.505
54.566
51.344
47.844
44.076
40.05
35.778
31.274
26.552
21.632
16.531
11.271
5.874
0.365
-5.231
-10.888
-16.578
-22.275
-27.952
-33.582
-39.137
-44.593
-49.921
-55.098
-60.096
-64.894
-69.466
-73.792
-77.85
-81.622
-85.09
-88.239
-91.055
-93.528
-95.647
-97.401
-98.786
-99.805
-100.458
-100.749
-100.685
-100.267
-99.504
-98.418
-97.018
-95.294
-93.248
-90.882
-88.21
-85.282
-82.142
-78.784
-75.266
-71.707
-68.183
-64.767
-61.512
-58.358
-55.249
-52.284
-49.354
-46.035
-42.28
-38.303
-34.029
-29.818
-25.128
-17.665
-7.73
2.296
8.67
4.708
-10.723
-31.573
-49.015
-52.411
-37.502
-10.16
17.957
36.126
38.466
26.492
9.792
-4.39
-12.051
-11.258
-6.857
-2.212
1.803
3.505
4.287
5.364
6.321
7.449
8.648
9.591
10.518
11.627
12.906
14.421
16.22
18.271
20.556
23.071
25.785
28.659
31.7
34.906
38.256
41.741
45.346
49.047
52.822
56.652
60.507
64.358
68.178
71.938
75.614
79.183
82.627
85.924
89.054
91.996
94.725
97.215
99.444
101.393
103.044
104.385
105.402
106.089
106.453
106.499
106.228
105.638
104.702
103.406
101.752
99.748
97.416
94.794
91.913
88.821
85.599
82.321
79.061
75.887
72.816
69.86
67.041
64.402
62.016
59.947
58.202
56.757
55.587
54.666
53.978
53.467
53.02
52.506
51.807
50.826
49.495
47.748
45.543
42.786
39.297
34.985
29.889
24.342
19.014
14.544
11.408
10.061
10.992
14.692
21.325
29.879
38.349
44.717
48.506
51.421
55.222
59.417
58.776
46.473
20.943
-9.875
-26.886
-10.051
50.218
148.319
263.929
375.751
470.932
546.181
605.914
652.52
684.125
697.119
687.316
653.866
598.118
522.581
431.667
330.254
223.514
116.144
11.43
-87.363
-176.241
-251.701
-311.052
-353.288
-379.453
-390.748
-388.302
-374.355
-352.036
-324.974
-297.035
-270.638
-246.667
-225.863
-208.605
-194.566
-183.059
-172.768
-162.067
-150.297
-137.529
-123.939
-109.939
-95.939
-82.288
-69.643
-58.743
-49.867
-42.95
-37.748
-33.877
-31.081
-29.186
-27.872
-26.693
-25.271
-23.398
-20.951
-17.873
-14.114
-9.536
-4.143
1.801
8.029
14.433
20.718
26.42
31.487
35.893
39.57
43.454
46.752
46.488
43.389
39.564
40.669
58.247
92.25
132.266
162.826
161.284
123.791
67.741
16.451
-3.21
16.665
60.382
106.704
136.184
141.821
131.814
117.998
108.293
105.329
106.882
109.389
111.728
114.185
117.048
120.657
124.823
129.087
133.323
137.52
141.564
145.405
149.086
152.652
156.171
159.684
163.154
166.521
169.755
172.832
175.72
178.387
180.792
182.9
184.685
186.13
187.213
187.915
188.215
188.097
187.547
186.554
185.111
183.213
180.857
178.044
174.781
171.074
166.935
162.379
157.422
152.085
146.391
140.364
134.033
127.425
120.572
113.507
106.26
98.868
91.365
83.784
76.161
68.529
60.922
53.373
45.913
38.571
31.376
24.354
17.529
10.925
4.562
-1.543
-7.375
-12.919
-18.166
-23.109
-27.742
-32.066
-36.079
-39.787
-43.196
-46.313
-49.149
-51.717
-54.029
-56.102
-57.949
-59.59
-61.039
-62.317
-63.441
-64.429
-65.299
-66.07
-66.759
-67.382
-67.954
-68.489
-69.002
-69.502
-70.001
-70.508
-71.03
-71.574
-72.145
-72.746
-73.379
-74.045
-74.741
-75.466
-76.213
-76.978
-77.753
-78.53
-79.3
-80.053
-80.781
-81.475
-82.126
-82.725
-83.262
-83.731
-84.123
-84.432
-84.651
-84.774
-84.796
-84.716
-84.531
-84.242
-83.851
-83.361
-82.776
-82.104
-81.352
-80.526
-79.636
-78.691
-77.702
-76.68
-75.639
-74.592
-73.552
-72.536
-71.559
-70.637
-69.786
-69.021
-68.354
-67.8
-67.369
-67.076
-66.93
-66.942
-67.123
-67.481
-68.027
-68.773
-69.727
-70.894
-72.279
-73.885
-75.711
-77.755
-80.009
-82.46
-85.098
-87.914
-90.894
-94.028
-97.303
-100.709
-104.239
-107.881
-111.622
-115.444
-119.324
-123.235
-127.16
-131.081
-134.982
-138.863
-142.71
-146.506
-150.238
-153.884
-157.404
-160.75
-163.841
-166.586
-168.922
-170.785
-172.128
-172.92
-173.107
-172.662
-171.579
-169.835
-167.432
-164.382
-160.687
-156.392
-151.597
-146.424
-141.064
-135.737
-130.622
-125.891
-121.672
-118.095
-115.342
-113.542
-112.793
-113.138
-114.492
-116.815
-120.135
-124.284
-128.947
-133.568
-137.206
-139.195
-139.268
-137.139
-132.677
-125.807
-116.264
-104.61
-92.299
-80.205
-68.722
-57.658
-45.864
-32.592
-17.758
-0.18
22.252
51.327
88.793
134.828
187.5
245.038
305.91
367.709
427.536
481.609
524.872
553.532
565.797
560.341
536.621
494.311
432.367
351.716
256.124
149.604
37.696
-74.5
-185.033
-289.486
-384.997
-470.236
-539.246
-590.975
-621.471
-624.142
-602.619
-557.595
-497.711
-438.883
-386.629
-350.886
-333.03
-324.707
-323.635
-318.613
-303.216
-278.584
-242.177
-201.709
-163.278
-128.011
-100.292
-77.391
-56.602
-38.67
-22.069
-7.86
2.556
9.846
14.081
15.655
15.356
13.442
10.144
5.847
0.808
-4.737
-10.416
-15.899
-20.91
-25.144
-28.427
-30.681
-31.828
-31.851
-30.768
-28.622
-25.526
-21.623
-17.042
-11.915
-6.368
-0.532
5.399
11.273
16.982
22.417
27.538
32.319
36.729
40.774
44.494
47.924
51.122
54.152
57.057
59.89
62.717
65.598
68.62
71.844
75.306
79.034
83.037
87.315
91.867
96.675
101.699
106.907
112.264
117.733
123.287
128.889
134.495
140.06
145.535
150.875
156.039
160.985
165.674
170.068
174.129
177.826
181.13
184.013
186.444
188.393
189.831
190.732
191.074
190.837
190.002
188.556
186.492
183.804
180.494
176.567
172.031
166.897
161.181
154.905
148.091
140.766
132.962
124.712
116.054
107.026
97.673
88.037
78.165
68.104
57.901
47.605
37.267
26.935
16.66
6.491
-3.523
-13.334
-22.895
-32.162
-41.092
-49.646
-57.786
-65.479
-72.695
-79.407
-85.593
-91.234
-96.316
-100.829
-104.767
-108.127
-110.912
-113.129
-114.788
-115.903
-116.492
-116.577
-116.181
-115.334
-114.064
-112.405
-110.391
-108.061
-105.452
-102.605
-99.563
-96.369
-93.066
-89.697
-86.305
-82.933
-79.622
-76.411
-73.339
-70.442
-67.753
-65.303
-63.119
-61.227
-59.647
-58.398
-57.492
-56.938
-56.744
-56.909
-57.433
-58.311
-59.533
-61.086
-62.957
-65.128
-67.578
-70.282
-73.215
-76.348
-79.649
-83.085
-86.622
-90.223
-93.85
-97.467
-101.036
-104.521
-107.886
-111.096
-114.117
-116.916
-119.463
-121.732
-123.695
-125.33
-126.616
-127.54
-128.091
-128.262
-128.051
-127.459
-126.488
-125.148
-123.45
-121.409
-119.039
-116.361
-113.395
-110.167
-106.707
-103.047
-99.222
-95.27
-91.234
-87.157
-83.081
-79.05
-75.103
-71.28
-67.619
-64.155
-60.92
-57.949
-55.27
-52.916
-50.918
-49.303
-48.091
-47.298
-46.934
-47.004
-47.52
-48.476
-49.859
-51.664
-53.883
-56.52
-59.594
-63.1
-67.017
-71.323
-75.985
-80.971
-86.252
-91.761
-97.398
-103.069
-108.669
-114.133
-119.447
-124.556
-129.395
-133.885
-137.921
-141.474
-144.57
-147.191
-149.294
-150.82
-151.732
-152.142
-152.293
-152.434
-152.798
-153.499
-154.614
-156.348
-158.778
-161.834
-165.294
-168.546
-170.998
-172.377
-172.377
-170.798
-167.968
-164.307
-160.546
-158.058
-157.751
-160.254
-166.417
-176.182
-188.335
-200.994
-211.164
-215.467
-211.609
-197.249
-169.699
-127.622
-71.198
-2.574
73.888
153.609
232.944
307.793
373.222
424.443
457.441
470.63
464.55
439.989
397.281
336.973
261.217
174.093
80.383
-16.276
-112.827
-206.06
-291.956
-365.511
-423.464
-465.194
-491.335
-502.782
-500.904
-487.435
-465.409
-439.542
-413.201
-387.874
-364.307
-342.59
-322.663
-304.57
-287.405
-269.202
-248.934
-226.521
-202.302
-177.239
-152.066
-127.179
-103.371
-81.701
-62.895
-47.424
-35.421
-26.606
-20.748
-17.654
-17.018
-18.489
-21.612
-25.874
-30.84
-36.124
-41.435
-46.573
-51.32
-55.488
-58.909
-61.393
-62.819
-63.145
-62.336
-60.409
-57.41
-53.386
-48.485
-42.925
-36.927
-30.732
-24.507
-18.334
-12.297
-6.459
-0.871
4.398
9.319
13.908
18.168
22.106
25.737
29.069
32.153
35.08
37.944
40.848
43.865
47.033
50.381
53.932
57.699
61.69
65.896
70.292
74.86
79.592
84.48
89.52
94.695
99.974
105.328
110.723
116.131
121.525
126.88
132.169
137.37
142.463
147.433
152.266
156.946
161.451
165.757
169.843
173.684
177.26
180.549
183.529
186.182
188.49
190.443
192.028
193.237
194.062
194.498
194.54
194.187
193.439
192.297
190.764
188.846
186.551
183.886
180.864
177.498
173.802
169.791
165.482
160.893
156.043
150.95
145.636
140.122
134.431
128.587
122.615
116.539
110.385
104.179
97.945
91.71
85.495
79.325
73.221
67.204
61.293
55.508
49.867
44.387
39.084
33.971
29.063
24.371
19.908
15.681
11.699
7.97
4.498
1.29
-1.652
-4.324
-6.725
-8.855
-10.712
-12.3
-13.62
-14.677
-15.474
-16.018
-16.313
-16.367
-16.186
-15.775
-15.143
-14.296
-13.24
-11.984
-10.534
-8.897
-7.08
-5.09
-2.933
-0.615
1.86
4.485
7.256
10.167
13.215
16.396
19.703
23.134
26.683
30.345
34.115
37.989
41.963
46.031
50.19
54.434
58.759
63.16
67.631
72.165
76.755
81.391
86.064
90.767
95.489
100.218
104.944
109.654
114.337
118.979
123.567
128.083
132.51
136.828
141.019
145.066
148.947
152.643
156.135
159.404
162.434
165.207
167.705
169.908
171.799
173.359
174.57
175.415
175.875
175.934
175.581
174.806
173.602
171.967
169.9
167.401
164.479
161.141
157.392
153.242
148.702
143.785
138.511
132.902
126.979
120.766
114.29
107.583
100.687
93.635
86.455
79.166
71.783
64.331
56.849
49.373
41.93
34.557
27.307
20.264
13.555
7.28
1.509
-3.716
-8.373
-12.428
-15.823
-18.51
-20.477
-21.719
-22.24
-21.988
-20.865
-18.844
-15.996
-12.533
-8.779
-5.002
-1.355
2.034
4.996
7.495
9.61
11.599
13.982
17.218
21.512
26.89
33.31
40.353
47.363
53.738
58.709
61.663
62.375
60.833
57.207
52.666
49.301
49.17
54.27
66.236
86.238
115.455
155.168
205.221
263.408
326.786
392.28
457.031
518.445
573.51
618.043
648.345
663.02
661.977
645.525
614.154
568.157
508.103
436.778
358.383
276.005
192.084
109.053
29.196
-44.402
-107.873
-159.209
-198.48
-225.617
-240.75
-244.31
-236.511
-218.808
-194.118
-164.554
-131.194
-95.455
-58.598
-22.116
11.664
41.377
66.645
86.659
100.72
108.822
111.105
108.567
103.328
96.813
90.028
84.417
80.919
79.969
81.9
86.156
91.448
97.109
102.749
107.773
112.017
115.419
117.862
119.745
121.714
124.048
126.869
130.229
133.954
137.947
142.185
146.491
150.668
154.583
158.121
161.269
164.088
166.6
168.812
170.734
172.359
173.713
174.848
175.795
176.58
177.221
177.728
178.124
178.436
178.683
178.876
179.017
179.103
179.135
179.118
179.054
178.948
178.796
178.589
178.323
177.996
177.602
177.139
176.601
175.98
175.269
174.464
173.557
172.539
171.399
170.126
168.707
167.132
165.389
163.467
161.357
159.048
156.534
153.807
150.862
147.694
144.298
140.673
136.819
132.736
128.424
123.887
119.128
114.153
108.967
103.578
97.994
92.224
86.277
80.165
73.9
67.495
60.962
54.314
47.568
40.737
33.837
26.885
19.897
12.89
5.879
-1.117
-8.082
-15.001
-21.857
-28.636
-35.324
-41.906
-48.371
-54.705
-60.899
-66.942
-72.825
-78.54
-84.079
-89.438
-94.609
-99.591
-104.379
-108.972
-113.368
-117.569
-121.574
-125.385
-129.004
-132.434
-135.677
-138.736
-141.617
-144.324
-146.86
-149.232
-151.444
-153.504
-155.416
-157.188
-158.825
-160.333
-161.721
-162.993
-164.156
-165.217
-166.182
-167.056
-167.844
-168.553
-169.187
-169.75
-170.246
-170.677
-171.048
-171.358
-171.61
-171.804
-171.941
-172.019
-172.038
-171.998
-171.896
-171.73
-171.501
-171.205
-170.841
-170.407
-169.903
-169.325
-168.671
-167.94
-167.129
-166.237
-165.26
-164.196
-163.04
-161.791
-160.447
-159.005
-157.462
-155.818
-154.07
-152.219
-150.264
-148.206
-146.044
-143.781
-141.418
-138.959
-136.407
-133.767
-131.043
-128.242
-125.371
-122.437
-119.448
-116.412
-113.336
-110.227
-107.095
-103.948
-100.796
-97.648
-94.512
-91.4
-88.328
-85.313
-82.371
-79.518
-76.769
-74.141
-71.65
-69.31
-67.13
-65.115
-63.27
-61.603
-60.126
-58.85
-57.784
-56.936
-56.314
-55.925
-55.772
-55.858
-56.177
-56.714
-57.464
-58.423
-59.598
-61.014
-62.682
-64.604
-66.777
-69.179
-71.784
-74.559
-77.444
-80.364
-83.257
-86.054
-88.706
-91.184
-93.439
-95.439
-97.152
-98.504
-99.446
-99.95
-100.006
-99.669
-99.029
-98.158
-97.164
-96.169
-95.303
-94.77
-94.752
-95.412
-96.913
-99.295
-102.666
-107.255
-113.083
-119.998
-127.582
-134.988
-141.47
-146.606
-149.849
-150.747
-149.335
-145.838
-141.302
-137.598
-136.105
-137.856
-143.609
-152.987
-164.689
-176.771
-185.819
-187.784
-179.194
-156.488
-116.979
-60.156
12.923
99.365
194.27
292.366
387.835
473.585
543.016
591.067
614.186
611.197
582.495
528.573
451.964
357.68
251.461
139.538
27.743
-79.515
-177.731
-261.705
-328.453
-377.379
-409.121
-425.917
-430.266
-424.198
-410.954
-394.915
-379.059
-364.908
-353.043
-342.841
-333.715
-325.451
-317.019
-306.722
-293.615
-277.524
-258.913
-238.854
-218.217
-197.54
-177.522
-159.025
-142.618
-128.576
-116.89
-107.222
-99.25
-92.749
-87.465
-83.111
-79.416
-76.065
-72.722
-69.185
-65.321
-61.024
-56.253
-50.964
-45.12
-38.757
-31.971
-24.862
-17.533
-10.072
-2.538
4.982
12.382
19.546
26.346
32.701
38.568
43.921
48.753
53.064
56.864
60.192
63.115
65.687
67.955
69.96
71.731
73.311
74.752
76.102
77.404
78.697
80.014
81.386
82.845
84.415
86.113
87.955
89.947
92.1
94.425
96.931
99.626
102.513
105.593
108.864
112.322
115.958
119.759
123.707
127.783
131.965
136.228
140.547
144.892
149.235
153.545
157.791
161.941
165.964
169.825
173.492
176.935
180.121
183.022
185.607
187.851
189.726
191.211
192.284
192.927
193.125
192.864
192.134
190.93
189.247
187.086
184.45
181.344
177.779
173.768
169.328
164.479
159.242
153.642
147.706
141.464
134.947
128.188
121.219
114.076
106.795
99.413
91.966
84.492
77.028
69.609
62.272
55.052
47.981
41.092
34.414
27.975
21.799
15.911
10.329
5.073
0.155
-4.413
-8.622
-12.465
-15.938
-19.042
-21.778
-24.15
-26.166
-27.835
-29.167
-30.177
-30.88
-31.294
-31.439
-31.333
-30.996
-30.448
-29.714
-28.82
-27.794
-26.659
-25.444
-24.171
-22.866
-21.557
-20.265
-19.009
-17.804
-16.662
-15.6
-14.635
-13.782
-13.057
-12.46
-11.988
-11.643
-11.423
-11.326
-11.348
-11.475
-11.695
-12.018
-12.43
-12.903
-13.418
-13.942
-14.456
-14.976
-15.463
-15.869
-16.271
-16.816
-17.64
-18.828
-20.314
-21.92
-23.603
-25.451
-27.271
-28.441
-28.593
-27.852
-26.454
-25.246
-23.663
-19.097
-12.184
-5.54
-3.559
-13.629
-34.09
-57.256
-76.243
-80.989
-71.176
-51.48
-21.496
14.502
53.459
88.04
103.341
91.12
50.104
-6.016
-55.287
-82.619
-78.833
-52.288
-20.284
6.031
17.019
14.093
6.707
-0.803
-5.026
-5.575
-6.378
-8.496
-11.3
-14.687
-17.804
-20.397
-23.139
-26.256
-29.649
-33.377
-37.467
-41.872
-46.608
-51.624
-56.723
-61.757
-66.635
-71.253
-75.569
-79.586
-83.289
-86.652
-89.632
-92.16
-94.194
-95.772
-96.951
-97.753
-98.189
-98.247
-97.955
-97.501
-97.147
-97.144
-97.699
-98.88
-100.638
-103.027
-106.197
-110.136
-114.712
-119.466
-123.623
-126.831
-129.189
-130.78
-131.66
-131.848
-131.1
-129.735
-128.951
-129.244
-130.446
-132.122
-133.093
-132.219
-129.004
-122.393
-110.389
-91.84
-65.948
-32.249
8.146
53.842
103.547
155.164
206.024
254.037
296.794
331.465
356.076
368.781
368.402
354.683
327.539
286.505
231.409
163.62
85.698
0.968
-87.534
-176.935
-264.017
-344.61
-413.673
-467.914
-506.278
-528.891
-536.49
-530.373
-512.343
-485.632
-455.092
-424.429
-395.724
-370.295
-348.636
-330.856
-316.965
-306.002
-295.978
-285.583
-274.272
-261.854
-248.703
-235.2
-221.556
-208.336
-196.364
-186.055
-177.499
-170.577
-164.879
-160.058
-155.882
-151.988
-147.967
-143.558
-138.604
-133.052
-126.966
-120.365
-113.233
-105.605
-97.552
-89.157
-80.522
-71.727
-62.838
-53.943
-45.147
-36.558
-28.29
-20.412
-12.952
-5.928
0.662
6.824
12.569
17.925
22.942
27.659
32.113
36.335
40.353
44.201
47.924
51.563
55.156
58.735
62.326
65.952
69.635
73.392
77.235
81.171
85.203
89.334
93.57
97.912
102.361
106.912
111.56
116.294
121.103
125.972
130.879
135.802
140.715
145.59
150.398
155.109
159.69
164.11
168.334
172.33
176.065
179.506
182.619
185.372
187.735
189.678
191.174
192.197
192.724
192.732
192.205
191.128
189.488
187.276
184.488
181.12
177.176
172.66
167.583
161.958
155.801
149.133
141.98
134.37
126.336
117.911
109.135
100.046
90.687
81.101
71.333
61.428
51.434
41.397
31.364
21.381
11.496
1.753
-7.804
-17.132
-26.189
-34.938
-43.343
-51.369
-58.985
-66.164
-72.88
-79.113
-84.842
-90.053
-94.735
-98.879
-102.481
-105.541
-108.06
-110.046
-111.507
-112.458
-112.913
-112.89
-112.411
-111.497
-110.173
-108.465
-106.401
-104.008
-101.316
-98.355
-95.155
-91.746
-88.159
-84.423
-80.567
-76.62
-72.608
-68.556
-64.488
-60.426
-56.392
-52.404
-48.478
-44.629
-40.871
-37.213
-33.664
-30.229
-26.912
-23.712
-20.627
-17.653
-14.785
-12.013
-9.33
-6.723
-4.18
-1.69
0.762
3.189
5.607
8.031
10.477
12.959
15.494
18.096
20.78
23.561
26.451
29.46
32.597
35.872
39.292
42.863
46.589
50.473
54.515
58.717
63.075
67.586
72.242
77.031
81.939
86.953
92.054
97.225
102.443
107.686
112.931
118.156
123.338
128.451
133.468
138.361
143.102
147.662
152.012
156.122
159.958
163.488
166.69
169.541
172.022
174.112
175.792
177.04
177.854
178.233
178.153
177.599
176.558
175.017
172.995
170.526
167.599
164.207
160.409
156.256
151.803
147.113
142.168
136.913
131.389
125.674
119.614
113.014
106.015
98.641
90.894
83.304
74.748
64.107
53.166
42.509
35.341
35.503
38.876
42.704
42.857
33.675
20.271
7.04
-2.977
-4.941
-2.416
0.908
3.981
4.498
3.536
2.407
0.714
-1.259
-3.385
-5.397
-6.55
-6.543
-5.227
-2.344
1.783
6.536
10.848
12.956
11.669
6.548
-2.956
-17.231
-35.512
-56.112
-76.119
-91.511
-99.253
-97.187
-82.838
-53.788
-9.092
50.138
120.523
197.082
275.434
351.732
421.23
478.095
517.16
535.655
533.154
510.757
469.442
409.775
333.661
245.555
150.895
53.828
-42.575
-135.61
-222.153
-298.102
-359.906
-406.48
-438.469
-456.24
-461.342
-457.254
-447.149
-433.484
-414.859
-385.41
-342.11
-289.564
-240.212
-208.058
-199.603
-209.069
-220.948
-221.386
-204.518
-173.288
-137.287
-103.93
-75.952
-53.366
-34.13
-17.29
-3.36
7.42
15.005
19.638
21.885
22.173
20.838
18.293
14.897
10.87
6.404
1.748
-2.892
-7.282
-11.214
-14.601
-17.278
-19.06
-19.907
-19.858
-19.001
-17.48
-15.368
-12.635
-9.378
-5.845
-2.045
2.293
7.146
12.308
17.777
23.018
28.935
38.277
50.318
62.54
70.618
66.563
51.189
32.497
18.602
20.994
40.056
65.159
88.093
99.842
99.183
94.157
89.602
88.94
93.043
98.587
104.132
109.742
115.292
121.262
127.717
134.172
140.456
146.596
152.535
158.214
163.605
168.687
173.464
177.979
182.222
186.131
189.666
192.799
195.501
197.746
199.507
200.75
201.453
201.601
201.183
200.19
198.618
196.466
193.735
190.432
186.566
182.153
177.207
171.751
165.807
159.402
152.569
145.34
137.753
129.848
121.667
113.253
104.652
95.908
87.069
78.181
69.29
60.441
51.682
43.056
34.607
26.376
18.404
10.727
3.379
-3.609
-10.208
-16.395
-22.151
-27.462
-32.317
-36.704
-40.612
-44.036
-46.977
-49.449
-51.463
-53.02
-54.14
-54.863
-55.249
-55.359
-55.236
-54.883
-54.315
-53.587
-52.73
-51.707
-50.438
-48.845
-46.926
-44.794
-42.566
-40.224
-37.875
-35.942
-34.771
-34.463
-34.968
-35.861
-37.99
-43.791
-54.183
-67.67
-78.302
-77.342
-61.335
-34.722
-9.99
-1.613
-15.541
-46.563
-80.721
-104.441
-112.331
-107.579
-99.07
-93.782
-93.822
-98.032
-103.386
-108.331
-112.998
-117.624
-122.448
-127.308
-131.786
-135.748
-139.207
-142.119
-144.448
-146.193
-147.382
-148.08
-148.33
-148.122
-147.418
-146.203
-144.479
-142.25
-139.521
-136.293
-132.573
-128.379
-123.74
-118.684
-113.243
-107.449
-101.339
-94.95
-88.324
-81.504
-74.533
-67.458
-60.326
-53.186
-46.087
-39.081
-32.219
-25.553
-19.137
-13.02
-7.249
-1.866
3.087
7.575
11.566
15.032
17.956
20.315
22.089
23.257
23.8
23.706
22.97
21.59
19.573
16.93
13.677
9.843
5.465
0.577
-4.791
-10.618
-16.899
-23.611
-30.708
-38.141
-45.853
-53.776
-61.843
-69.963
-78.014
-85.902
-93.548
-100.896
-107.931
-114.629
-120.948
-126.833
-132.206
-137
-141.195
-144.78
-147.717
-150.007
-151.655
-152.712
-153.358
-153.751
-154.012
-154.246
-154.496
-154.745
-155.033
-155.461
-155.983
-156.457
-156.582
-155.849
-153.86
-150.388
-145.258
-138.251
-129.463
-119.314
-108.441
-98.054
-89.339
-83.103
-79.86
-79.557
-80.951
-82.115
-81.225
-75.828
-63.416
-41.84
-8.999
35.956
91.297
153.801
220.406
287.517
351.415
408.359
453.346
481.873
492.363
485.258
461.147
421.139
366.165
297.029
217.156
131.358
42.934
-45.799
-132.542
-215.326
-291.021
-355.318
-406.139
-443.294
-466.714
-477.01
-474.972
-461.184
-437.807
-408.522
-376.495
-344.279
-313.416
-284.488
-258.384
-235.937
-217.598
-202.058
-185.753
-167.594
-149.073
-134.306
-130.764
-137.719
-147.448
-151.745
-139.896
-112.547
-80.492
-51.782
-35.132
-31.514
-33.098
-35.461
-35.1
-30.52
-24.522
-18.199
-11.348
-4.24
3.564
12.226
21.224
30.297
39.371
48.261
56.856
65.132
73.032
80.509
87.534
94.037
99.939
105.208
109.84
113.838
117.215
119.998
122.225
123.932
125.158
125.94
126.304
126.286
125.92
125.24
124.283
123.09
121.694
120.13
118.428
116.612
114.707
112.734
110.71
108.655
106.589
104.53
102.498
100.51
98.581
96.725
94.954
93.276
91.696
90.215
88.832
87.547
86.353
85.245
84.212
83.245
82.332
81.46
80.614
79.778
78.936
78.07
77.163
76.198
75.156
74.018
72.767
71.385
69.854
68.159
66.285
64.219
61.947
59.461
56.752
53.816
50.647
47.245
43.611
39.748
35.663
31.364
26.864
22.178
17.321
12.314
7.178
1.937
-3.384
-8.758
-14.158
-19.555
-24.918
-30.217
-35.423
-40.503
-45.429
-50.169
-54.693
-58.973
-62.981
-66.691
-70.079
-73.121
-75.8
-78.096
-79.996
-81.487
-82.563
-83.216
-83.446
-83.252
-82.641
-81.619
-80.198
-78.392
-76.22
-73.703
-70.865
-67.733
-64.336
-60.706
-56.874
-52.877
-48.749
-44.526
-40.248
-35.95
-31.67
-27.447
-23.317
-19.317
-15.483
-11.849
-8.446
-5.305
-2.454
0.084
2.286
4.133
5.611
6.707
7.412
7.722
7.636
7.155
6.285
5.037
3.422
1.459
-0.833
-3.431
-6.308
-9.438
-12.791
-16.335
-20.037
-23.864
-27.78
-31.75
-35.738
-39.708
-43.623
-47.446
-51.14
-54.671
-58.007
-61.114
-63.963
-66.528
-68.783
-70.706
-72.28
-73.486
-74.312
-74.746
-74.781
-74.412
-73.638
-72.462
-70.887
-68.923
-66.582
-63.878
-60.828
-57.453
-53.772
-49.808
-45.584
-41.126
-36.461
-31.617
-26.622
-21.506
-16.304
-11.049
-5.779
-0.531
4.663
9.766
14.746
19.571
24.214
28.652
32.866
36.838
40.55
43.983
47.12
49.942
52.435
54.586
56.386
57.832
58.918
59.645
60.023
60.058
59.754
59.111
58.111
56.744
55.013
52.933
50.527
47.836
44.902
41.78
38.542
35.264
32.014
28.865
25.861
23.032
20.402
18.003
15.898
14.137
12.736
11.662
10.837
10.183
9.623
9.071
8.404
7.448
5.998
3.865
0.918
-2.935
-7.714
-13.479
-20.414
-28.494
-37.467
-46.951
-56.351
-65.111
-72.912
-79.408
-84.075
-86.891
-88.254
-88.469
-88.166
-88.27
-89.545
-92.394
-97.152
-101.67
-101.554
-95.808
-84.583
-69.59
-56.088
-41.242
-16.754
23.452
87.312
172.686
266.478
357.152
431.482
482.203
511.754
521.876
514.647
489.983
443.965
376.038
289.366
189.033
81.49
-27.547
-133.929
-232.751
-317.64
-385.746
-436.498
-468.481
-483.343
-480.414
-458.307
-425.067
-388.655
-357.118
-338.533
-328.869
-323.5
-318.943
-309.87
-298.503
-286.278
-272.748
-259.743
-246.066
-230.844
-215.035
-198.772
-182.914
-168.765
-156.655
-146.619
-138.637
-132.295
-127.247
-123.309
-120.191
-117.574
-115.169
-112.65
-109.797
-106.524
-102.772
-98.506
-93.69
-88.273
-82.274
-75.778
-68.875
-61.657
-54.2
-46.554
-38.8
-31.03
-23.351
-15.878
-8.687
-1.816
4.705
10.863
16.651
22.063
27.122
31.875
36.36
40.609
44.646
48.486
52.155
55.688
59.116
62.47
65.773
69.043
72.298
75.559
78.837
82.143
85.483
88.857
92.27
95.729
99.239
102.806
106.432
110.12
113.87
117.682
121.553
125.476
129.443
133.443
137.467
141.501
145.532
149.548
153.531
157.467
161.341
165.135
168.834
172.42
175.876
179.184
182.329
185.293
188.062
190.618
192.947
195.037
196.873
198.445
199.743
200.757
201.481
201.91
202.041
201.87
201.397
200.625
199.557
198.2
196.564
194.657
192.493
190.085
187.449
184.601
181.558
178.334
174.944
171.406
167.74
163.969
160.115
156.198
152.237
148.254
144.269
140.302
136.367
132.477
128.637
124.858
121.154
117.543
114.043
110.662
107.397
104.24
101.182
98.218
95.339
92.535
89.789
87.088
84.426
81.81
79.252
76.753
74.305
71.877
69.431
66.954
64.467
62.026
59.692
57.49
55.386
53.337
51.335
49.384
47.507
45.646
43.615
41.377
39.149
37.35
36.396
36.426
37.161
38.218
39.546
40.963
41.844
41.118
37.623
30.77
20.857
9.072
-3.602
-16.596
-28.688
-39.3
-49.295
-57.358
-61.672
-59.997
-46.031
-20.617
7.861
30.912
36.315
21.954
-1.456
-24.632
-37.992
-39.004
-35.088
-30.886
-28.975
-30.056
-31.109
-31.129
-30.754
-30.112
-29.677
-29.482
-29.12
-28.547
-27.85
-26.956
-25.757
-24.222
-22.399
-20.41
-18.395
-16.406
-14.414
-12.395
-10.349
-8.285
-6.216
-4.147
-2.075
0.004
2.083
4.161
6.229
8.284
10.321
12.338
14.334
16.303
18.233
20.105
21.907
23.628
25.263
26.815
28.28
29.653
30.93
32.102
33.159
34.095
34.903
35.579
36.122
36.528
36.794
36.933
36.949
36.846
36.621
36.247
35.705
34.994
34.12
33.103
31.979
30.771
29.511
28.264
27.085
26.042
25.206
24.591
24.197
24.044
24.153
24.584
25.392
26.568
28.057
29.802
31.739
33.826
36.015
38.186
40.184
41.818
42.893
43.289
42.929
41.797
39.848
36.94
33.099
28.58
23.808
19.484
16.227
14.177
13.486
14.424
16.775
20.377
24.957
29.223
32.094
33.435
33.114
31.705
30.974
31.97
35.638
44.303
59.821
83.473
116.897
159.915
210.365
266.663
326.93
388.199
448.041
503.081
548.4
580.433
597.188
596.893
578.71
542.139
486.085
411.579
322.479
223.332
118.919
13.792
-88.128
-182.273
-262.963
-325.976
-369.822
-394.86
-402.848
-395.861
-375.974
-346.278
-311.269
-275.303
-241.218
-210.478
-183.484
-160.268
-140.829
-124.675
-110.47
-96.589
-82.091
-66.791
-50.988
-35.227
-20.018
-5.806
6.756
16.839
24.031
28.42
30.331
30.329
29.032
26.848
24.128
21.353
18.866
16.631
14.553
12.84
11.491
10.469
10.516
10.591
9.295
8.484
8.703
12.795
25.93
44.557
63.684
78.039
78.05
65.314
48.705
34.311
31.722
42.917
58.893
74.374
83.897
83.965
80.074
75.567
71.579
70.458
70.76
71.01
71.91
73.131
73.856
75.683
79.783
84.084
88.609
88.974
78.275
61.779
45.02
36.873
51.568
82.785
117.897
145.569
149.037
131.874
108.622
88.42
82.718
91.253
104.167
116.929
125.802
130.038
133.287
136.678
139.91
143.102
145.72
147.614
149.204
150.59
151.676
152.478
153.029
153.271
153.146
152.599
151.532
149.91
147.759
145.076
141.845
138.067
133.742
128.876
123.487
117.589
111.191
104.308
96.961
89.172
80.968
72.377
63.43
54.159
44.599
34.787
24.763
14.566
4.238
-6.179
-16.644
-27.114
-37.546
-47.899
-58.132
-68.205
-78.076
-87.708
-97.064
-106.107
-114.803
-123.121
-131.031
-138.506
-145.52
-152.053
-158.084
-163.597
-168.578
-173.016
-176.904
-180.236
-183.01
-185.226
-186.89
-188.006
-188.584
-188.636
-188.177
-187.224
-185.795
-183.913
-181.6
-178.883
-175.788
-172.344
-168.582
-164.534
-160.232
-155.71
-151.004
-146.15
-141.184
-136.144
-131.065
-125.984
-120.939
-115.965
-111.097
-106.369
-101.814
-97.464
-93.349
-89.498
-85.938
-82.694
-79.787
-77.24
-75.069
-73.291
-71.917
-70.959
-70.423
-70.316
-70.64
-71.394
-72.577
-74.183
-76.202
-78.626
-81.438
-84.622
-88.158
-92.023
-96.19
-100.632
-105.321
-110.224
-115.307
-120.537
-125.878
-131.294
-136.747
-142.199
-147.613
-152.95
-158.172
-163.242
-168.124
-172.782
-177.185
-181.299
-185.097
-188.551
-191.636
-194.329
-196.609
-198.457
-199.856
-200.794
-201.263
-201.256
-200.77
-199.807
-198.375
-196.486
-194.156
-191.403
-188.245
-184.707
-180.814
-176.589
-172.06
-167.25
-162.187
-156.902
-151.425
-145.79
-140.034
-134.197
-128.319
-122.44
-116.595
-110.818
-105.139
-99.585
-94.183
-88.959
-83.943
-79.173
-74.68
-70.49
-66.621
-63.08
-59.858
-56.926
-54.238
-51.733
-49.353
-47.047
-44.762
-42.454
-40.087
-37.646
-35.116
-32.47
-29.69
-26.765
-23.698
-20.532
-17.331
-14.183
-11.225
-8.616
-6.51
-5.051
-4.36
-4.559
-5.768
-8.062
-11.463
-15.939
-21.375
-27.706
-34.93
-42.873
-51.135
-59.083
-65.972
-71.287
-74.904
-76.73
-76.302
-73.186
-67.476
-60.033
-52.205
-44.897
-37.837
-30.001
-20.981
-10.838
0.876
15.677
36.241
65.088
102.679
147.536
198.175
253.564
312.428
372.231
428.239
474.721
507.533
524.584
524.602
506.232
467.881
409.479
333.89
246.063
151.066
53.296
-43.107
-133.61
-212.795
-276.249
-323.678
-356.437
-374.227
-378.652
-368.88
-344.348
-314.005
-283.135
-255.226
-237.34
-226.562
-221.95
-227.526
-237.072
-244.776
-245.767
-230.115
-199.127
-162.324
-126.512
-100.666
-87.092
-79.381
-73.755
-67.193
-58.42
-50.192
-43.719
-38.721
-35.129
-32.246
-29.667
-27.501
-25.608
-23.734
-21.738
-19.508
-16.943
-13.952
-10.49
-6.589
-2.331
2.168
6.848
11.719
16.764
21.901
27.024
31.99
36.656
40.938
44.735
47.907
50.398
52.215
53.455
54.341
55.054
55.706
56.382
57.113
57.957
59.032
60.434
62.243
64.558
67.462
71.098
75.688
81.336
88.051
95.742
104.188
113.223
122.754
132.683
142.935
153.42
164.016
174.64
185.252
195.768
206.088
216.053
225.424
234.057
241.886
248.909
255.212
260.842
265.793
270.081
273.719
276.712
279.071
280.77
281.739
281.946
281.387
280.091
278.13
275.535
272.303
268.415
263.823
258.506
252.453
245.646
238.083
229.78
220.76
211.079
200.797
189.949
178.603
166.825
154.607
141.962
128.925
115.515
101.829
88.004
74.063
60.004
46.081
32.577
19.421
6.679
-5.563
-17.725
-28.505
-36.639
-43.831
-50.571
-60.029
-76.005
-94.223
-111.828
-124.586
-126.693
-123.257
-118.608
-115.716
-119.495
-126.439
-132.997
-138.391
-140.468
-140.509
-140.158
-139.132
-137.67
-135.696
-132.916
-129.584
-125.912
-121.884
-117.533
-112.922
-108.093
-103.078
-97.917
-92.626
-87.211
-81.735
-76.255
-70.811
-65.448
-60.206
-55.125
-50.247
-45.614
-41.257
-37.206
-33.49
-30.133
-27.159
-24.587
-22.433
-20.71
-19.428
-18.592
-18.206
-18.269
-18.777
-19.722
-21.094
-22.878
-25.058
-27.612
-30.519
-33.751
-37.281
-41.079
-45.113
-49.347
-53.748
-58.278
-62.901
-67.577
-72.269
-76.937
-81.544
-86.052
-90.424
-94.623
-98.614
-102.365
-105.844
-109.022
-111.873
-114.371
-116.498
-118.234
-119.565
-120.479
-120.969
-121.029
-120.659
-119.862
-118.642
-117.011
-114.979
-112.565
-109.79
-106.675
-103.248
-99.537
-95.572
-91.385
-87.009
-82.478
-77.828
-73.094
-68.315
-63.526
-58.768
-54.081
-49.505
-45.081
-40.849
-36.845
-33.105
-29.661
-26.54
-23.768
-21.363
-19.342
-17.718
-16.497
-15.684
-15.283
-15.29
-15.701
-16.503
-17.681
-19.219
-21.1
-23.307
-25.814
-28.598
-31.636
-34.912
-38.418
-42.142
-46.063
-50.157
-54.393
-58.736
-63.144
-67.56
-71.902
-76.074
-79.972
-83.497
-86.577
-89.147
-91.146
-92.51
-93.166
-93.064
-92.196
-90.552
-88.105
-84.856
-80.846
-76.19
-71.121
-65.917
-60.824
-56.146
-52.235
-49.244
-47.164
-45.827
-44.817
-43.753
-42.468
-40.578
-37.564
-33.538
-29.044
-25.094
-23.304
-24.667
-29.364
-37.893
-50.86
-67.716
-86.964
-105.661
-119.357
-124.732
-119.775
-102.059
-69.053
-19.356
47.001
127.185
215.702
307.596
398.75
484.262
558.496
615.829
651.602
664.119
654.477
624.155
574.455
507.465
426.644
336.691
242.769
148.601
56.269
-32.411
-115.065
-189.142
-252.805
-305.41
-347.802
-380.635
-403.662
-416.696
-420.349
-416.143
-406.139
-391.84
-373.063
-349.893
-323.542
-295.63
-268.016
-241.837
-217.144
-194.42
-175.592
-162.005
-153.937
-150.754
-150.544
-151.899
-154.467
-157.55
-159.728
-159.975
-157.704
-153.13
-147.665
-142.244
-137.044
-132.271
-128.113
-124.692
-122.176
-120.341
-118.441
-116.005
-112.873
-108.998
-104.542
-99.619
-94.241
-88.514
-82.625
-76.713
-70.891
-65.23
-59.727
-54.389
-49.231
-44.262
-39.499
-34.942
-30.57
-26.347
-22.222
-18.156
-14.121
-10.091
-6.045
-1.96
2.188
6.413
10.727
15.148
19.668
24.289
29.017
33.844
38.78
43.844
49.007
54.242
59.589
65.076
70.721
76.556
82.534
88.574
94.702
100.973
107.184
113.094
118.813
124.305
129.505
134.861
139.083
140.916
142.097
143.138
147.25
158.283
171.932
185.321
194.181
192.653
185.889
178.251
172.727
174.264
179.305
184.248
188.287
189.224
188.327
187.229
185.616
183.7
181.375
178.314
174.743
170.844
166.573
161.932
156.956
151.661
146.052
140.144
133.929
127.393
120.576
113.521
106.247
98.785
91.163
83.407
75.551
67.63
59.672
51.705
43.76
35.867
28.055
20.357
12.801
5.416
-1.768
-8.724
-15.427
-21.849
-27.969
-33.764
-39.212
-44.296
-48.999
-53.306
-57.204
-60.684
-63.736
-66.356
-68.539
-70.286
-71.596
-72.475
-72.928
-72.964
-72.594
-71.83
-70.687
-69.18
-67.33
-65.154
-62.676
-59.918
-56.905
-53.662
-50.217
-46.598
-42.832
-38.95
-34.981
-30.953
-26.896
-22.839
-18.809
-14.835
-10.941
-7.154
-3.496
0.011
3.344
6.487
9.422
12.134
14.61
16.838
18.811
20.521
21.965
23.14
24.046
24.686
25.062
25.182
25.052
24.683
24.086
23.272
22.258
21.058
19.691
18.176
16.531
14.779
12.938
11.032
9.082
7.108
5.128
3.163
1.23
-0.653
-2.47
-4.204
-5.842
-7.37
-8.775
-10.045
-11.17
-12.143
-12.959
-13.615
-14.108
-14.439
-14.607
-14.617
-14.473
-14.179
-13.742
-13.169
-12.47
-11.656
-10.743
-9.744
-8.679
-7.567
-6.43
-5.29
-4.167
-3.079
-2.044
-1.078
-0.193
0.6
1.294
1.883
2.356
2.699
2.896
2.938
2.817
2.53
2.072
1.439
0.627
-0.358
-1.5
-2.787
-4.213
-5.791
-7.541
-9.471
-11.566
-13.798
-16.14
-18.571
-21.062
-23.561
-25.977
-28.209
-30.182
-31.867
-33.271
-34.389
-35.202
-35.661
-35.711
-35.351
-34.622
-33.574
-32.211
-30.541
-28.578
-26.4
-24.243
-22.377
-21.02
-20.332
-20.363
-21.091
-22.567
-24.927
-28.114
-31.914
-35.886
-39.332
-41.964
-43.865
-45.047
-45.46
-45.012
-43.483
-41.216
-39.402
-38.569
-38.566
-39.04
-38.924
-37.209
-33.549
-27.087
-15.951
1.224
25.47
57.504
96.319
140.354
188.538
239.512
291.368
341.863
387.596
424.603
450.477
463.465
461.738
443.778
407.334
352.358
283.208
203.295
114.672
17.22
-93.179
-211.471
-323.513
-414.976
-470.464
-488.651
-481.607
-459.259
-432.213
-404.086
-371.013
-333.965
-294.558
-254.612
-218.716
-189.089
-166.566
-152.195
-144.675
-141.139
-139.099
-136.927
-133.854
-129.724
-124.133
-116.15
-105.617
-93.659
-81.788
-71.05
-61.842
-54.03
-47.473
-42.446
-39.02
-36.7
-34.75
-32.56
-29.845
-26.648
-23.093
-19.143
-14.745
-9.96
-4.931
0.165
5.209
10.177
15.067
19.852
24.462
28.797
32.786
36.405
39.652
42.541
45.09
47.318
49.257
50.96
52.472
53.833
55.078
56.233
57.331
58.407
59.498
60.647
61.892
63.264
64.789
66.492
68.386
70.484
72.795
75.321
78.068
81.039
84.237
87.662
91.314
95.186
99.272
103.564
108.045
112.698
117.504
122.441
127.486
132.617
137.807
143.029
148.255
153.457
158.606
163.671
168.623
173.43
178.06
182.485
186.675
190.602
194.239
197.559
200.537
203.151
205.38
207.205
208.61
209.578
210.098
210.161
209.759
208.889
207.549
205.739
203.462
200.724
197.533
193.899
189.834
185.353
180.47
175.205
169.577
163.606
157.316
150.73
143.874
136.773
129.454
121.944
114.272
106.466
98.553
90.561
82.52
74.457
66.399
58.374
50.406
42.522
34.744
27.095
19.597
12.268
5.124
-1.817
-8.535
-15.011
-21.23
-27.179
-32.853
-38.241
-43.319
-48.088
-52.564
-56.761
-60.697
-64.37
-67.746
-70.818
-73.628
-76.151
-78.306
-80.039
-81.292
-82.066
-82.477
-82.565
-82.227
-81.586
-81.069
-80.77
-80.558
-80.479
-80.103
-80.216
-83.359
-89.056
-94.983
-97.469
-89.55
-71.624
-50.904
-34.461
-32.215
-44.955
-63.3
-79.766
-86.022
-80.487
-70.403
-60.146
-53.202
-49.572
-43.68
-34.938
-25.84
-20.585
-27.289
-44.961
-65.547
-81.089
-80.65
-64.389
-42.557
-22.915
-14.327
-18.161
-26.854
-35.768
-41.597
-43.126
-44.381
-49.224
-56.948
-65.291
-69.775
-62.945
-45.859
-25.958
-10.544
-10.088
-24.998
-45.401
-63.676
-71.494
-67.535
-59.149
-50.821
-45.677
-44.56
-44.452
-44.028
-43.377
-42.413
-41.595
-41.023
-40.291
-39.287
-38.084
-36.674
-35.049
-33.233
-31.255
-29.167
-27.056
-24.961
-22.87
-20.796
-18.765
-16.794
-14.908
-13.123
-11.445
-9.887
-8.462
-7.187
-6.078
-5.153
-4.431
-3.926
-3.648
-3.607
-3.811
-4.266
-4.977
-5.937
-7.134
-8.559
-10.212
-12.101
-14.25
-16.661
-19.317
-22.199
-25.285
-28.558
-31.993
-35.537
-39.105
-42.601
-45.953
-49.124
-52.109
-54.889
-57.423
-59.654
-61.508
-62.98
-64.111
-64.908
-65.35
-65.386
-64.968
-64.165
-63.196
-62.293
-61.654
-61.41
-61.564
-62.188
-63.463
-65.404
-67.865
-70.432
-72.406
-73.248
-72.794
-70.995
-67.783
-63.455
-58.408
-53.254
-49.3
-47.662
-48.928
-53.326
-60.439
-68.638
-75.798
-79.926
-78.343
-68.583
-48.656
-16.643
28.029
83.552
146.624
213.766
281.017
344.51
400.485
444.447
472.665
483.668
477.923
456.759
421.694
374.228
315.81
248.689
176.055
100.591
23.898
-52.857
-128.055
-199.714
-264.937
-320.425
-364.738
-397.292
-417.379
-424.936
-420.585
-405.465
-382.321
-355.089
-326.293
-297.638
-270.661
-246.015
-224.177
-205.483
-189.135
-173.625
-158.128
-142.285
-126.032
-109.816
-93.993
-78.855
-65.037
-53.297
-44.116
-37.642
-33.707
-31.907
-31.784
-32.878
-34.712
-36.79
-38.752
-40.397
-41.592
-42.275
-42.412
-41.927
-40.769
-38.914
-36.276
-32.809
-28.554
-23.577
-18.05
-12.219
-6.277
-0.397
5.274
10.665
15.723
20.41
24.746
28.76
32.468
35.886
38.986
41.734
44.144
46.248
48.115
49.847
51.524
53.216
55.001
56.933
59.051
61.387
63.941
66.699
69.658
72.824
76.207
79.829
83.694
87.804
92.153
96.73
101.522
106.512
111.676
116.984
122.414
127.941
133.544
139.208
144.908
150.618
156.313
161.964
167.54
173.011
178.34
183.492
188.434
193.132
197.557
201.678
205.467
208.897
211.942
214.581
216.791
218.555
219.855
220.677
221.008
220.841
220.171
218.994
217.311
215.128
212.45
209.29
205.662
201.584
197.074
192.155
186.85
181.187
175.193
168.897
162.33
155.524
148.514
141.335
134.023
126.612
119.138
111.638
104.145
96.694
89.317
82.046
74.912
67.941
61.162
54.6
48.277
42.214
36.429
30.939
25.756
20.89
16.35
12.141
8.266
4.724
1.513
-1.374
-3.939
-6.187
-8.129
-9.771
-11.129
-12.219
-13.05
-13.63
-13.988
-14.153
-14.149
-14.009
-13.737
-13.326
-12.811
-12.232
-11.549
-10.742
-9.804
-8.704
-7.496
-6.27
-4.986
-3.579
-2.276
-1.311
-0.521
0.098
0.525
1.267
0.904
-1.903
-5.2
-8.444
-8.23
-0.439
10.201
20.592
26.261
20.919
10.029
-1.515
-9.957
-9.825
-5.098
0.399
5.258
8.141
13.527
22.455
31.774
36.967
29.086
8.494
-15.751
-34.609
-35.58
-18.13
5.94
27.499
36.604
31.71
21.637
11.717
5.707
4.67
4.979
5.04
4.963
4.628
4.59
4.98
5.309
5.434
5.442
5.319
5.048
4.652
4.155
3.606
3.096
2.654
2.245
1.864
1.517
1.205
0.936
0.709
0.515
0.353
0.229
0.146
0.106
0.114
0.166
0.261
0.397
0.569
0.773
1.002
1.244
1.487
1.721
1.935
2.119
2.265
2.365
2.411
2.399
2.326
2.183
1.96
1.648
1.236
0.717
0.09
-0.648
-1.498
-2.457
-3.521
-4.679
-5.913
-7.221
-8.607
-10.083
-11.668
-13.359
-15.143
-17.011
-18.949
-20.933
-22.925
-24.857
-26.639
-28.22
-29.566
-30.658
-31.505
-32.076
-32.327
-32.227
-31.738
-30.846
-29.545
-27.807
-25.59
-22.9
-19.812
-16.496
-13.192
-10.074
-7.278
-4.886
-2.937
-1.572
-0.798
-0.432
-0.193
0.4
1.792
4.194
7.73
12.59
18.563
25.205
32.027
37.9
41.718
42.777
40.528
35.054
27.678
20.261
14.626
13.386
19.212
34.548
61.837
101.984
153.493
213.579
279.328
347.174
413.002
471.966
518.247
547.297
557.166
547.505
518.224
469.488
402.442
320.233
228.337
132.351
36.413
-56.127
-141.762
-216.429
-276.477
-320.599
-350.184
-367.257
-373.26
-369.503
-357.576
-340.17
-320.56
-300.165
-278.354
-254.68
-229.449
-203.55
-178.434
-154.574
-131.454
-109.927
-92.16
-79.529
-72.543
-70.554
-71.605
-74.551
-79.172
-84.402
-88.589
-90.62
-89.793
-86.462
-82.086
-77.405
-72.544
-67.916
-63.699
-59.938
-57.107
-54.973
-52.703
-50.419
-46.56
-39.68
-31.981
-24.156
-19.91
-23.833
-31.177
-38.792
-41.882
-33.715
-20.202
-6.376
4.3
6.098
3.123
-0.431
-3.566
-3.69
-2.222
-1.013
0.324
1.586
2.941
4.807
6.953
9.194
11.601
14.206
17.016
20.06
23.364
26.932
30.78
34.913
39.266
43.764
48.349
52.963
57.564
62.137
66.685
71.214
75.744
80.266
84.74
89.134
93.43
97.611
101.676
105.646
109.559
113.484
117.519
121.734
126.156
130.769
135.501
140.25
144.888
149.305
153.42
157.138
160.347
162.93
164.761
165.709
165.646
164.408
161.783
157.604
151.755
144.176
134.876
123.911
111.378
97.389
82.068
65.584
48.138
29.963
11.321
-7.548
-26.434
-45.094
-63.25
-80.652
-97.083
-112.363
-126.36
-138.963
-150.078
-159.647
-167.653
-174.145
-179.222
-183.035
-185.781
-187.621
-188.68
-189.092
-188.994
-188.512
-187.76
-186.839
-185.829
-184.826
-183.95
-183.289
-182.907
-182.815
-182.973
-183.307
-183.702
-184.071
-184.354
-184.503
-184.492
-184.306
-183.937
-183.388
-182.676
-181.792
-180.703
-179.381
-177.806
-175.983
-173.942
-171.732
-169.418
-167.057
-164.698
-162.375
-160.108
-157.906
-155.767
-153.682
-151.629
-149.598
-147.588
-145.601
-143.642
-141.709
-139.791
-137.878
-135.952
-133.997
-131.996
-129.933
-127.797
-125.581
-123.284
-120.909
-118.462
-115.952
-113.384
-110.765
-108.1
-105.394
-102.654
-99.887
-97.099
-94.299
-91.495
-88.699
-85.923
-83.179
-80.476
-77.828
-75.243
-72.732
-70.305
-67.971
-65.738
-63.614
-61.603
-59.713
-57.945
-56.305
-54.79
-53.397
-52.125
-50.973
-49.944
-49.037
-48.246
-47.56
-46.972
-46.48
-46.073
-45.719
-45.369
-44.978
-44.53
-44.037
-43.502
-42.906
-42.261
-41.643
-41.179
-40.964
-41.009
-41.243
-41.605
-42.107
-42.626
-42.721
-42.056
-40.603
-38.503
-36.207
-32.736
-25.746
-14.75
-1.236
8.65
5.845
-12.186
-41.85
-71.748
-85.348
-76.752
-48.586
-10.986
18.089
30.855
26.841
9.109
-10.248
-24.918
-33.292
-33.386
-30.13
-26.883
-24.122
-23.765
-24.726
-25.763
-27.261
-28.947
-30.905
-33.434
-36.243
-39.022
-41.656
-43.998
-45.964
-47.586
-48.866
-49.765
-50.269
-50.323
-49.882
-49.016
-47.778
-46.181
-44.341
-42.38
-40.451
-38.825
-37.624
-36.784
-36.259
-36.023
-35.893
-35.541
-34.974
-34.42
-34.14
-35.043
-36.459
-35.719
-32.897
-29.08
-28.742
-41.481
-67.312
-98.644
-121.797
-114.172
-68.486
6.775
91.871
153.338
169.249
133.752
59.434
-21.516
-76.694
-79.302
-23.374
75.616
195.298
308.973
403.276
478.279
536.128
581.823
615.465
632.984
631.67
609.034
564.109
497.875
413.4
316.482
213.369
108.817
6.693
-89.973
-177.531
-251.13
-307.862
-347.715
-371.986
-382.326
-380.603
-368.375
-348.255
-324.484
-299.964
-276.017
-253.391
-232.086
-211.971
-193.417
-175.996
-157.999
-138.819
-118.574
-97.058
-76.335
-58.208
-41.193
-25.532
-8.986
11.782
32.157
49.079
58.354
54.452
42.992
28.878
16.259
9.638
4.64
-0.328
-5.368
-9.377
-6.976
-0.618
6.656
10.894
6.151
-2.684
-10.96
-15.475
-11.378
-2.429
7.519
17.321
24.522
30.265
36.08
41.589
46.988
52.125
56.639
60.754
64.642
68.25
71.575
74.63
77.447
80.077
82.611
85.149
87.75
90.487
93.422
96.571
99.948
103.568
107.422
111.49
115.763
120.234
124.895
129.75
134.79
139.993
145.333
150.774
156.281
161.82
167.359
172.862
178.296
183.63
188.835
193.886
198.755
203.408
207.811
211.927
215.719
219.15
222.184
224.786
226.923
228.565
229.683
230.255
230.258
229.672
228.483
226.676
224.243
221.174
217.468
213.123
208.143
202.534
196.308
189.477
182.059
174.077
165.556
156.524
147.013
137.057
126.694
115.964
104.908
93.572
82.001
70.245
58.353
46.375
34.365
22.373
10.452
-1.347
-12.975
-24.384
-35.527
-46.359
-56.839
-66.926
-76.583
-85.777
-94.477
-102.654
-110.285
-117.35
-123.832
-129.717
-134.998
-139.668
-143.727
-147.177
-150.025
-152.281
-153.96
-155.079
-155.66
-155.726
-155.307
-154.433
-153.137
-151.455
-149.423
-147.082
-144.472
-141.634
-138.61
-135.442
-132.172
-128.84
-125.489
-122.156
-118.881
-115.698
-112.642
-109.745
-107.036
-104.541
-102.284
-100.287
-98.567
-97.139
-96.015
-95.204
-94.712
-94.54
-94.689
-95.154
-95.926
-96.997
-98.352
-99.975
-101.847
-103.947
-106.251
-108.735
-111.371
-114.131
-116.987
-119.907
-122.862
-125.821
-128.751
-131.621
-134.402
-137.063
-139.577
-141.915
-144.052
-145.963
-147.627
-149.023
-150.131
-150.933
-151.414
-151.56
-151.359
-150.8
-149.875
-148.579
-146.908
-144.863
-142.444
-139.657
-136.508
-133.005
-129.158
-124.98
-120.485
-115.686
-110.6
-105.244
-99.638
-93.804
-87.764
-81.542
-75.162
-68.649
-62.029
-55.327
-48.568
-41.779
-34.983
-28.205
-21.472
-14.81
-8.245
-1.804
4.483
10.589
16.483
22.136
27.523
32.62
37.405
41.858
45.964
49.711
53.09
56.095
58.713
60.931
62.738
64.123
65.084
65.62
65.733
65.43
64.721
63.622
62.162
60.361
58.233
55.78
52.991
49.869
46.436
42.724
38.765
34.605
30.291
25.893
21.513
17.23
13.1
9.15
5.383
1.809
-1.537
-4.602
-7.335
-9.689
-11.655
-13.225
-14.371
-15.108
-15.467
-15.538
-15.499
-15.498
-15.639
-16
-16.636
-17.56
-18.819
-20.515
-22.565
-24.777
-26.844
-28.261
-28.571
-27.442
-24.576
-19.634
-12.741
-4.421
4.612
13.021
19.501
23.116
23.191
19.697
13.9
7.811
3.376
3.321
10.501
27.47
56.693
99.033
152.813
215.046
282.893
352.941
421.092
482.427
530.792
561.271
571.814
561.982
531.373
479.573
407.108
316.734
214.093
105.473
-4.322
-111.444
-211.925
-300.823
-373.156
-425.949
-459.092
-474.403
-473.862
-459.301
-432.756
-397.531
-358.187
-318.885
-282.562
-250.511
-223.236
-201.206
-185.053
-174.931
-169.677
-167.409
-166.12
-164.683
-162.795
-160.255
-156.571
-151.04
-143.64
-135.104
-126.614
-118.974
-112.326
-106.568
-101.65
-97.754
-94.878
-92.662
-90.483
-87.822
-84.506
-80.542
-76.017
-70.95
-65.332
-59.242
-52.844
-46.305
-39.731
-33.188
-26.701
-20.314
-14.118
-8.182
-2.549
2.753
7.732
12.398
16.764
20.86
24.73
28.411
31.935
35.333
38.627
41.846
45.022
48.181
51.354
54.569
57.854
61.233
64.725
68.344
72.096
75.984
80.009
84.174
88.48
92.926
97.513
102.236
107.09
112.07
117.167
122.368
127.656
133.014
138.421
143.856
149.299
154.724
160.107
165.423
170.646
175.748
180.704
185.485
190.063
194.411
198.503
202.313
205.817
208.99
211.812
214.26
216.318
217.968
219.196
219.988
220.335
220.228
219.662
218.634
217.144
215.194
212.787
209.93
206.634
202.909
198.771
194.234
189.316
184.04
178.425
172.497
166.281
159.804
153.093
146.177
139.088
131.854
124.507
117.078
109.597
102.095
94.603
87.15
79.766
72.478
65.312
58.296
51.453
44.805
38.373
32.177
26.233
20.558
15.165
10.066
5.271
0.787
-3.378
-7.221
-10.739
-13.932
-16.802
-19.352
-21.587
-23.516
-25.146
-26.489
-27.555
-28.358
-28.912
-29.233
-29.335
-29.237
-28.955
-28.508
-27.915
-27.194
-26.365
-25.445
-24.454
-23.409
-22.328
-21.227
-20.123
-19.032
-17.967
-16.942
-15.971
-15.066
-14.236
-13.494
-12.846
-12.302
-11.867
-11.546
-11.344
-11.263
-11.303
-11.466
-11.75
-12.152
-12.67
-13.3
-14.035
-14.869
-15.796
-16.806
-17.89
-19.039
-20.241
-21.486
-22.761
-24.056
-25.358
-26.657
-27.941
-29.199
-30.42
-31.592
-32.706
-33.749
-34.713
-35.586
-36.357
-37.019
-37.562
-37.978
-38.262
-38.406
-38.406
-38.26
-37.964
-37.516
-36.915
-36.162
-35.258
-34.206
-33.01
-31.674
-30.206
-28.615
-26.911
-25.105
-23.21
-21.239
-19.204
-17.119
-14.999
-12.858
-10.711
-8.575
-6.467
-4.405
-2.411
-0.507
1.283
2.936
4.431
5.745
6.858
7.752
8.411
8.824
8.98
8.868
8.477
7.8
6.83
5.56
3.988
2.113
-0.06
-2.524
-5.273
-8.297
-11.583
-15.119
-18.897
-22.914
-27.177
-31.685
-36.425
-41.379
-46.527
-51.838
-57.276
-62.796
-68.328
-73.801
-79.138
-84.26
-89.108
-93.633
-97.788
-101.509
-104.726
-107.392
-109.489
-111.031
-112.021
-112.43
-112.262
-111.587
-110.544
-109.338
-108.195
-107.285
-106.825
-107.088
-108.143
-109.929
-112.303
-114.82
-117.032
-118.696
-119.36
-118.489
-116.24
-113.183
-110.044
-108.139
-108.71
-112.136
-118.991
-130.392
-144.498
-158.513
-171.383
-179.405
-182.528
-182.652
-173.118
-148.705
-104.192
-34.15
53.157
147.613
241.161
324.74
397.245
457.54
502.061
529.18
536.619
524.63
495.185
449.618
390.131
318.954
238.98
154.338
67.761
-19.407
-105.185
-187.522
-263.678
-329.773
-383.757
-425.487
-454.528
-470.699
-474.713
-467.58
-451.902
-431.868
-410.149
-387.964
-366.402
-345.969
-326.901
-309.472
-292.84
-275.224
-255.856
-234.812
-212.405
-189.405
-166.398
-143.681
-121.934
-102.149
-84.919
-70.569
-59.232
-50.652
-44.609
-40.991
-39.522
-39.825
-41.476
-43.962
-46.822
-49.788
-52.645
-55.225
-57.427
-59.113
-60.183
-60.575
-60.187
-58.96
-56.881
-53.927
-50.125
-45.566
-40.384
-34.791
-29.044
-23.311
-17.701
-12.28
-7.063
-2.076
2.661
7.156
11.409
15.42
19.199
22.742
26.049
29.156
32.118
35.022
37.988
41.101
44.413
47.959
51.762
55.838
60.183
64.775
69.582
74.574
79.747
85.118
90.663
96.347
102.19
108.196
114.352
120.66
127.052
133.42
139.77
146.141
152.315
158.046
163.448
168.483
173.083
177.693
181.011
181.77
181.713
181.351
183.906
193.243
205.039
216.408
223.065
219.134
209.795
199.442
191.087
189.712
191.758
193.621
194.506
192.225
188.066
183.688
178.797
173.623
168.078
161.854
155.195
148.301
141.143
133.738
126.134
118.356
110.422
102.356
94.157
85.819
77.389
68.914
60.419
51.937
43.498
35.127
26.858
18.721
10.74
2.937
-4.666
-12.049
-19.193
-26.079
-32.692
-39.017
-45.042
-50.757
-56.152
-61.221
-65.959
-70.361
-74.426
-78.153
-81.542
-84.596
-87.318
-89.711
-91.782
-93.538
-94.986
-96.136
-96.999
-97.586
-97.911
-97.988
-97.832
-97.457
-96.881
-96.121
-95.192
-94.113
-92.9
-91.571
-90.143
-88.633
-87.056
-85.429
-83.768
-82.086
-80.399
-78.718
-77.057
-75.426
-73.837
-72.299
-70.821
-69.41
-68.073
-66.816
-65.643
-64.558
-63.564
-62.66
-61.849
-61.127
-60.494
-59.945
-59.475
-59.078
-58.744
-58.467
-58.235
-58.038
-57.865
-57.704
-57.542
-57.366
-57.163
-56.922
-56.627
-56.266
-55.825
-55.29
-54.649
-53.888
-52.996
-51.96
-50.771
-49.419
-47.895
-46.194
-44.309
-42.235
-39.969
-37.507
-34.848
-31.993
-28.942
-25.698
-22.267
-18.656
-14.876
-10.94
-6.86
-2.652
1.667
6.08
10.567
15.107
19.68
24.265
28.837
33.371
37.841
42.219
46.475
50.58
54.502
58.21
61.678
64.881
67.792
70.392
72.661
74.585
76.154
77.356
78.174
78.594
78.603
78.193
77.363
76.114
74.446
72.365
69.88
67.012
63.789
60.236
56.363
52.175
47.669
42.859
37.788
32.498
27.024
21.413
15.717
10.013
4.427
-0.939
-6.016
-10.763
-15.17
-19.214
-22.835
-25.961
-28.538
-30.541
-31.994
-32.895
-33.2
-32.888
-31.957
-30.514
-28.821
-27.1
-25.516
-24.192
-23.108
-22.274
-21.859
-21.845
-22.041
-22.157
-21.536
-19.643
-16.518
-12.142
-6.458
0.184
7.701
15.85
23.351
29.17
33.12
35.047
35.642
36.752
39.543
45.184
56.065
74.055
100.521
136.998
183.239
237.011
296.195
358.408
420.382
479.482
532.766
576.204
606.809
623.043
624.126
610.124
581.503
538.129
480.248
409.838
329.913
243.988
155.192
66.005
-20.898
-102.084
-173.34
-231.126
-273.668
-300.752
-312.855
-310.622
-295.099
-267.873
-231.958
-191.416
-149.802
-109.894
-73.419
-41.374
-14.642
5.739
19.37
27.265
31.154
33.097
34.401
35.455
36.595
38.502
42.04
47.444
54.122
60.855
66.8
71.842
76.085
79.642
82.379
84.159
85.241
86.238
87.644
89.666
92.318
95.45
98.988
102.953
107.27
111.794
116.376
120.876
125.206
129.341
133.232
136.841
140.143
143.111
145.742
148.057
150.08
151.853
153.436
154.866
156.175
157.394
158.547
159.67
160.801
161.969
163.198
164.508
165.922
167.463
169.152
171.001
173.015
175.191
177.527
180.021
182.675
185.486
188.448
191.556
194.802
198.175
201.666
205.26
208.938
212.677
216.452
220.24
224.015
227.75
231.418
234.988
238.434
241.727
244.838
247.739
250.401
252.796
254.898
256.681
258.121
259.195
259.883
260.165
260.026
259.451
258.428
256.949
255.006
252.595
249.715
246.368
242.558
238.293
233.582
228.439
222.879
216.924
210.595
203.915
196.914
189.618
182.06
174.274
166.292
158.151
149.888
141.542
133.15
124.753
116.391
108.103
99.928
91.904
84.07
76.461
69.111
62.054
55.32
48.936
42.93
37.323
32.137
27.387
23.088
19.249
15.879
12.981
10.554
8.595
7.097
6.051
5.443
5.256
5.472
6.067
7.016
8.292
9.863
11.696
13.757
16.008
18.411
20.926
23.513
26.13
28.736
31.289
33.748
36.073
38.224
40.164
41.856
43.267
44.365
45.122
45.514
45.516
45.112
44.286
43.025
41.323
39.174
36.577
33.535
30.055
26.146
21.822
17.1
12.002
6.552
0.776
-5.296
-11.63
-18.191
-24.941
-31.842
-38.851
-45.926
-53.021
-60.091
-67.09
-73.97
-80.686
-87.191
-93.442
-99.395
-105.008
-110.244
-115.067
-119.442
-123.337
-126.724
-129.577
-131.873
-133.592
-134.719
-135.239
-135.142
-134.423
-133.081
-131.117
-128.537
-125.349
-121.565
-117.199
-112.272
-106.804
-100.819
-94.345
-87.411
-80.052
-72.305
-64.211
-55.809
-47.144
-38.26
-29.205
-20.024
-10.765
-1.473
7.805
17.022
26.13
35.088
43.847
52.362
60.583
68.459
75.941
82.991
89.57
95.64
101.17
106.131
110.502
114.279
117.455
120.022
121.968
123.274
123.939
123.976
123.404
122.247
120.522
118.242
115.436
112.146
108.408
104.25
99.67
94.637
89.146
83.208
76.855
70.137
63.079
55.701
48.037
40.123
32.049
23.922
15.819
7.832
0.028
-7.599
-14.924
-21.717
-27.93
-33.558
-38.818
-44.242
-49.998
-55.92
-61.953
-68.003
-73.936
-79.745
-84.578
-86.761
-85.385
-80.156
-71.414
-60.41
-47.974
-34.453
-21.661
-12.62
-9.907
-15.762
-30.638
-52.8
-81.125
-115.177
-152.837
-190.597
-224.121
-248.078
-259.116
-256.582
-239.452
-206.144
-156.518
-91.633
-14.572
68.834
153.503
236.079
312.825
379.585
432.661
468.371
484.581
482.145
462.202
425.499
373.142
306.289
226.831
138.125
43.893
-53.237
-150.813
-246.29
-336.701
-418.3
-487.866
-543.432
-584.499
-611.207
-623.543
-621.682
-606.743
-580.855
-546.946
-508.323
-467.376
-425.884
-386.323
-351.324
-323.029
-303.248
-292.407
-289.625
-294.068
-304.791
-319.994
-337.446
-355.019
-370.536
-382.737
-391.398
-396.517
-398.404
-397.892
-396.133
-394.084
-392.574
-392.078
-392.577
-393.97
-396.047
-398.378
-400.411
-401.798
-402.369
-402.089
-401.108
-399.545
-397.477
-395.052
-392.434
-389.737
-387.035
-384.342
-381.598
-378.758
-375.813
-372.766
-369.619
-366.362
-362.948
-359.297
-355.354
-351.119
-346.53
-341.482
-335.927
-329.783
-322.996
-315.705
-308.039
-299.955
-291.656
-283.583
-275.719
-267.92
-260.39
-252.582
-244.929
-239.955
-237.237
-234.358
-227.827
-209.429
-176.946
-138.313
-103.644
-87.627
-98.758
-127.042
-156.797
-171.868
-159.771
-126.73
-88.016
-55.101
-37.708
-34.821
-37.173
-39.871
-39.588
-35.623
-31.331
-27.895
-25.076
-23.086
-21.448
-20
-19.197
-19.201
-19.968
-21.567
-24.029
-27.286
-31.286
-35.968
-41.226
-47.003
-53.293
-60.057
-67.242
-74.805
-82.695
-90.861
-99.257
-107.829
-116.514
-125.252
-133.983
-142.647
-151.187
-159.545
-167.664
-175.489
-182.967
-190.049
-196.686
-202.836
-208.458
-213.516
-217.977
-221.812
-224.998
-227.515
-229.349
-230.49
-230.934
-230.681
-229.736
-228.11
-225.817
-222.878
-219.314
-215.156
-210.436
-205.189
-199.457
-193.282
-186.713
-179.8
-172.596
-165.155
-157.535
-149.793
-141.988
-134.179
-126.424
-118.781
-111.308
-104.059
-97.088
-90.447
-84.184
-78.345
-72.97
-68.099
-63.764
-59.995
-56.817
-54.249
-52.307
-51.002
-50.339
-50.319
-50.938
-52.189
-54.059
-56.527
-59.571
-63.163
-67.273
-71.864
-76.895
-82.32
-88.091
-94.164
-100.495
-107.038
-113.739
-120.537
-127.373
-134.203
-140.974
-147.61
-154.012
-160.086
-165.763
-171.023
-175.854
-180.198
-184.009
-187.335
-190.295
-193
-195.493
-197.681
-199.429
-200.764
-201.638
-201.619
-200.244
-197.397
-193.211
-188.143
-181.47
-170.527
-153.549
-132.145
-113.349
-107.375
-120.201
-147.542
-174.015
-182.33
-163.031
-120.74
-73.199
-37.048
-20.474
-21.102
-27.333
-30.32
-26.952
-17.941
-7.388
2.55
12.068
21.359
30.811
40.325
49.341
57.679
65.385
72.425
78.771
84.444
89.496
94.015
98.076
101.681
104.786
107.378
109.47
111.074
112.199
112.852
113.047
112.819
112.208
111.244
109.935
108.278
106.282
103.977
101.406
98.614
95.639
92.531
89.365
86.251
83.306
80.623
78.245
76.173
74.425
73.03
72.047
71.551
71.559
72.046
72.988
74.387
76.246
78.538
81.159
83.865
86.375
88.475
90.012
90.916
91.188
90.773
89.523
87.47
84.829
81.966
79.507
77.909
77.216
77.552
79.148
82.02
86.296
91.67
96.831
100.635
102.678
102.893
102.08
101.767
102.748
106.251
114.991
131.669
158.68
197.549
247.209
304.889
368.457
435.409
501.966
563.795
615.27
651.081
669.046
668.993
650.703
614.176
559.676
488.347
404.184
312.566
217.211
120.776
26.15
-63.444
-143.564
-209.552
-259.576
-294.2
-313.906
-319.144
-311.057
-291.215
-263.013
-231.543
-200.117
-170.043
-142.376
-117.856
-96.781
-79.734
-66.179
-53.648
-40.673
-26.993
-12.431
2.74
18.21
34.293
50.907
66.652
80.557
92.287
101.565
108.618
113.693
116.651
117.544
117.105
116.048
114.836
113.857
113.121
112.586
112.431
112.781
113.605
114.867
116.518
118.525
121.028
124.142
127.838
132.047
136.586
141.214
145.794
150.237
154.45
158.397
162.048
165.384
168.456
171.333
174.046
176.601
178.961
181.086
182.988
184.707
186.309
187.884
189.498
191.202
193.06
195.112
197.379
199.877
202.587
205.477
208.533
211.747
215.117
218.649
222.334
226.154
230.09
234.117
238.206
242.326
246.439
250.507
254.498
258.38
262.127
265.716
269.122
272.317
275.276
277.972
280.377
282.465
284.21
285.587
286.574
287.152
287.306
287.021
286.289
285.102
283.453
281.342
278.767
275.732
272.242
268.305
263.93
259.129
253.918
248.31
242.326
235.984
229.309
222.325
215.056
207.53
199.777
191.825
183.706
175.449
167.086
158.646
150.161
141.66
133.173
124.729
116.356
108.08
99.926
91.919
84.081
76.431
68.988
61.769
54.788
48.058
41.589
35.389
29.466
23.825
18.469
13.401
8.622
4.132
-0.069
-3.986
-7.622
-10.984
-14.082
-16.927
-19.531
-21.908
-24.072
-26.039
-27.825
-29.447
-30.922
-32.266
-33.498
-34.636
-35.698
-36.706
-37.678
-38.636
-39.601
-40.595
-41.637
-42.743
-43.93
-45.21
-46.594
-48.093
-49.709
-51.448
-53.315
-55.318
-57.468
-59.775
-62.244
-64.876
-67.669
-70.619
-73.72
-76.963
-80.329
-83.794
-87.341
-90.956
-94.642
-98.41
-102.252
-106.143
-110.052
-113.943
-117.775
-121.503
-125.052
-128.334
-131.279
-133.832
-135.977
-137.723
-139.066
-139.987
-140.452
-140.403
-139.81
-138.681
-137.015
-134.813
-132.104
-128.928
-125.398
-121.716
-118.061
-114.589
-111.424
-108.583
-106.015
-103.728
-101.792
-100.157
-98.703
