Name,John Breau
Date of Birth,"Dec 20, 1971"
Recorded Date,2023-05-15 22:17:10 -0500
Classification,Sinus Rhythm
Symptoms,
Software Version,1.90
Device,"Watch6,3"
Sample Rate,512 hertz


Lead,Lead I
Unit,µV

-82.093
10.449
87.399
129.161
131.37
105.674
70.929
43.411
30.342
28.315
29.358
28.553
25.292
22.062
22.009
25.226
29.558
33.48
36.122
37.262
37.039
35.057
30.976
25.315
19.15
13.19
7.655
2.461
-2.725
-8.029
-13.401
-19.002
-25.045
-31.496
-38.231
-45.033
-51.416
-56.879
-61.137
-64.085
-66.228
-68.599
-72.03
-77.173
-84.467
-94.09
-106.132
-120.218
-134.738
-147.107
-154.61
-154.535
-144.921
-124.405
-91.357
-44.876
14.329
84.3
161.852
242.928
324.081
401.871
471.68
529.227
571.129
594.611
598.725
583.795
549.728
497.37
429.446
349.139
260.386
167.841
74.986
-15.034
-98.219
-171.444
-232.792
-280.91
-316.07
-339.663
-352.64
-356.464
-353.43
-345.482
-334.508
-322.14
-308.773
-294.374
-279.254
-263.377
-246.765
-230.002
-213.299
-196.974
-182.129
-168.808
-156.812
-147.427
-140.568
-137.201
-138.847
-142.365
-145.48
-145.38
-138.444
-127.514
-115.451
-104.646
-98.466
-95.282
-93.178
-91.58
-89.095
-86.303
-83.899
-81.38
-78.634
-75.476
-71.697
-67.537
-63.219
-58.804
-54.36
-49.978
-45.694
-41.533
-37.566
-33.83
-30.352
-27.189
-24.363
-21.881
-19.758
-17.986
-16.531
-15.353
-14.399
-13.617
-12.985
-12.482
-12.087
-11.782
-11.523
-11.263
-10.966
-10.593
-10.107
-9.478
-8.665
-7.637
-6.378
-4.877
-3.123
-1.108
1.185
3.77
6.658
9.855
13.364
17.185
21.316
25.751
30.478
35.484
40.75
46.254
51.979
57.902
63.999
70.242
76.605
83.054
89.559
96.087
102.604
109.074
115.46
121.727
127.838
133.76
139.456
144.894
150.041
154.866
159.338
163.431
167.118
170.375
173.182
175.519
177.37
178.72
179.56
179.881
179.679
178.952
177.701
175.931
173.65
170.867
167.595
163.85
159.651
155.018
149.975
144.546
138.759
132.643
126.229
119.551
112.64
105.531
98.26
90.863
83.373
75.828
68.262
60.71
53.207
45.785
38.477
31.314
24.326
17.541
10.985
4.683
-1.342
-7.071
-12.486
-17.569
-22.309
-26.694
-30.715
-34.367
-37.646
-40.551
-43.084
-45.247
-47.048
-48.494
-49.596
-50.367
-50.819
-50.969
-50.835
-50.433
-49.785
-48.909
-47.828
-46.562
-45.133
-43.565
-41.878
-40.097
-38.242
-36.335
-34.399
-32.454
-30.519
-28.615
-26.758
-24.967
-23.257
-21.642
-20.136
-18.752
-17.498
-16.385
-15.421
-14.612
-13.962
-13.476
-13.156
-13.002
-13.015
-13.194
-13.536
-14.039
-14.699
-15.512
-16.472
-17.575
-18.815
-20.184
-21.677
-23.287
-25.005
-26.825
-28.738
-30.737
-32.814
-34.962
-37.171
-39.436
-41.749
-44.102
-46.489
-48.901
-51.334
-53.779
-56.231
-58.682
-61.126
-63.558
-65.972
-68.36
-70.718
-73.038
-75.314
-77.539
-79.708
-81.811
-83.842
-85.793
-87.655
-89.421
-91.084
-92.637
-94.071
-95.379
-96.554
-97.591
-98.483
-99.224
-99.807
-100.227
-100.48
-100.561
-100.469
-100.199
-99.75
-99.121
-98.313
-97.328
-96.168
-94.837
-93.34
-91.682
-89.873
-87.922
-85.84
-83.64
-81.334
-78.941
-76.479
-73.97
-71.435
-68.896
-66.376
-63.9
-61.493
-59.176
-56.972
-54.9
-52.981
-51.236
-49.689
-48.363
-47.276
-46.448
-45.897
-45.64
-45.693
-46.065
-46.757
-47.771
-49.109
-50.778
-52.791
-55.154
-57.866
-60.925
-64.325
-68.05
-72.083
-76.388
-80.917
-85.624
-90.468
-95.418
-100.448
-105.525
-110.607
-115.649
-120.599
-125.418
-130.073
-134.517
-138.72
-142.688
-146.447
-150.06
-153.598
-157.091
-160.576
-164.113
-167.759
-171.589
-175.675
-180.04
-184.76
-189.992
-195.806
-202.168
-208.898
-215.546
-221.657
-226.909
-230.861
-232.957
-232.944
-230.921
-227.358
-223.359
-220.126
-218.437
-219.213
-223.627
-231.261
-240.134
-248.238
-252.251
-251.31
-248.412
-243.317
-234.551
-217.514
-181.368
-120.321
-32.746
78.262
198.576
312.339
402.944
456.744
471.879
453.986
414.915
364.85
305.786
235.221
146.879
40.514
-75.429
-190.629
-293.037
-377.3
-445.976
-501.587
-547.639
-584.419
-608.201
-617.476
-611.539
-591.142
-559.606
-519.555
-473.269
-423.127
-370.443
-316.583
-263.535
-213.431
-168.32
-129.536
-97.377
-71.574
-51.845
-37.733
-28.344
-22.097
-17.07
-11.966
-6.261
0.1
6.979
14.164
21.269
27.45
31.605
33.13
31.933
28.211
22.378
14.869
6.141
-3.142
-12.197
-20.517
-27.848
-34.097
-39.327
-43.579
-46.868
-49.293
-51.006
-52.141
-52.817
-53.113
-53.064
-52.765
-52.356
-51.983
-51.801
-51.906
-52.335
-53.113
-54.247
-55.725
-57.518
-59.572
-61.817
-64.187
-66.627
-69.084
-71.518
-73.868
-76.067
-78.044
-79.727
-81.064
-82.025
-82.584
-82.729
-82.453
-81.759
-80.661
-79.182
-77.341
-75.15
-72.626
-69.779
-66.63
-63.199
-59.511
-55.593
-51.468
-47.163
-42.704
-38.117
-33.426
-28.655
-23.829
-18.967
-14.093
-9.234
-4.415
0.337
4.994
9.53
13.913
18.114
22.105
25.86
29.352
32.556
35.45
38.011
40.224
42.074
43.544
44.623
45.293
45.543
45.362
44.739
43.667
42.138
40.15
37.703
34.808
31.474
27.709
23.519
18.896
13.834
8.336
2.407
-3.944
-10.691
-17.802
-25.228
-32.891
-40.711
-48.605
-56.491
-64.303
-71.972
-79.412
-86.531
-93.221
-99.364
-104.871
-109.647
-113.607
-116.736
-119.052
-120.632
-121.625
-122.154
-122.33
-122.299
-122.19
-122.095
-122.087
-122.167
-122.383
-122.97
-124.149
-126.053
-128.651
-131.708
-135.092
-138.641
-141.871
-143.974
-143.913
-141.807
-139.179
-137.147
-136.571
-134.927
-126.708
-109.858
-83.233
-50.554
-21.566
-2.004
1.485
-13.546
-37.719
-56.539
-45.495
22.138
159.098
360.973
601.774
841.749
1045.999
1194.64
1284.26
1324.283
1325.691
1293.012
1232.337
1152.763
1067.463
996.602
950.846
928.756
921.533
912.286
891.423
859.179
820.027
782.473
750.323
721.951
694.336
663.83
629.386
592.035
552.825
512.645
471.75
430.345
388.976
347.513
305.124
261.094
214.812
167.202
120.877
76.448
33.692
-7.913
-50.512
-91.245
-123.559
-141.844
-139.338
-115.939
-78.782
-34.589
8.669
47.238
83.134
116.963
149.017
178.457
202.495
220.33
232.844
240.977
246.132
249.557
251.855
253.771
255.979
258.588
261.345
263.909
265.801
266.443
265.54
262.916
258.502
252.379
244.736
236.062
226.9
217.816
209.513
201.583
193.529
186.386
180.468
177.558
179.723
184.449
190.019
193.954
192.903
189.67
186.595
185.196
188.073
193.077
198.032
202.377
204.812
205.984
206.778
207.017
206.831
206.195
204.974
203.332
201.404
199.197
196.737
194.086
191.302
188.445
185.58
182.73
179.894
177.083
174.3
171.533
168.777
166.015
163.223
160.395
157.537
154.672
151.828
149.028
146.285
143.6
140.985
138.468
136.098
133.929
132.011
130.364
128.991
127.906
127.107
126.571
126.249
126.035
125.797
125.421
124.791
123.785
122.298
120.157
117.124
113.044
107.845
101.614
94.655
87.262
79.684
72.297
65.573
59.873
55.405
51.903
48.511
44.404
38.888
31.317
21.287
8.68
-6.241
-22.262
-37.089
-48.202
-52.968
-48.847
-33.888
-6.404
34.725
89.2
155.315
230.503
311.212
393.488
473.499
546.805
608.955
656.456
686.505
697.215
688.096
659.16
610.943
545.467
465.637
374.792
277.145
176.867
77.559
-16.619
-101.632
-174.445
-232.632
-275.01
-301.902
-313.959
-312.118
-298.722
-276.691
-249.113
-219.438
-190.146
-162.861
-139.437
-121.404
-109.175
-102.575
-100.775
-102.2
-105.799
-110.771
-115.662
-119.122
-120.579
-119.887
-117.314
-113.84
-109.337
-102.662
-95.019
-88.311
-85.228
-90.378
-102.857
-117.671
-129.882
-132.594
-125.378
-114.127
-103.463
-98.606
-100.345
-104.317
-107.987
-109.547
-108.754
-107.727
-107.394
-107.798
-108.971
-110.403
-111.866
-113.643
-115.829
-118.427
-121.691
-125.797
-130.942
-137.61
-145.99
-155.724
-166.339
-177.12
-186.916
-194.786
-199.778
-200.549
-196.25
-186.75
-172.186
-153.278
-131.299
-107.231
-82.091
-57.313
-33.911
-12.418
6.829
24.112
40.08
55.015
69.145
82.838
96.176
109.162
121.776
133.652
144.366
153.777
161.861
168.731
174.675
179.873
184.449
188.573
192.366
195.916
199.286
202.453
205.368
208.025
210.442
212.691
214.842
216.888
218.78
220.421
221.67
222.436
222.653
222.252
221.2
219.479
217.078
214.032
210.392
206.182
201.419
196.093
190.192
183.74
176.782
169.376
161.603
153.525
145.201
136.697
128.067
119.36
110.619
101.871
93.138
84.452
75.853
67.383
59.087
50.998
43.145
35.55
28.227
21.193
14.462
8.049
1.972
-3.753
-9.115
-14.108
-18.726
-22.98
-26.894
-30.493
-33.817
-36.893
-39.743
-42.378
-44.797
-46.995
-48.969
-50.723
-52.277
-53.647
-54.852
-55.907
-56.827
-57.603
-58.201
-58.575
-58.664
-58.424
-57.841
-56.915
-55.67
-54.156
-52.445
-50.606
-48.709
-46.814
-44.969
-43.228
-41.639
-40.292
-39.314
-38.84
-39.017
-39.972
-41.794
-44.561
-48.336
-53.125
-58.875
-65.511
-72.927
-81.029
-89.74
-98.958
-108.57
-118.419
-128.298
-138.01
-147.366
-156.182
-164.302
-171.563
-177.789
-182.878
-186.799
-189.55
-191.18
-191.726
-191.213
-189.709
-187.315
-184.168
-180.446
-176.3
-171.852
-167.23
-162.556
-157.961
-153.607
-149.597
-145.982
-142.796
-140.046
-137.742
-135.905
-134.514
-133.512
-132.829
-132.371
-132.073
-131.904
-131.826
-131.805
-131.799
-131.754
-131.641
-131.46
-131.209
-130.889
-130.5
-130.033
-129.502
-128.942
-128.389
-127.883
-127.45
-127.095
-126.824
-126.641
-126.547
-126.542
-126.615
-126.747
-126.92
-127.125
-127.349
-127.584
-127.817
-128.024
-128.188
-128.288
-128.308
-128.235
-128.059
-127.766
-127.351
-126.807
-126.134
-125.333
-124.404
-123.348
-122.164
-120.854
-119.421
-117.868
-116.2
-114.422
-112.541
-110.566
-108.506
-106.373
-104.179
-101.937
-99.662
-97.371
-95.08
-92.811
-90.581
-88.412
-86.322
-84.331
-82.46
-80.724
-79.139
-77.718
-76.478
-75.435
-74.603
-73.998
-73.629
-73.508
-73.641
-74.035
-74.695
-75.621
-76.803
-78.239
-79.929
-81.878
-84.102
-86.611
-89.402
-92.469
-95.803
-99.385
-103.196
-107.198
-111.336
-115.552
-119.797
-124.027
-128.213
-132.315
-136.275
-140.024
-143.482
-146.576
-149.267
-151.533
-153.352
-154.728
-155.675
-156.229
-156.5
-156.618
-156.692
-156.837
-157.139
-157.672
-158.602
-160.169
-162.532
-165.737
-169.659
-173.998
-178.495
-182.926
-186.909
-189.917
-191.557
-191.748
-190.862
-189.65
-188.947
-189.565
-192.313
-197.998
-206.081
-214.513
-221.146
-224.079
-223.995
-223.479
-222.15
-215.852
-196.215
-152.854
-81.206
15.664
128.854
244.029
348.093
433.112
493.63
530.343
548.345
550.557
540.567
519.353
483.631
432.936
368.56
293.023
211.374
127.729
44.468
-36.213
-112.106
-181.232
-241.694
-292.007
-331.634
-360.589
-378.878
-386.755
-384.974
-374.816
-358.13
-336.943
-312.987
-287.749
-262.631
-239.24
-219.323
-203.837
-192.898
-186.208
-183.187
-183.272
-185.923
-190.039
-193.953
-196.549
-197.342
-196.193
-193.384
-189.176
-183.704
-177.488
-171.428
-166.113
-161.782
-158.446
-155.795
-153.547
-151.571
-149.626
-147.378
-144.63
-141.291
-137.373
-133.033
-128.405
-123.564
-118.597
-113.579
-108.579
-103.677
-98.904
-94.272
-89.817
-85.552
-81.513
-77.753
-74.25
-70.949
-67.937
-65.306
-62.943
-60.823
-58.943
-57.016
-55.731
-55.75
-56.054
-56.312
-54.678
-48.951
-41.502
-33.899
-28.497
-28.543
-31.122
-33.765
-34.776
-31.362
-25.496
-19.176
-12.84
-7.707
-3.06
2.02
7.358
13.064
19.069
25.176
31.488
38.086
44.917
51.951
59.173
66.553
74.055
81.642
89.265
96.866
104.419
111.894
119.25
126.451
133.456
140.227
146.729
152.927
158.785
164.269
169.346
173.986
178.163
181.85
185.027
187.674
189.774
191.315
192.288
192.687
192.51
191.758
190.436
188.552
186.119
183.151
179.667
175.686
171.232
166.331
161.012
155.304
149.239
142.851
136.176
129.248
122.104
114.783
107.321
99.756
92.124
84.463
76.809
69.195
61.655
54.22
46.921
39.786
32.84
26.107
19.608
13.362
7.386
1.692
-3.708
-8.806
-13.595
-18.072
-22.236
-26.088
-29.632
-32.873
-35.817
-38.475
-40.856
-42.974
-44.84
-46.471
-47.88
-49.084
-50.1
-50.943
-51.632
-52.182
-52.61
-52.933
-53.166
-53.325
-53.422
-53.473
-53.488
-53.478
-53.455
-53.425
-53.398
-53.378
-53.37
-53.379
-53.406
-53.453
-53.521
-53.608
-53.713
-53.832
-53.964
-54.102
-54.244
-54.383
-54.515
-54.634
-54.734
-54.81
-54.856
-54.867
-54.839
-54.766
-54.645
-54.472
-54.244
-53.959
-53.616
-53.213
-52.75
-52.23
-51.652
-51.02
-50.337
-49.605
-48.83
-48.016
-47.169
-46.293
-45.395
-44.481
-43.558
-42.632
-41.71
-40.799
-39.906
-39.036
-38.195
-37.39
-36.624
-35.902
-35.228
-34.605
-34.037
-33.524
-33.068
-32.669
-32.328
-32.042
-31.809
-31.626
-31.49
-31.395
-31.336
-31.308
-31.304
-31.318
-31.342
-31.37
-31.394
-31.405
-31.396
-31.359
-31.285
-31.165
-30.991
-30.755
-30.449
-30.067
-29.601
-29.046
-28.397
-27.648
-26.794
-25.833
-24.762
-23.578
-22.279
-20.866
-19.34
-17.701
-15.954
-14.102
-12.15
-10.103
-7.968
-5.752
-3.463
-1.108
1.304
3.764
6.261
8.784
11.324
13.866
16.397
18.901
21.363
23.767
26.096
28.336
30.47
32.484
34.364
36.102
37.686
39.106
40.351
41.407
42.266
42.917
43.353
43.568
43.558
43.317
42.849
42.162
41.262
40.15
38.824
37.268
35.476
33.446
31.185
28.702
26.016
23.149
20.138
17.04
13.909
10.793
7.732
4.748
1.872
-0.85
-3.364
-5.597
-7.493
-9.021
-10.159
-10.899
-11.259
-11.277
-11.026
-10.627
-10.2
-9.846
-9.663
-9.736
-10.17
-11.101
-12.686
-15.121
-18.528
-22.913
-28.169
-33.996
-39.992
-45.763
-50.83
-54.613
-56.693
-56.904
-55.542
-53.589
-52.181
-52.204
-53.645
-55.696
-57.858
-60.06
-64.023
-71.904
-82.537
-91.263
-89.014
-65.607
-16.594
55.106
140.076
227.421
309.957
385.606
455.695
519.783
574.874
617.043
641.904
647.41
633.942
601.903
552.377
487.707
410.564
324.197
232.704
139.78
48.566
-37.444
-115.202
-182.57
-237.727
-279.735
-309.072
-326.608
-333.372
-330.889
-320.536
-303.815
-282.803
-259.269
-234.134
-208.229
-182.351
-157.415
-134.882
-115.675
-99.782
-87.069
-77.529
-70.97
-67.128
-65.186
-63.531
-61.096
-57.568
-52.884
-47.223
-40.772
-33.595
-26.149
-19.352
-13.738
-9.418
-6.258
-3.861
-1.94
-0.377
1.06
2.731
4.879
7.64
11.053
15.038
19.531
24.514
29.942
35.73
41.774
47.937
54.06
60.017
65.722
71.109
76.147
80.818
85.103
89.003
92.53
95.694
98.501
100.96
103.069
104.845
106.325
107.563
108.636
109.619
110.57
111.538
112.564
113.683
114.924
116.311
117.852
119.56
121.453
123.549
125.871
128.437
131.254
134.328
137.658
141.238
145.064
149.126
153.412
157.912
162.61
167.493
172.546
177.754
183.094
188.542
194.07
199.646
205.239
210.815
216.337
221.768
227.07
232.208
237.142
241.838
246.258
250.368
254.132
257.518
260.495
263.034
265.108
266.692
267.765
268.308
268.305
267.743
266.614
264.912
262.635
259.784
256.363
252.381
247.848
242.779
237.192
231.105
224.544
217.535
210.106
202.289
194.118
185.63
176.861
167.85
158.639
149.266
139.775
130.206
120.601
111.001
101.448
91.98
82.637
73.456
64.473
55.721
47.232
39.036
31.159
23.628
16.462
9.683
3.305
-2.657
-8.192
-13.293
-17.955
-22.174
-25.951
-29.29
-32.195
-34.675
-36.739
-38.402
-39.676
-40.579
-41.129
-41.345
-41.249
-40.862
-40.208
-39.309
-38.191
-36.877
-35.393
-33.761
-32.006
-30.151
-28.219
-26.232
-24.21
-22.174
-20.141
-18.129
-16.154
-14.229
-12.368
-10.583
-8.883
-7.277
-5.772
-4.375
-3.089
-1.918
-0.864
0.072
0.89
1.591
2.178
2.652
3.018
3.28
3.441
3.506
3.481
3.371
3.18
2.914
2.577
2.175
1.711
1.189
0.614
-0.013
-0.688
-1.411
-2.179
-2.993
-3.851
-4.754
-5.703
-6.7
-7.745
-8.84
-9.989
-11.192
-12.453
-13.775
-15.16
-16.61
-18.129
-19.717
-21.377
-23.11
-24.917
-26.8
-28.757
-30.788
-32.894
-35.071
-37.318
-39.631
-42.007
-44.441
-46.928
-49.462
-52.037
-54.644
-57.277
-59.927
-62.586
-65.244
-67.893
-70.521
-73.119
-75.676
-78.181
-80.624
-82.992
-85.276
-87.465
-89.548
-91.516
-93.361
-95.073
-96.644
-98.068
-99.337
-100.446
-101.39
-102.163
-102.763
-103.188
-103.436
-103.507
-103.402
-103.123
-102.673
-102.055
-101.275
-100.337
-99.249
-98.016
-96.649
-95.155
-93.547
-91.834
-90.031
-88.152
-86.214
-84.234
-82.229
-80.218
-78.22
-76.253
-74.335
-72.484
-70.713
-69.04
-67.479
-66.045
-64.755
-63.626
-62.673
-61.912
-61.357
-61.021
-60.918
-61.055
-61.435
-62.06
-62.932
-64.059
-65.456
-67.132
-69.091
-71.332
-73.85
-76.633
-79.66
-82.894
-86.28
-89.764
-93.295
-96.832
-100.349
-103.816
-107.197
-110.45
-113.518
-116.361
-118.951
-121.27
-123.301
-125.048
-126.548
-127.886
-129.197
-130.597
-132.177
-134.013
-136.162
-138.699
-141.709
-145.275
-149.467
-154.371
-160.101
-166.666
-174.005
-181.955
-190.126
-198.02
-205.122
-210.823
-214.521
-216.018
-215.317
-212.571
-208.612
-204.475
-201.043
-199.434
-199.688
-200.169
-199.569
-197.217
-193.914
-192.044
-191.309
-186.497
-168.766
-129.216
-63.832
22.639
119.589
216.238
302.69
374.584
430.383
467.481
487.205
489.726
475.255
447.007
404.666
348.858
282.424
207.049
126.397
44.589
-36.184
-113.817
-186.194
-251.961
-309.825
-358.342
-396.761
-425.19
-443.648
-452.401
-452.165
-443.348
-426.799
-404.268
-377.494
-347.786
-316.675
-285.649
-256.261
-230.668
-210.285
-195.347
-185.741
-181.161
-180.904
-184.138
-189.454
-194.645
-198.185
-199.425
-198.011
-193.988
-187.578
-178.967
-168.86
-158.495
-148.59
-139.386
-131.051
-123.448
-116.276
-109.492
-102.915
-95.793
-88.539
-81.902
-74.918
-67.453
-58.041
-43.765
-26.498
-9.034
5.751
12.485
11.866
8.926
7.068
11.642
23.981
38.972
53.603
64.87
70.651
73.989
76.811
79.719
83.934
88.537
92.718
96.781
100.592
104.23
107.918
111.551
115.04
118.436
121.746
124.946
128.058
131.108
134.106
137.084
140.075
143.081
146.109
149.175
152.289
155.455
158.678
161.953
165.272
168.628
172.009
175.401
178.788
182.158
185.5
188.804
192.063
195.269
198.4
201.435
204.349
207.108
209.685
212.053
214.189
216.081
217.734
219.164
220.396
221.45
222.332
223.041
223.552
223.841
223.896
223.698
223.25
222.555
221.592
220.355
218.849
217.063
214.984
212.542
209.576
206.024
201.952
197.424
192.574
187.427
181.789
175.657
169.21
162.378
154.954
146.693
137.16
126.41
115.15
103.821
92.623
82.019
72.45
64.495
59.055
56.243
55.284
55.646
56.978
58.89
61.2
63.482
64.91
65.266
64.943
64.176
63.172
61.944
60.165
57.795
55.113
52.203
49.047
45.548
41.354
36.395
30.956
25.042
18.506
11.161
2.611
-7.056
-17.116
-27.123
-36.901
-46.048
-54.157
-60.707
-64.866
-66.546
-66.495
-65.205
-62.995
-60.268
-57.264
-54.403
-52.425
-51.455
-50.986
-50.708
-50.381
-49.855
-49.232
-48.443
-47.188
-45.445
-43.438
-41.315
-39.23
-37.228
-35.17
-33.019
-30.827
-28.606
-26.354
-24.067
-21.713
-19.304
-16.899
-14.537
-12.246
-10.04
-7.914
-5.873
-3.933
-2.111
-0.428
1.098
2.459
3.645
4.652
5.475
6.114
6.572
6.86
6.988
6.964
6.795
6.482
6.031
5.447
4.737
3.909
2.971
1.932
0.804
-0.401
-1.672
-2.997
-4.363
-5.76
-7.178
-8.607
-10.036
-11.456
-12.859
-14.235
-15.576
-16.874
-18.12
-19.308
-20.43
-21.479
-22.452
-23.342
-24.145
-24.859
-25.481
-26.008
-26.439
-26.774
-27.01
-27.148
-27.187
-27.129
-26.974
-26.724
-26.379
-25.944
-25.42
-24.811
-24.121
-23.353
-22.511
-21.599
-20.62
-19.579
-18.48
-17.328
-16.127
-14.883
-13.6
-12.287
-10.95
-9.595
-8.229
-6.86
-5.497
-4.147
-2.819
-1.52
-0.258
0.959
2.123
3.224
4.255
5.205
6.065
6.822
7.464
7.98
8.358
8.587
8.658
8.559
8.285
7.83
7.19
6.361
5.336
4.11
2.68
1.046
-0.794
-2.835
-5.076
-7.513
-10.135
-12.928
-15.881
-18.99
-22.254
-25.686
-29.287
-33.048
-36.963
-41.021
-45.205
-49.495
-53.852
-58.218
-62.54
-66.769
-70.861
-74.789
-78.501
-81.93
-85.008
-87.65
-89.802
-91.444
-92.547
-93.086
-93.067
-92.497
-91.442
-90.05
-88.44
-86.732
-85.054
-83.493
-82.223
-81.511
-81.551
-82.452
-84.17
-86.46
-89.098
-91.904
-94.539
-96.554
-97.566
-97.366
-96.235
-94.859
-94.033
-94.631
-97.411
-103.014
-111.158
-120.315
-128.52
-133.944
-136.872
-138.791
-139.752
-136.856
-121.658
-84.334
-18.669
75.767
189.484
307.64
415.809
502.121
562.375
600.121
621.713
633.906
640.209
636.489
616.545
575.397
511.039
429.88
339.759
247.388
158.654
73.983
-5.796
-78.356
-142.547
-195.8
-236.644
-265.676
-283.115
-289.487
-286.003
-274.133
-255.916
-233.631
-209.004
-183.253
-157.567
-133.412
-112.442
-95.552
-82.753
-73.67
-67.741
-64.534
-63.709
-64.324
-64.833
-64.22
-62.116
-58.508
-53.836
-48.513
-42.762
-37.161
-32.623
-29.721
-28.688
-29.475
-31.674
-34.871
-38.765
-42.971
-47.053
-50.737
-53.853
-56.319
-58.165
-59.386
-59.958
-59.904
-59.265
-58.074
-56.374
-54.222
-51.696
-48.928
-46.067
-43.215
-40.437
-37.767
-35.222
-32.821
-30.584
-28.522
-26.628
-24.894
-23.317
-21.896
-20.625
-19.484
-18.427
-17.392
-16.308
-15.125
-13.803
-12.317
-10.647
-8.777
-6.694
-4.393
-1.881
0.841
3.777
6.932
10.312
13.918
17.74
21.768
25.985
30.377
34.929
39.623
44.444
49.373
54.395
59.493
64.654
69.86
75.092
80.325
85.536
90.7
95.793
100.789
105.661
110.384
114.932
119.282
123.411
127.298
130.922
134.261
137.299
140.017
142.398
144.429
146.095
147.384
148.287
148.797
148.908
148.617
147.924
146.831
145.34
143.459
141.194
138.554
135.551
132.196
128.505
124.493
120.177
115.577
110.713
105.606
100.281
94.76
89.068
83.228
77.265
71.202
65.063
58.871
52.649
46.42
40.204
34.025
27.903
21.86
15.912
10.079
4.375
-1.185
-6.59
-11.829
-16.897
-21.789
-26.498
-31.023
-35.361
-39.51
-43.472
-47.245
-50.829
-54.226
-57.442
-60.484
-63.364
-66.095
-68.688
-71.158
-73.522
-75.793
-77.984
-80.105
-82.16
-84.153
-86.093
-87.994
-89.874
-91.743
-93.605
-95.463
-97.319
-99.169
-101
-102.785
-104.475
-106.034
-107.441
-108.685
-109.771
-110.699
-111.466
-112.07
-112.518
-112.819
-112.992
-113.039
-112.947
-112.72
-112.386
-112.009
-111.692
-111.504
-111.476
-111.622
-111.938
-112.426
-113.075
-113.842
-114.633
-115.349
-115.903
-116.234
-116.309
-116.07
-115.412
-114.178
-112.185
-109.306
-105.46
-100.59
-94.631
-87.52
-79.229
-69.814
-59.418
-48.207
-36.32
-23.874
-10.974
2.229
15.522
28.637
41.318
53.37
64.622
74.918
84.073
91.884
98.211
103.006
106.306
108.176
108.658
107.779
105.594
102.212
97.796
92.556
86.657
80.217
73.356
66.193
58.881
51.6
44.475
37.57
30.914
24.519
18.416
12.649
7.221
2.096
-2.784
-7.499
-12.086
-16.546
-20.887
-25.114
-29.248
-33.322
-37.337
-41.264
-45.077
-48.749
-52.259
-55.593
-58.718
-61.576
-64.112
-66.266
-68.001
-69.3
-70.144
-70.521
-70.423
-69.845
-68.796
-67.297
-65.365
-63.018
-60.274
-57.155
-53.692
-49.925
-45.895
-41.648
-37.228
-32.676
-28.037
-23.353
-18.664
-14.008
-9.423
-4.945
-0.612
3.533
7.453
11.112
14.473
17.502
20.163
22.424
24.259
25.642
26.541
26.943
26.84
26.22
25.081
23.409
21.179
18.405
15.114
11.283
6.86
1.808
-3.882
-10.123
-16.779
-23.772
-31.111
-38.692
-46.164
-53.291
-60.118
-66.687
-73.316
-79.623
-83.922
-86.216
-87.975
-91.729
-102.029
-118.597
-136.457
-150.605
-154.427
-147.567
-136.628
-126.7
-123.29
-128.145
-136.54
-144.858
-151.558
-156.544
-163.561
-177.257
-196.669
-217.374
-234.141
-239.92
-234.262
-222.623
-208.847
-197.463
-189.46
-181.23
-171.422
-159.836
-146.967
-134.991
-125.405
-117.621
-109.45
-99.506
-86.443
-69.654
-51.177
-28.749
3.905
51.938
121.309
211.206
312.278
415.588
512.081
595.936
666.539
722.271
760.944
780.253
777.587
752.341
705.386
638.888
556.337
461.587
359.329
254.642
151.766
54.721
-32.847
-108.504
-170.493
-217.86
-251.291
-272.384
-282.719
-284.317
-279.269
-269.201
-255.915
-241.085
-225.505
-209.488
-193.5
-177.974
-163.311
-150.124
-138.591
-128.508
-119.889
-112.791
-106.887
-101.563
-96.218
-90.144
-82.997
-74.921
-66.061
-56.657
-47.259
-38.546
-31.064
-25.296
-21.45
-19.415
-19.038
-20.063
-22.092
-24.713
-27.593
-30.479
-33.222
-35.724
-37.895
-39.669
-40.993
-41.864
-42.281
-42.225
-41.692
-40.691
-39.259
-37.474
-35.428
-33.185
-30.807
-28.357
-25.896
-23.524
-21.316
-19.316
-17.568
-16.094
-14.906
-14.021
-13.431
-13.102
-12.998
-13.073
-13.272
-13.557
-13.879
-14.184
-14.416
-14.507
-14.396
-14.042
-13.405
-12.45
-11.149
-9.472
-7.404
-4.939
-2.073
1.2
4.882
8.977
13.484
18.396
23.702
29.389
35.441
41.845
48.582
55.633
62.975
70.585
78.439
86.511
94.773
103.194
111.739
120.37
129.051
137.743
146.406
154.998
163.481
171.812
179.954
187.869
195.518
202.866
209.876
216.515
222.752
228.556
233.899
238.755
243.101
246.916
250.181
252.882
255.004
256.537
257.474
257.809
257.54
256.668
255.197
253.133
250.487
247.27
243.498
239.187
234.359
229.034
223.237
216.994
210.334
203.284
195.875
188.138
180.106
171.811
163.286
154.566
145.683
136.671
127.564
118.395
109.197
100.002
90.841
81.745
72.744
63.865
55.137
46.585
38.233
30.105
22.22
14.6
7.261
0.219
-6.513
-12.922
-18.998
-24.732
-30.12
-35.156
-39.837
-44.163
-48.134
-51.751
-55.02
-57.943
-60.529
-62.783
-64.715
-66.335
-67.652
-68.679
-69.428
-69.913
-70.147
-70.146
-69.925
-69.5
-68.888
-68.105
-67.169
-66.096
-64.903
-63.609
-62.23
-60.783
-59.285
-57.751
-56.198
-54.641
-53.093
-51.57
-50.084
-48.649
-47.275
-45.975
-44.758
-43.634
-42.613
-41.703
-40.911
-40.243
-39.706
-39.303
-39.041
-38.92
-38.944
-39.113
-39.428
-39.888
-40.49
-41.234
-42.114
-43.126
-44.266
-45.527
-46.903
-48.385
-49.967
-51.639
-53.393
-55.22
-57.109
-59.052
-61.038
-63.057
-65.099
-67.153
-69.209
-71.256
-73.284
-75.282
-77.239
-79.146
-80.991
-82.766
-84.461
-86.066
-87.572
-88.971
-90.255
-91.417
-92.45
-93.348
-94.105
-94.716
-95.177
-95.485
-95.636
-95.628
-95.461
-95.132
-94.643
-93.993
-93.182
-92.213
-91.086
-89.805
-88.37
-86.786
-85.054
-83.18
-81.167
-79.022
-76.748
-74.353
-71.842
-69.222
-66.5
-63.683
-60.78
-57.797
-54.743
-51.626
-48.455
-45.241
-41.991
-38.715
-35.423
-32.124
-28.829
-25.547
-22.288
-19.061
-15.876
-12.742
-9.67
-6.671
-3.755
-0.935
1.775
4.362
6.812
9.111
11.247
13.207
14.98
16.555
17.927
19.089
20.033
20.752
21.237
21.483
21.485
21.24
20.748
20.007
19.019
17.788
16.327
14.642
12.736
10.607
8.244
5.638
2.793
-0.283
-3.581
-7.085
-10.777
-14.624
-18.575
-22.579
-26.59
-30.566
-34.479
-38.29
-41.944
-45.375
-48.509
-51.277
-53.647
-55.598
-57.11
-58.186
-58.842
-59.11
-59.095
-58.922
-58.705
-58.584
-58.68
-59.096
-60.015
-61.674
-64.222
-67.715
-72.01
-76.736
-81.553
-86.195
-90.304
-93.464
-95.404
-96.062
-95.913
-96.007
-97.347
-100.66
-106.463
-114.977
-125.958
-138.758
-151.76
-162.113
-166.861
-163.361
-149.184
-123.498
-86.087
-35.775
26.51
100.087
183.823
271.217
356.803
434.356
496.636
543.401
574.714
590.577
593.169
580.479
550.591
503.884
440.788
364.37
278.618
186.977
93.073
0.075
-88.564
-169.319
-239.171
-295.709
-337.932
-365.979
-380.417
-382.254
-373.259
-355.657
-332.178
-305.804
-278.513
-251.698
-226.691
-204.43
-185.582
-170.373
-158.238
-148.086
-139.23
-131.083
-122.885
-114.172
-104.431
-93.323
-81.115
-68.394
-55.726
-43.741
-33.136
-24.288
-17.492
-12.918
-10.39
-9.615
-10.224
-11.701
-13.509
-15.264
-16.707
-17.669
-18.094
-17.911
-17.029
-15.434
-13.151
-10.214
-6.662
-2.531
2.147
7.298
12.787
18.463
24.176
29.781
35.194
40.352
45.203
49.705
53.816
57.513
60.796
63.681
66.18
68.31
70.089
71.546
72.736
73.722
74.571
75.351
76.108
76.875
77.685
78.565
79.541
80.634
81.857
83.217
84.727
86.405
88.264
90.319
92.571
95.013
97.643
100.455
103.448
106.626
109.981
113.501
117.175
120.987
124.91
128.915
132.955
136.973
140.936
144.811
148.576
152.226
155.745
159.123
162.354
165.413
168.281
170.948
173.39
175.596
177.582
179.369
181.011
182.57
184.062
185.487
186.837
188.057
189.091
189.88
190.333
190.403
190.075
189.312
188.096
186.399
184.139
181.234
177.578
173.032
167.51
160.958
153.331
144.658
134.997
124.414
113.018
100.87
87.968
74.346
60.049
45.131
29.715
13.934
-2.06
-18.053
-33.836
-49.237
-64.092
-78.305
-91.836
-104.632
-116.668
-127.884
-138.151
-147.381
-155.521
-162.52
-168.382
-173.134
-176.817
-179.547
-181.488
-182.768
-183.5
-183.758
-183.563
-182.96
-181.997
-180.735
-179.274
-177.696
-176.054
-174.408
-172.805
-171.263
-169.797
-168.366
-166.882
-165.287
-163.547
-161.647
-159.605
-157.427
-155.111
-152.662
-150.082
-147.373
-144.551
-141.621
-138.584
-135.458
-132.269
-129.061
-125.902
-122.844
-119.92
-117.16
-114.58
-112.192
-110.014
-108.05
-106.295
-104.748
-103.405
-102.266
-101.335
-100.608
-100.077
-99.727
-99.541
-99.505
-99.605
-99.83
-100.168
-100.607
-101.138
-101.754
-102.452
-103.225
-104.066
-104.966
-105.916
-106.907
-107.93
-108.978
-110.039
-111.107
-112.173
-113.23
-114.271
-115.291
-116.284
-117.244
-118.168
-119.051
-119.891
-120.684
-121.429
-122.124
-122.768
-123.359
-123.897
-124.382
-124.812
-125.189
-125.51
-125.777
-125.987
-126.14
-126.235
-126.27
-126.243
-126.154
-126.002
-125.784
-125.501
-125.153
-124.739
-124.259
-123.714
-123.105
-122.431
-121.693
-120.891
-120.026
-119.097
-118.105
-117.05
-115.934
-114.758
-113.522
-112.227
-110.874
-109.465
-108.002
-106.486
-104.919
-103.303
-101.641
-99.938
-98.197
-96.422
-94.619
-92.794
-90.952
-89.099
-87.242
-85.387
-83.54
-81.707
-79.894
-78.107
-76.353
-74.639
-72.97
-71.354
-69.802
-68.321
-66.92
-65.607
-64.389
-63.274
-62.267
-61.372
-60.591
-59.925
-59.374
-58.943
-58.634
-58.447
-58.382
-58.435
-58.604
-58.885
-59.271
-59.75
-60.305
-60.923
-61.591
-62.309
-63.08
-63.9
-64.761
-65.649
-66.548
-67.439
-68.295
-69.079
-69.74
-70.226
-70.499
-70.525
-70.283
-69.743
-68.869
-67.614
-65.927
-63.766
-61.116
-57.975
-54.353
-50.281
-45.794
-40.944
-35.84
-30.606
-25.331
-20.1
-14.984
-10.035
-5.386
-1.254
2.247
5.124
7.396
9.198
10.869
12.649
14.835
18.137
22.221
26.487
31.559
37.021
44.134
54.405
64.511
72.195
74.331
68.333
60.311
54.631
53.966
61.084
70.908
83.724
106.179
142.985
201.78
281.998
372.77
464.731
547.818
615.772
669.214
707.377
728.985
733.173
717.837
682.538
628.78
559.425
478.386
389.862
298.369
207.738
121.109
41.667
-28.153
-87.087
-134.289
-169.637
-194.278
-209.436
-216.218
-216.194
-210.468
-199.475
-184.086
-165.315
-143.455
-118.801
-92.022
-63.716
-35.214
-8.648
14.654
34.087
48.912
58.716
63.611
63.912
60.835
56.457
52.125
48.493
46.141
45.252
45.793
47.712
50.345
52.533
53.652
53.524
52.135
49.794
46.767
43.203
39.514
36.261
33.782
32.253
31.708
32.004
33.049
34.807
37.167
39.998
43.165
46.519
49.949
53.372
56.713
59.908
62.902
65.635
68.08
70.228
72.087
73.683
75.035
76.16
77.083
77.834
78.454
78.999
79.526
80.1
80.775
81.595
82.602
83.836
85.327
87.099
89.161
91.518
94.178
97.159
100.48
104.158
108.193
112.579
117.305
122.35
127.695
133.306
139.134
145.135
151.266
157.49
163.792
170.161
176.576
183.014
189.445
195.854
202.251
208.654
215.069
221.511
227.992
234.543
241.233
248.115
255.218
262.555
270.093
277.784
285.586
293.444
301.283
309.007
316.474
323.525
330.037
335.887
340.955
345.11
348.175
349.997
350.477
349.54
347.165
343.362
338.137
331.524
323.609
314.505
304.372
293.403
281.745
269.536
256.92
244.043
231.087
218.22
205.559
193.199
181.208
169.635
158.533
147.94
137.841
128.206
118.976
110.07
101.444
93.069
84.908
76.933
69.098
61.366
53.726
46.183
38.741
31.404
24.173
17.047
10.052
3.219
-3.417
-9.815
-15.952
-21.818
-27.402
-32.698
-37.705
-42.425
-46.869
-51.058
-55.006
-58.726
-62.228
-65.519
-68.612
-71.525
-74.272
-76.866
-79.319
-81.638
-83.833
-85.908
-87.868
-89.714
-91.446
-93.059
-94.554
-95.931
-97.189
-98.329
-99.351
-100.256
-101.043
-101.713
-102.266
-102.702
-103.02
-103.219
-103.299
-103.261
-103.106
-102.837
-102.455
-101.966
-101.374
-100.684
-99.902
-99.035
-98.091
-97.077
-96.003
-94.877
-93.71
-92.511
-91.291
-90.059
-88.827
-87.603
-86.398
-85.22
-84.077
-82.977
-81.927
-80.932
-79.997
-79.127
-78.325
-77.593
-76.932
-76.343
-75.824
-75.373
-74.986
-74.658
-74.383
-74.153
-73.959
-73.793
-73.642
-73.497
-73.344
-73.17
-72.963
-72.708
-72.393
-72.003
-71.526
-70.947
-70.256
-69.44
-68.489
-67.394
-66.146
-64.737
-63.162
-61.415
-59.493
-57.392
-55.113
-52.656
-50.025
-47.222
-44.255
-41.13
-37.858
-34.448
-30.914
-27.269
-23.528
-19.708
-15.827
-11.902
-7.956
-4.008
-0.079
3.807
7.63
11.366
14.993
18.488
21.831
25
27.976
30.738
33.267
35.546
37.557
39.282
40.705
41.808
42.577
42.999
43.063
42.758
42.077
41.016
39.574
37.755
35.559
32.991
30.052
26.747
23.085
19.075
14.73
10.063
5.089
-0.17
-5.687
-11.436
-17.394
-23.547
-29.89
-36.411
-43.09
-49.904
-56.826
-63.819
-70.851
-77.872
-84.813
-91.617
-98.225
-104.595
-110.7
-116.502
-121.951
-126.993
-131.555
-135.586
-139.059
-141.948
-144.25
-145.989
-147.203
-147.964
-148.377
-148.542
-148.56
-148.532
-148.543
-148.705
-149.124
-149.947
-151.389
-153.524
-156.319
-159.651
-163.149
-166.404
-169.103
-170.778
-170.87
-169.239
-165.952
-161.305
-156.452
-152.576
-150.298
-150.434
-152.954
-156.218
-159.576
-162.508
-164.104
-165.312
-163.692
-153.233
-128.36
-82.764
-16.4
63.643
149.614
232.77
308.476
376.693
435.628
483.259
516.96
532.843
529.926
509.061
470.789
416.928
350.095
272.86
188.845
102.225
16.011
-67.008
-143.508
-211.033
-267.616
-311.509
-342.528
-361.552
-369.274
-367.017
-356.783
-340.143
-319.186
-296.387
-273.242
-250.838
-230.149
-211.448
-194.877
-180.947
-169.371
-159.361
-150.439
-141.915
-133.392
-125.03
-116.712
-108.09
-99.326
-90.823
-83.054
-76.788
-72.378
-69.74
-68.923
-69.952
-72.662
-76.803
-81.905
-87.308
-92.568
-97.448
-101.754
-105.351
-108.096
-109.841
-110.552
-110.276
-109.061
-106.946
-103.959
-100.127
-95.531
-90.301
-84.587
-78.545
-72.315
-66.003
-59.688
-53.445
-47.336
-41.407
-35.684
-30.176
-24.877
-19.784
-14.897
-10.208
-5.7
-1.341
2.91
7.098
11.27
15.459
19.684
23.958
28.288
32.673
37.11
41.584
46.078
50.577
55.071
59.55
64.005
68.424
72.792
77.092
81.307
85.422
89.425
93.302
97.044
100.642
104.088
107.376
110.505
113.47
116.265
118.886
121.325
123.579
125.643
127.516
129.192
130.672
131.953
133.039
133.931
134.631
135.144
135.473
135.622
135.595
135.397
135.032
134.505
133.822
132.985
132.001
130.874
129.608
128.209
126.679
125.023
123.242
121.341
119.32
117.182
114.927
112.556
110.068
107.464
104.741
101.899
98.933
95.842
92.62
89.265
85.77
82.131
78.341
74.395
70.287
66.013
61.565
56.941
52.136
47.146
41.97
36.607
31.055
25.316
19.393
13.288
7.007
0.557
-6.056
-12.822
-19.73
-26.768
-33.923
-41.178
-48.518
-55.925
-63.378
-70.856
-78.338
-85.799
-93.215
-100.56
-107.807
-114.929
-121.899
-128.687
-135.266
-141.608
-147.682
-153.463
-158.923
-164.036
-168.777
-173.121
-177.048
-180.537
-183.569
-186.128
-188.2
-189.772
-190.834
-191.38
-191.404
-190.903
-189.878
-188.333
-186.271
-183.703
-180.639
-177.093
-173.081
-168.622
-163.738
-158.454
-152.794
-146.787
-140.463
-133.856
-126.998
-119.925
-112.673
-105.281
-97.786
-90.227
-82.644
-75.074
-67.556
-60.128
-52.826
-45.687
-38.745
-32.034
-25.585
-19.428
-13.591
-8.101
-2.98
1.749
6.069
9.963
13.419
16.424
18.972
21.058
22.679
23.836
24.532
24.774
24.571
23.935
22.88
21.424
19.587
17.39
14.857
12.014
8.889
5.509
1.905
-1.894
-5.855
-9.947
-14.138
-18.394
-22.683
-26.973
-31.231
-35.426
-39.527
-43.504
-47.331
-50.98
-54.426
-57.646
-60.616
-63.318
-65.733
-67.845
-69.64
-71.107
-72.237
-73.024
-73.466
-73.56
-73.308
-72.714
-71.786
-70.532
-68.964
-67.094
-64.937
-62.511
-59.834
-56.927
-53.813
-50.516
-47.062
-43.482
-39.804
-36.06
-32.281
-28.498
-24.743
-21.046
-17.438
-13.945
-10.593
-7.409
-4.417
-1.647
0.878
3.136
5.109
6.778
8.13
9.152
9.836
10.186
10.202
9.886
9.232
8.229
6.869
5.158
3.104
0.721
-1.967
-4.938
-8.153
-11.552
-15.081
-18.682
-22.308
-25.927
-29.498
-32.966
-36.261
-39.303
-42.014
-44.348
-46.269
-47.75
-48.778
-49.367
-49.554
-49.415
-49.042
-48.525
-47.943
-47.371
-46.896
-46.612
-46.675
-47.316
-48.668
-50.718
-53.334
-56.231
-59.083
-61.619
-63.432
-63.945
-62.803
-60.029
-56.022
-51.556
-47.612
-45.035
-44.391
-46.356
-50.487
-54.805
-58.106
-59.153
-57.315
-54.072
-46.918
-29.94
2.298
56.195
131.098
218.968
312.031
401.512
482.708
555.919
619.617
671.861
710.325
731.274
733.06
715.948
680.318
627.615
560.159
480.461
391.643
297.573
202.022
108.398
20.329
-59.085
-127.701
-183.834
-226.615
-256.511
-274.666
-282.416
-281.632
-274.076
-261.086
-244.309
-225.264
-204.594
-182.689
-160.041
-137.019
-114.474
-93.508
-74.477
-57.507
-43.072
-31.412
-22.566
-16.328
-11.664
-7.499
-3.453
0.656
4.968
9.422
14.028
18.549
22.2
24.39
24.945
23.883
21.501
18.132
13.98
9.411
4.933
0.927
-2.33
-4.705
-6.245
-6.982
-6.928
-6.142
-4.695
-2.686
-0.234
2.562
5.601
8.777
11.985
15.091
17.984
20.587
22.833
24.687
26.146
27.197
27.847
28.121
28.036
27.626
26.941
26.02
24.917
23.692
22.411
21.151
19.982
18.959
18.129
17.526
17.179
17.12
17.376
17.969
18.919
20.236
21.927
23.999
26.45
29.264
32.414
35.857
39.557
43.482
47.604
51.905
56.358
60.937
65.623
70.392
75.234
80.155
85.164
90.275
95.532
100.972
106.65
112.645
119.001
125.751
132.915
140.482
148.444
156.778
165.428
174.331
183.407
192.531
201.573
210.383
218.758
226.515
233.461
239.38
244.11
247.517
249.481
249.931
248.816
246.105
241.821
236.009
228.733
220.108
210.268
199.381
187.672
175.352
162.618
149.695
136.756
123.955
111.441
99.32
87.677
76.586
66.088
56.203
46.956
38.334
30.306
22.823
15.794
9.148
2.832
-3.216
-9.031
-14.636
-20.057
-25.297
-30.339
-35.173
-39.782
-44.146
-48.254
-52.086
-55.612
-58.803
-61.618
-64.028
-66.02
-67.586
-68.726
-69.451
-69.77
-69.708
-69.298
-68.57
-67.552
-66.275
-64.763
-63.045
-61.151
-59.114
-56.964
-54.732
-52.444
-50.126
-47.8
-45.489
-43.214
-40.991
-38.834
-36.758
-34.776
-32.904
-31.155
-29.539
-28.068
-26.748
-25.589
-24.595
-23.769
-23.113
-22.625
-22.304
-22.148
-22.151
-22.308
-22.614
-23.061
-23.641
-24.346
-25.168
-26.096
-27.122
-28.234
-29.423
-30.678
-31.989
-33.346
-34.739
-36.157
-37.591
-39.03
-40.466
-41.888
-43.289
-44.658
-45.989
-47.273
-48.503
-49.674
-50.777
-51.81
-52.766
-53.642
-54.436
-55.142
-55.76
-56.287
-56.721
-57.061
-57.305
-57.451
-57.5
-57.45
-57.303
-57.058
-56.715
-56.277
-55.743
-55.114
-54.393
-53.58
-52.677
-51.686
-50.608
-49.446
-48.204
-46.883
-45.487
-44.019
-42.482
-40.88
-39.217
-37.497
-35.724
-33.903
-32.039
-30.139
-28.208
-26.254
-24.286
-22.312
-20.345
-18.395
-16.473
-14.592
-12.764
-11
-9.312
-7.708
-6.199
-4.793
-3.5
-2.331
-1.297
-0.41
0.319
0.88
1.265
1.464
1.472
1.289
0.914
0.349
-0.41
-1.375
-2.556
-3.956
-5.575
-7.408
-9.443
-11.662
-14.032
-16.503
-19.027
-21.555
-24.046
-26.47
-28.798
-30.996
-33.021
-34.815
-36.331
-37.532
-38.392
-38.892
-39.032
-38.842
-38.395
-37.808
-37.191
-36.631
-36.212
-36
-36.081
-36.555
-37.528
-39.093
-41.372
-44.517
-48.56
-53.449
-59.012
-64.809
-70.326
-75.1
-78.567
-80.144
-79.65
-77.104
-72.72
-67.559
-62.817
-59.142
-57.411
-57.614
-58.079
-58.285
-57.949
-56.44
-54.978
-51.046
-38.314
-10.877
37.951
108.326
193.017
284.129
372.553
453.358
526.453
589.824
641.146
677.431
694.131
690.467
668.64
629.182
573.213
501.373
412.117
310.146
204.525
103.392
16.642
-52.678
-108.96
-155.615
-196.818
-233.486
-262.009
-280.467
-288.33
-286.783
-278.78
-266.56
-251.893
-235.8
-218.711
-201.558
-184.943
-169.229
-155.187
-143
-132.22
-122.672
-113.901
-105.068
-95.884
-86.093
-75.062
-62.661
-49.182
-34.886
-20.489
-6.978
5.186
15.678
24.102
30.413
34.686
36.997
37.742
37.451
36.422
34.867
32.943
30.673
28.157
25.566
23.025
20.642
18.504
16.666
15.18
14.11
13.472
13.243
13.362
13.733
14.287
14.983
15.798
16.703
17.642
18.531
19.261
19.745
19.93
19.777
19.266
18.385
17.135
15.542
13.663
11.563
9.298
6.912
4.441
1.926
-0.577
-3
-5.269
-7.323
-9.114
-10.598
-11.737
-12.498
-12.853
-12.789
-12.306
-11.403
-10.077
-8.326
-6.145
-3.534
-0.503
2.938
6.776
10.996
15.584
20.52
25.784
31.353
37.203
43.311
49.652
56.199
62.919
69.78
76.745
83.777
90.838
97.89
104.891
111.803
118.586
125.202
131.614
137.786
143.681
149.266
154.509
159.379
163.848
167.891
171.484
174.606
177.24
179.369
180.981
182.065
182.613
182.622
182.088
181.013
179.4
177.255
174.586
171.406
167.727
163.567
158.944
153.879
148.395
142.517
136.272
129.689
122.797
115.627
108.209
100.576
92.761
84.796
76.713
68.546
60.325
52.083
43.85
35.655
27.527
19.492
11.577
3.806
-3.799
-11.215
-18.423
-25.406
-32.146
-38.629
-44.842
-50.773
-56.413
-61.755
-66.793
-71.523
-75.942
-80.051
-83.851
-87.344
-90.536
-93.431
-96.039
-98.366
-100.422
-102.22
-103.769
-105.083
-106.174
-107.057
-107.745
-108.253
-108.595
-108.785
-108.839
-108.77
-108.593
-108.324
-107.975
-107.561
-107.097
-106.597
-106.073
-105.539
-105.009
-104.495
-104.008
-103.561
-103.165
-102.83
-102.566
-102.384
-102.291
-102.297
-102.41
-102.636
-102.982
-103.456
-104.062
-104.804
-105.689
-106.718
-107.896
-109.225
-110.707
-112.345
-114.138
-116.09
-118.198
-120.463
-122.884
-125.457
-128.181
-131.052
-134.064
-137.213
-140.493
-143.896
-147.415
-151.041
-154.766
-158.581
-162.473
-166.433
-170.446
-174.502
-178.585
-182.682
-186.778
-190.856
-194.902
-198.898
-202.828
-206.678
-210.428
-214.063
-217.566
-220.919
-224.108
-227.114
-229.922
-232.516
-234.883
-237.007
-238.877
-240.482
-241.81
-242.853
-243.603
-244.054
-244.201
-244.04
-243.569
-242.787
-241.696
-240.298
-238.6
-236.608
-234.331
-231.782
-228.977
-225.933
-222.669
-219.205
-215.562
-211.762
-207.828
-203.782
-199.645
-195.437
-191.183
-186.907
-182.636
-178.397
-174.212
-170.105
-166.098
-162.213
-158.472
-154.887
-151.469
-148.231
-145.187
-142.361
-139.785
-137.481
-135.462
-133.737
-132.308
-131.175
-130.331
-129.752
-129.395
-129.217
-129.182
-129.261
-129.436
-129.676
-129.931
-130.145
-130.247
-130.183
-129.932
-129.475
-128.794
-127.899
-126.805
-125.556
-124.267
-123.037
-121.948
-121.097
-120.558
-120.424
-120.863
-122.076
-124.178
-127.188
-130.994
-135.324
-139.885
-144.363
-148.315
-151.226
-152.779
-152.886
-151.767
-150.164
-149.032
-149.234
-151.634
-156.197
-161.69
-166.963
-171.145
-174.963
-180.122
-185.967
-188.829
-180.99
-153.584
-101.833
-25.806
68.464
171.124
272.233
362.242
434.486
486.039
517.695
534.138
539.352
535.02
520.186
490.642
444.058
381.585
306.129
222.612
135.912
49.014
-35.295
-113.488
-182.492
-239.604
-282.547
-310.958
-325.892
-328.219
-319.271
-301.13
-275.516
-244.561
-210.904
-176.003
-140.424
-104.841
-69.699
-35.507
-3.561
25.25
50.925
73.216
91.709
106.15
116.29
122.393
125.731
127.668
128.895
129.898
131.018
132.449
134.427
136.927
139.338
140.854
141.09
139.95
137.546
134.168
130.064
125.491
120.877
116.715
113.3
110.757
109.097
108.212
108.019
108.454
109.398
110.71
112.279
114.014
115.841
117.695
119.464
121.041
122.352
123.35
124.021
124.364
124.379
124.084
123.524
122.754
121.827
120.79
119.68
118.54
117.421
116.385
115.5
114.822
114.391
114.243
114.402
114.889
115.723
116.908
118.437
120.305
122.507
125.042
127.91
131.107
134.619
138.434
142.535
146.905
151.529
156.388
161.461
166.726
172.16
177.742
183.45
189.259
195.139
201.061
206.992
212.9
218.751
224.51
230.144
235.617
240.895
245.947
250.741
255.246
259.433
263.272
266.739
269.808
272.455
274.659
276.401
277.664
278.433
278.696
278.443
277.666
276.361
274.525
272.158
269.263
265.845
261.913
257.475
252.545
247.138
241.272
234.966
228.243
221.126
213.641
205.815
197.678
189.258
180.586
171.693
162.611
153.372
144.008
134.55
125.03
115.48
105.93
96.41
86.951
77.58
68.325
59.211
50.264
41.506
32.959
24.644
16.578
8.779
1.26
-5.964
-12.883
-19.489
-25.774
-31.733
-37.363
-42.664
-47.636
-52.281
-56.605
-60.613
-64.312
-67.711
-70.819
-73.646
-76.205
-78.506
-80.563
-82.389
-83.997
-85.402
-86.617
-87.656
-88.534
-89.264
-89.86
-90.336
-90.704
-90.978
-91.169
-91.289
-91.35
-91.361
-91.333
-91.274
-91.193
-91.097
-90.992
-90.886
-90.781
-90.682
-90.594
-90.517
-90.456
-90.411
-90.383
-90.374
-90.383
-90.412
-90.46
-90.527
-90.614
-90.718
-90.841
-90.983
-91.142
-91.319
-91.514
-91.727
-91.957
-92.205
-92.472
-92.757
-93.061
-93.384
-93.728
-94.093
-94.479
-94.888
-95.32
-95.776
-96.257
-96.764
-97.297
-97.857
-98.443
-99.057
-99.697
-100.362
-101.053
-101.768
-102.504
-103.259
-104.031
-104.815
-105.608
-106.404
-107.199
-107.986
-108.76
-109.514
-110.241
-110.935
-111.586
-112.189
-112.733
-113.213
-113.619
-113.943
-114.178
-114.314
-114.345
-114.264
-114.064
-113.739
-113.283
-112.692
-111.962
-111.089
-110.072
-108.909
-107.598
-106.142
-104.543
-102.803
-100.927
-98.921
-96.793
-94.554
-92.217
-89.794
-87.301
-84.752
-82.164
-79.553
-76.937
-74.329
-71.745
-69.2
-66.711
-64.299
-61.982
-59.778
-57.704
-55.774
-54.006
-52.415
-51.01
-49.796
-48.779
-47.966
-47.372
-47.02
-46.927
-47.102
-47.552
-48.274
-49.264
-50.511
-51.99
-53.659
-55.481
-57.416
-59.435
-61.52
-63.639
-65.749
-67.801
-69.727
-71.477
-73.016
-74.32
-75.392
-76.257
-76.955
-77.551
-78.125
-78.751
-79.528
-80.508
-81.696
-83.157
-84.963
-87.244
-90.248
-94.106
-98.764
-104.209
-110.432
-117.067
-123.587
-129.496
-133.947
-137.044
-140.142
-143.166
-145.489
-145.725
-140.665
-130.951
-120.37
-113.354
-115.783
-129.038
-150.199
-173.82
-191.592
-195.713
-178.888
-136.772
-69.407
19.032
120.429
225.232
324.08
410.345
478.794
527.399
558.269
572.488
572.046
557.651
526.314
477.252
411.962
333.346
246.847
157.566
68.737
-16.858
-96.56
-168.231
-230.026
-280.402
-318.747
-345.208
-359.816
-362.947
-355.375
-337.542
-310.404
-275.623
-234.918
-190.074
-142.92
-95.092
-48.391
-5.229
32.425
63.61
88.058
106.138
118.408
125.473
128.404
129.044
129.267
130.234
132.474
135.953
140.454
145.746
151.343
156.369
159.876
161.357
160.742
158.288
154.42
149.569
144.244
139.031
134.509
131.037
128.747
127.649
127.665
128.716
130.725
133.57
137.094
141.171
145.707
150.608
155.782
161.093
166.351
171.417
176.193
180.612
184.645
188.268
191.456
194.215
196.583
198.595
200.286
201.686
202.809
203.69
204.373
204.913
205.373
205.798
206.217
206.652
207.113
207.61
208.146
208.715
209.3
209.888
210.472
211.05
211.623
212.187
212.733
213.254
213.743
214.192
214.6
214.96
215.268
215.521
215.717
215.856
215.939
215.964
215.928
215.826
215.653
215.404
215.075
214.661
214.155
213.554
212.854
212.052
211.146
210.134
209.014
207.783
206.442
204.988
203.42
201.739
199.942
198.031
196.005
193.865
191.612
189.245
186.767
184.179
181.483
178.68
175.773
172.765
169.658
166.455
163.16
159.776
156.306
152.752
149.12
145.41
141.627
137.773
133.851
129.862
125.809
121.693
117.516
113.279
108.983
104.631
100.223
95.761
91.247
86.683
82.07
77.41
72.706
67.959
63.172
58.348
53.49
48.6
43.682
38.739
33.775
28.794
23.801
18.8
13.797
8.798
3.809
-1.164
-6.113
-11.029
-15.905
-20.733
-25.501
-30.202
-34.825
-39.36
-43.796
-48.123
-52.329
-56.405
-60.339
-64.12
-67.738
-71.184
-74.446
-77.516
-80.383
-83.04
-85.478
-87.689
-89.665
-91.402
-92.892
-94.131
-95.116
-95.844
-96.312
-96.521
-96.472
-96.165
-95.605
-94.795
-93.742
-92.453
-90.935
-89.198
-87.254
-85.113
-82.789
-80.296
-77.649
-74.864
-71.958
-68.948
-65.851
-62.688
-59.477
-56.239
-52.992
-49.758
-46.556
-43.408
-40.334
-37.354
-34.488
-31.755
-29.175
-26.765
-24.543
-22.525
-20.727
-19.163
-17.846
-16.787
-15.997
-15.485
-15.257
-15.319
-15.676
-16.33
-17.281
-18.529
-20.072
-21.905
-24.024
-26.42
-29.085
-32.008
-35.178
-38.58
-42.2
-46.021
-50.026
-54.196
-58.512
-62.953
-67.499
-72.126
-76.814
-81.539
-86.278
-91.008
-95.707
-100.352
-104.92
-109.391
-113.744
-117.959
-122.018
-125.902
-129.596
-133.085
-136.354
-139.391
-142.184
-144.727
-147.01
-149.03
-150.783
-152.268
-153.487
-154.447
-155.156
-155.621
-155.856
-155.874
-155.689
-155.319
-154.78
-154.089
-153.262
-152.32
-151.281
-150.17
-149.009
-147.823
-146.633
-145.465
-144.34
-143.28
-142.306
-141.429
-140.664
-140.026
-139.535
-139.218
-139.101
-139.202
-139.532
-140.102
-140.908
-141.943
-143.186
-144.595
-146.129
-147.747
-149.413
-151.106
-152.796
-154.446
-156.014
-157.438
-158.664
-159.656
-160.38
-160.814
-160.97
-160.883
-160.623
-160.309
-160.035
-159.903
-160.021
-160.481
-161.384
-162.832
-164.903
-167.719
-171.458
-176.204
-181.926
-188.465
-195.462
-202.529
-209.292
-215.208
-219.644
-222.151
-222.62
-221.356
-218.995
-216.301
-214.019
-212.905
-213.823
-216.542
-219.355
-220.297
-217.699
-211.998
-205.151
-196.779
-182.472
-153.679
-102.106
-25.349
71.569
176.944
278.988
370.221
446.637
507.994
553.9
581.986
590.322
577.487
543.247
489.333
419.048
336.271
245.207
150.437
55.602
-36.296
-122.042
-198.935
-265.02
-318.788
-359.738
-388.376
-405.111
-410.384
-405.134
-390.777
-369.267
-342.831
-313.386
-282.43
-251.416
-222.091
-196.347
-175.3
-159.16
-147.582
-139.852
-135.316
-133.376
-132.876
-132.151
-130.104
-126.3
-120.757
-114.007
-106.546
-98.717
-91.201
-84.975
-80.657
-78.481
-78.407
-80.035
-82.953
-86.867
-91.35
-95.879
-100.097
-103.774
-106.765
-109.06
-110.649
-111.494
-111.611
-111.048
-109.835
-108.026
-105.675
-102.832
-99.585
-96.029
-92.256
-88.374
-84.46
-80.566
-76.74
-73.021
-69.427
-65.974
-62.665
-59.482
-56.411
-53.434
-50.52
-47.639
-44.748
-41.801
-38.751
-35.54
-32.129
-28.487
-24.593
-20.43
-15.991
-11.267
-6.26
-0.981
4.562
10.362
16.408
22.69
29.195
35.903
42.79
49.833
57.005
64.283
71.64
79.051
86.489
93.927
101.339
108.7
115.982
123.156
130.19
137.053
143.714
150.142
156.305
162.174
167.72
172.913
177.73
182.145
186.136
189.68
192.759
195.354
197.45
199.032
200.091
200.615
200.6
200.041
198.938
197.293
195.111
192.398
189.166
185.427
181.196
176.491
171.332
165.741
159.744
153.365
146.634
139.58
132.234
124.629
116.796
108.771
100.587
92.279
83.882
75.431
66.96
58.504
50.096
41.772
33.562
25.5
17.614
9.936
2.491
-4.692
-11.592
-18.184
-24.451
-30.373
-35.937
-41.129
-45.94
-50.361
-54.388
-58.019
-61.254
-64.093
-66.543
-68.609
-70.299
-71.623
-72.594
-73.224
-73.528
-73.523
-73.225
-72.654
-71.828
-70.769
-69.496
-68.033
-66.4
-64.619
-62.714
-60.707
-58.619
-56.472
-54.287
-52.084
-49.883
-47.701
-45.556
-43.462
-41.434
-39.484
-37.623
-35.86
-34.202
-32.656
-31.227
-29.918
-28.732
-27.669
-26.73
-25.912
-25.214
-24.632
-24.162
-23.799
-23.536
-23.368
-23.287
-23.285
-23.354
-23.487
-23.673
-23.904
-24.17
-24.464
-24.775
-25.094
-25.414
-25.726
-26.024
-26.3
-26.55
-26.767
-26.949
-27.091
-27.192
-27.248
-27.258
-27.222
-27.14
-27.01
-26.836
-26.617
-26.356
-26.054
-25.714
-25.339
-24.93
-24.491
-24.025
-23.533
-23.019
-22.484
-21.933
-21.367
-20.789
-20.203
-19.609
-19.009
-18.406
-17.799
-17.19
-16.575
-15.956
-15.328
-14.691
-14.041
-13.377
-12.694
-11.988
-11.257
-10.495
-9.7
-8.866
-7.989
-7.063
-6.085
-5.051
-3.957
-2.799
-1.575
-0.283
1.08
2.513
4.019
5.596
7.246
8.969
10.762
12.625
14.553
16.544
18.59
20.685
22.817
24.975
27.147
29.32
31.483
33.621
35.722
37.775
39.77
41.699
43.551
45.313
46.97
48.511
49.925
51.204
52.339
53.321
54.143
54.803
55.305
55.65
55.834
55.843
55.657
55.263
54.657
53.841
52.821
51.605
50.208
48.663
47.023
45.339
43.658
42.016
40.434
38.95
37.617
36.498
35.667
35.175
35.043
35.283
35.909
36.902
38.236
39.855
41.63
43.428
45.128
46.604
47.762
48.516
48.693
48.059
46.464
43.905
40.549
36.713
32.67
28.635
24.955
22.154
20.637
20.439
21.157
22.059
22.356
21.411
18.686
13.529
6.424
-0.634
-5.609
-6.831
-4.871
-2.194
1.481
10.764
34.229
80.721
152.703
244.519
344.514
440.748
525.989
597.687
656.331
701.928
732.456
745.236
738.207
711.042
665.006
602.707
527.54
442.97
353.026
261.747
172.392
88.044
11.397
-55.71
-111.737
-155.707
-187.927
-209.165
-220.173
-222.004
-215.734
-202.639
-184.57
-163.332
-140.104
-115.845
-91.592
-68.577
-48.088
-30.832
-16.824
-5.712
2.845
9.13
13.726
17.741
22.338
28.231
35.682
44.5
54.328
64.852
75.512
85.471
94.043
100.834
105.752
109.029
111.004
112.007
112.465
112.846
113.477
114.537
116.075
118.049
120.419
123.185
126.352
129.893
133.775
137.977
142.466
147.198
152.097
157.03
161.842
166.426
170.715
174.676
178.313
181.621
184.593
187.237
189.558
191.556
193.242
194.621
195.701
196.51
197.092
197.51
197.847
198.171
198.527
198.957
199.484
200.131
200.923
201.871
202.981
204.263
205.728
207.39
209.265
211.362
213.682
216.221
218.969
221.914
225.047
228.354
231.823
235.441
239.191
243.061
247.039
251.108
255.25
259.442
263.66
267.878
272.072
276.215
280.277
284.231
288.051
291.709
295.181
298.442
301.467
304.234
306.722
308.909
310.777
312.308
313.486
314.299
314.733
314.78
314.433
313.686
312.538
310.987
309.035
306.686
303.946
300.824
297.327
293.468
289.261
284.722
279.868
274.718
269.293
263.615
257.707
251.595
245.302
238.854
232.277
225.596
218.838
212.027
205.19
198.352
191.537
184.77
178.073
171.469
164.978
158.622
152.418
146.385
140.539
134.894
129.464
124.261
119.295
114.575
110.108
105.899
101.951
98.268
94.848
91.691
88.794
86.152
83.761
81.612
79.699
78.012
76.541
75.276
74.205
73.315
72.595
72.032
71.612
71.323
71.152
71.085
71.108
71.21
71.378
71.598
71.859
72.148
72.456
72.77
73.08
73.378
73.654
73.901
74.11
74.276
74.391
74.452
74.453
74.39
74.26
74.062
73.792
73.449
73.032
72.54
71.973
71.331
70.614
69.821
68.954
68.012
66.996
65.907
64.745
63.511
62.206
60.831
59.387
57.873
56.292
54.643
52.927
51.146
49.301
47.39
45.417
43.382
41.285
39.129
36.914
34.642
32.314
29.933
27.501
25.021
22.495
19.926
17.32
14.68
12.01
9.317
6.606
3.882
1.152
-1.579
-4.302
-7.01
-9.698
-12.356
-14.977
-17.551
-20.072
-22.53
-24.918
-27.228
-29.453
-31.584
-33.614
-35.538
-37.349
-39.042
-40.611
-42.052
-43.362
-44.538
-45.58
-46.486
-47.257
-47.896
-48.406
-48.79
-49.056
-49.209
-49.257
-49.209
-49.074
-48.863
-48.589
-48.264
-47.903
-47.522
-47.142
-46.78
-46.457
-46.194
-46.011
-45.929
-45.969
-46.148
-46.483
-46.99
-47.683
-48.582
-49.703
-51.06
-52.667
-54.535
-56.673
-59.091
-61.795
-64.786
-68.056
-71.603
-75.426
-79.531
-83.929
-88.627
-93.618
-98.893
-104.441
-110.244
-116.279
-122.505
-128.866
-135.303
-141.764
-148.207
-154.6
-160.898
-167.038
-172.948
-178.548
-183.778
-188.608
-193.012
-196.964
-200.466
-203.536
-206.22
-208.637
-210.9
-213.102
-215.343
-217.707
-220.285
-223.252
-226.845
-231.209
-236.365
-242.205
-248.477
-254.932
-261.33
-267.277
-272.217
-275.709
-277.636
-278.286
-278.303
-278.509
-279.718
-282.507
-287.564
-294.715
-302.353
-309.534
-315.287
-319.047
-322.086
-321.912
-312.508
-288.69
-244.284
-178.675
-99.062
-10.956
79.133
164.314
243.317
311.426
362.617
397.061
413.107
410.693
393.003
358.037
304.752
235.241
151.05
56.334
-43.739
-145.767
-246.516
-342.007
-428.612
-503.314
-563.672
-608.809
-639.143
-655.112
-657.355
-647.758
-628.9
-603.788
-575.572
-546.336
-517.465
-490.526
-467.263
-448.878
-435.695
-427.118
-422.046
-419.842
-420.076
-422.012
-424.435
-425.957
-425.818
-424.04
-421.092
-417.4
-413.24
-408.937
-405.128
-402.706
-402.173
-403.576
-406.669
-411.015
-416.276
-422.194
-428.375
-434.343
-439.758
-444.41
-448.201
-451.171
-453.33
-454.662
-455.203
-455.006
-454.141
-452.7
-450.772
-448.452
-445.84
-443.045
-440.188
-437.366
-434.651
-432.104
-429.771
-427.678
-425.848
-424.292
-423.004
-421.979
-421.206
-420.661
-420.316
-420.134
-420.07
-420.078
-420.104
-420.103
-420.046
-419.907
-419.67
-419.323
-418.858
-418.27
-417.565
-416.745
-415.809
-414.759
-413.597
-412.327
-410.96
-409.506
-407.98
-406.396
-404.769
-403.11
-401.436
-399.758
-398.093
-396.453
-394.852
-393.306
-391.832
-390.449
-389.177
-388.037
-387.048
-386.23
-385.602
-385.185
-384.995
-385.048
-385.361
-385.947
-386.82
-387.992
-389.475
-391.278
-393.408
-395.872
-398.673
-401.812
-405.289
-409.102
-413.243
-417.708
-422.485
-427.564
-432.931
-438.571
-444.467
-450.599
-456.948
-463.489
-470.201
-477.06
-484.041
-491.119
-498.269
-505.464
-512.682
-519.898
-527.087
-534.223
-541.282
-548.237
-555.063
-561.734
-568.222
-574.5
-580.544
-586.333
-591.849
-597.074
-601.995
-606.597
-610.873
-614.813
-618.41
-621.656
-624.54
-627.05
-629.182
-630.931
-632.298
-633.289
-633.901
-634.128
-633.964
-633.398
-632.412
-630.98
-629.063
-626.621
-623.631
-620.079
-615.96
-611.29
-606.075
-600.328
-594.067
-587.289
-579.998
-572.206
-563.905
-555.102
-545.827
-536.116
-526.035
-515.663
-505.03
-494.148
-483.02
-471.606
-459.866
-447.751
-435.182
-422.115
-408.534
-394.409
-379.744
-364.533
-348.725
-332.278
-315.113
-297.118
-278.247
-258.466
-237.738
-216.084
-193.536
-170.126
-145.951
-121.07
-95.489
-69.247
-42.365
-14.868
13.151
41.605
70.376
99.279
128.159
156.86
185.182
212.965
240.049
266.241
291.416
315.429
338.08
359.215
378.687
396.348
412.119
425.931
437.73
447.54
455.398
461.353
465.516
467.999
468.93
468.496
466.843
464.112
460.486
456.106
451.103
445.615
439.74
433.559
427.16
420.587
413.868
407.033
400.075
392.974
385.698
378.177
370.366
362.241
353.771
344.951
335.792
326.299
316.503
306.453
296.188
285.757
275.218
264.62
254.025
243.504
233.132
222.997
213.177
203.731
194.713
186.163
178.114
170.592
163.613
157.174
151.279
145.93
141.13
136.889
133.209
130.09
127.528
125.517
124.05
123.123
122.728
122.851
123.478
124.599
126.211
128.323
130.935
134.037
137.612
141.637
146.085
150.93
156.128
161.619
167.344
173.249
179.302
185.501
191.847
198.329
204.939
211.653
218.466
225.402
232.483
239.725
247.149
254.781
262.697
271.019
279.87
289.362
299.559
310.461
322.063
334.357
347.303
360.877
375.016
389.537
404.283
419.131
433.927
448.556
462.872
476.544
489.209
500.708
510.921
519.575
526.522
531.58
534.249
535.25
535.438
533.978
530.989
524.839
513.436
499.975
486.832
477.204
475.036
476.705
478.556
477.725
470.306
458.027
442.791
425.081
406.859
388.828
372.471
360.94
356.893
362.695
380.454
411.343
455.541
511.992
578.187
650.363
724.255
795.883
861.093
915.637
955.965
979.304
983.867
969.532
937.093
887.334
821.899
743.373
654.607
559.081
460.621
362.203
266.501
176.579
95.151
24.498
-33.461
-77.909
-108.974
-126.812
-131.754
-124.641
-106.919
-80.782
-48.749
-13.044
24.468
62.015
97.595
129.038
155.057
175.46
190.604
201.213
208.091
211.97
214.159
216.555
220.297
225.731
232.819
241.043
249.917
259.147
267.998
275.332
280.484
283.202
283.539
281.948
278.773
274.216
268.688
262.732
256.8
251.253
246.26
241.787
237.819
234.362
231.392
228.885
226.774
224.975
223.424
222.071
220.889
219.858
218.929
218.026
217.048
215.884
214.469
212.779
210.803
208.549
206.03
203.266
200.313
197.251
194.15
191.078
188.087
185.22
182.533
180.086
177.95
176.204
174.91
174.119
173.874
174.2
175.12
176.642
178.75
181.412
184.581
188.21
192.268
196.73
201.579
206.811
212.41
218.362
224.656
231.264
238.157
245.316
252.705
260.293
268.076
276.058
284.271
292.762
301.532
310.557
319.79
329.142
338.523
347.822
356.9
365.643
373.95
381.721
388.887
395.383
401.107
405.957
409.8
412.48
413.9
413.997
412.73
410.121
406.213
401.079
394.855
387.658
379.582
370.717
361.122
350.852
339.999
328.655
316.931
304.967
292.872
280.732
268.635
256.621
244.711
232.903
221.146
209.399
197.652
185.902
174.171
162.491
150.876
139.345
127.919
116.6
105.395
94.316
83.368
72.572
61.964
51.584
41.494
31.753
22.4
13.464
4.965
-3.089
-10.687
-17.827
-24.518
-30.763
-36.564
-41.924
-46.842
-51.322
-55.373
-59.01
-62.248
-65.106
-67.599
-69.743
-71.552
-73.039
-74.213
-75.086
-75.662
-75.948
-75.954
-75.687
-75.159
-74.38
-73.359
-72.106
-70.631
-68.944
-67.052
-64.963
-62.684
-60.225
-57.593
-54.795
-51.839
-48.73
-45.478
-42.096
-38.585
-34.948
-31.191
-27.315
-23.338
-19.285
-15.156
-10.953
-6.715
-2.476
1.735
5.879
9.959
13.998
17.956
21.779
25.55
29.377
33.167
36.91
40.612
43.993
47.747
52.55
57.398
61.975
64.452
62.641
58.936
54.93
53.001
56.421
62.281
68.119
72.244
71.87
68.989
65.621
62.219
60.019
58.315
56.199
53.857
51.184
48.258
45.281
42.151
38.788
35.247
31.557
27.732
23.797
19.787
15.73
11.672
7.659
3.71
-0.155
-3.908
-7.522
-10.971
-14.23
-17.275
-20.086
-22.641
-24.919
-26.902
-28.574
-29.921
-30.931
-31.595
-31.907
-31.862
-31.458
-30.694
-29.574
-28.104
-26.292
-24.149
-21.687
-18.925
-15.882
-12.581
-9.048
-5.311
-1.398
2.659
6.829
11.08
15.378
19.695
23.997
28.252
32.427
36.485
40.39
44.11
47.612
50.865
53.842
56.513
58.856
60.857
62.501
63.772
64.646
65.095
65.095
64.636
63.712
62.323
60.477
58.187
55.481
52.407
49.013
45.342
41.433
37.307
32.997
28.552
24.034
19.516
15.06
10.705
6.478
2.409
-1.497
-5.255
-8.911
-12.544
-16.24
-20.071
-24.11
-28.436
-33.141
-38.316
-44.092
-50.645
-58.057
-66.287
-75.165
-84.338
-93.421
-102.091
-109.905
-116.306
-120.996
-123.992
-125.737
-127.19
-129.307
-132.758
-138.16
-146.049
-156.438
-168.69
-181.302
-191.797
-197.263
-195.123
-183.226
-159.437
-123.144
-74.772
-14.582
54.995
131.953
214.217
295.33
369.391
429.619
469.209
488.632
489.041
472.456
442.818
399.219
341.788
273.041
194.619
110.57
25.247
-59.108
-140.055
-214.88
-281.864
-339.424
-386.085
-421.657
-446.647
-461.202
-465.927
-462.242
-451.33
-434.724
-414.394
-391.54
-366.987
-342.05
-317.948
-295.427
-275.356
-258.059
-243.181
-230.677
-220.537
-212.172
-204.796
-197.765
-190.319
-182.153
-173.517
-164.545
-155.438
-146.704
-138.953
-132.714
-128.449
-126.286
-126.036
-127.469
-130.256
-133.981
-138.186
-142.44
-146.426
-149.944
-152.884
-155.199
-156.87
-157.898
-158.328
-158.197
-157.524
-156.358
-154.751
-152.76
-150.489
-148.027
-145.464
-142.923
-140.488
-138.215
-136.164
-134.352
-132.777
-131.445
-130.339
-129.425
-128.677
-128.057
-127.513
-127.009
-126.492
-125.906
-125.193
-124.285
-123.125
-121.677
-119.91
-117.802
-115.343
-112.52
-109.334
-105.796
-101.916
-97.703
-93.172
-88.333
-83.201
-77.801
-72.158
-66.302
-60.263
-54.07
-47.754
-41.347
-34.882
-28.394
-21.914
-15.475
-9.111
-2.859
3.246
9.164
14.861
20.299
25.445
30.265
34.726
38.799
42.459
45.682
48.446
50.733
52.526
53.814
54.586
54.834
54.556
53.75
52.417
50.563
48.195
45.324
41.964
38.13
33.841
29.118
23.985
18.466
12.59
6.385
-0.117
-6.886
-13.887
-21.088
-28.452
-35.946
-43.535
-51.183
-58.858
-66.524
-74.151
-81.707
-89.162
-96.489
-103.659
-110.648
-117.434
-123.994
-130.309
-136.361
-142.135
-147.617
-152.794
-157.657
-162.198
-166.412
-170.293
-173.84
-177.053
-179.933
-182.483
-184.709
-186.615
-188.21
-189.503
-190.504
-191.224
-191.675
-191.87
-191.822
-191.545
-191.054
-190.363
-189.485
-188.436
-187.229
-185.879
-184.397
-182.798
-181.093
-179.293
-177.41
-175.454
-173.433
-171.358
-169.237
-167.076
-164.883
-162.664
-160.425
-158.171
-155.906
-153.634
-151.359
-149.083
-146.808
-144.535
-142.27
-140.016
-137.776
-135.552
-133.341
-131.143
-128.966
-126.807
-124.653
-122.5
-120.331
-118.144
-115.969
-113.82
-111.681
-109.58
-107.559
-105.644
-103.892
-102.325
-100.857
-99.452
-98.161
-96.898
-95.455
-93.827
-92.065
-90.097
-88.294
-86.349
-82.716
-77.685
-72.646
-69.482
-73.179
-84.367
-97.708
-108.699
-109.345
-96.648
-78.977
-62.518
-54.662
-60.083
-71.255
-82.743
-90.864
-91.84
-89.651
-87.401
-85.53
-85.501
-86.226
-86.565
-86.936
-87.263
-87.561
-88.035
-88.542
-88.945
-89.258
-89.454
-89.466
-89.273
-88.888
-88.31
-87.547
-86.614
-85.492
-84.164
-82.635
-80.901
-78.956
-76.801
-74.432
-71.847
-69.051
-66.048
-62.845
-59.45
-55.87
-52.117
-48.204
-44.146
-39.962
-35.672
-31.298
-26.86
-22.38
-17.88
-13.387
-8.922
-4.51
-0.172
4.071
8.195
12.173
15.982
19.603
23.019
26.215
29.176
31.888
34.337
36.518
38.425
40.055
41.4
42.442
43.168
43.574
43.656
43.412
42.852
41.98
40.814
39.406
37.796
36.033
34.2
32.356
30.54
28.805
27.172
25.621
24.16
22.801
21.428
19.944
18.462
16.991
15.499
14.349
13.059
10.981
8.803
6.433
5.276
7.955
13.365
20.16
25.048
21.725
8.938
-12.346
-38.393
-59.532
-68.716
-61.473
-37.251
-4.756
25.067
41.909
38.929
18.256
-13.215
-47.09
-75.719
-94.787
-103.722
-104.447
-99.058
-90.224
-76.223
-50.708
-8.467
54.947
137.283
229.414
322.851
409.744
486.187
551.99
605.676
645.971
671.004
678.189
667.053
637.602
590.465
528.219
453.729
370.14
281.561
191.702
103.827
21.835
-51.063
-112.711
-161.29
-196.329
-218.74
-229.508
-229.941
-222.167
-208.066
-189.591
-169.05
-147.821
-126.437
-105.649
-86.298
-68.807
-53.712
-41.325
-30.426
-20.145
-11.409
-4.023
0.859
1.661
1.543
2.422
6.529
17.003
30.606
44.297
55.7
61.439
63.06
62.419
60.124
57.646
54.562
50.351
45.634
40.655
35.786
31.418
27.492
23.973
20.956
18.47
16.514
15.103
14.243
13.928
14.163
14.918
16.113
17.659
19.478
21.483
23.581
25.704
27.804
29.844
31.804
33.666
35.413
37.045
38.58
40.039
41.447
42.835
44.236
45.692
47.252
48.966
50.89
53.064
55.516
58.268
61.334
64.726
68.451
72.507
76.881
81.563
86.542
91.807
97.346
103.14
109.166
115.397
121.806
128.365
135.044
141.816
148.648
155.512
162.376
169.21
175.985
182.668
189.228
195.628
201.836
207.816
213.536
218.961
224.06
228.802
233.157
237.1
240.605
243.651
246.216
248.283
249.835
250.858
251.34
251.274
250.653
249.472
247.732
245.433
242.582
239.184
235.251
230.793
225.827
220.37
214.441
208.061
201.254
194.047
186.465
178.539
170.298
161.773
152.996
144.001
134.82
125.487
116.036
106.5
96.912
87.305
77.711
68.162
58.688
49.32
40.088
31.018
22.139
13.476
5.055
-3.102
-10.972
-18.536
-25.774
-32.669
-39.207
-45.372
-51.154
-56.542
-61.528
-66.105
-70.268
-74.014
-77.342
-80.251
-82.743
-84.82
-86.487
-87.749
-88.613
-89.087
-89.18
-88.903
-88.267
-87.283
-85.966
-84.329
-82.388
-80.159
-77.658
-74.904
-71.914
-68.709
-65.308
-61.732
-58.002
-54.14
-50.167
-46.105
-41.977
-37.805
-33.611
-29.417
-25.246
-21.119
-17.059
-13.085
-9.219
-5.482
-1.892
1.531
4.769
7.805
10.622
13.204
15.538
17.609
19.405
20.915
22.129
23.04
23.638
23.921
23.883
23.523
22.841
21.837
20.516
18.882
16.941
14.702
12.175
9.37
6.301
2.982
-0.572
-4.343
-8.314
-12.466
-16.779
-21.231
-25.803
-30.471
-35.212
-40.005
-44.826
-49.652
-54.459
-59.224
-63.924
-68.538
-73.042
-77.415
-81.638
-85.691
-89.555
-93.213
-96.649
-99.849
-102.798
-105.486
-107.902
-110.039
-111.89
-113.451
-114.718
-115.692
-116.372
-116.762
-116.866
-116.689
-116.239
-115.525
-114.556
-113.346
-111.908
-110.255
-108.405
-106.373
-104.179
-101.842
-99.381
-96.816
-94.169
-91.461
-88.715
-85.952
-83.195
-80.466
-77.79
-75.191
-72.693
-70.322
-68.098
-66.046
-64.186
-62.537
-61.118
-59.94
-59.017
-58.359
-57.976
-57.88
-58.082
-58.586
-59.397
-60.518
-61.948
-63.688
-65.731
-68.062
-70.667
-73.535
-76.657
-80.037
-83.672
-87.549
-91.655
-95.971
-100.471
-105.13
-109.905
-114.737
-119.569
-124.347
-129.025
-133.571
-137.948
-142.108
-145.99
-149.527
-152.662
-155.357
-157.587
-159.328
-160.585
-161.385
-161.787
-161.874
-161.738
-161.473
-161.172
-160.931
-160.846
-161.01
-161.562
-162.713
-164.616
-167.286
-170.604
-174.306
-178.078
-181.635
-184.587
-186.355
-186.489
-184.933
-182.034
-178.451
-175.069
-172.774
-172.326
-174.678
-179.611
-184.907
-188.112
-187.653
-184.801
-183.86
-187.072
-189.722
-179.353
-140.605
-63.775
47.27
174.344
294.312
388.952
451.401
487.622
508.374
520.936
526.573
520.728
497.102
452.816
389.18
310.28
221.364
127.173
31.623
-61.879
-149.912
-229.19
-297.314
-352.674
-394.441
-422.987
-439.304
-444.705
-441.352
-431.616
-417.48
-400.667
-382.444
-363.489
-344.432
-325.926
-307.968
-290.262
-272.641
-255.042
-237.727
-221.142
-205.358
-190.069
-175.296
-161.273
-148.233
-136.42
-125.792
-116.225
-107.935
-101.388
-96.846
-94.391
-93.97
-95.418
-98.707
-103.759
-110.258
-117.786
-125.97
-134.509
-143.182
-151.778
-160.017
-167.693
-174.707
-181.032
-186.697
-191.712
-196.068
-199.793
-202.946
-205.609
-207.88
-209.821
-211.473
-212.908
-214.21
-215.499
-216.909
-218.523
-220.378
-222.502
-224.898
-227.566
-230.498
-233.649
-236.958
-240.37
-243.832
-247.3
-250.745
-254.117
-257.362
-260.417
-263.212
-265.694
-267.827
-269.578
-270.921
-271.837
-272.309
-272.337
-271.932
-271.096
-269.834
-268.144
-266.027
-263.486
-260.532
-257.174
-253.426
-249.301
-244.812
-239.975
-234.806
-229.323
-223.543
-217.484
-211.162
-204.596
-197.809
-190.825
-183.668
-176.365
-168.942
-161.427
-153.849
-146.235
-138.614
-131.013
-123.46
-115.983
-108.608
-101.363
-94.274
-87.368
-80.668
-74.201
-67.989
-62.055
-56.422
-51.109
-46.138
-41.525
-37.288
-33.443
-30.003
-26.981
-24.388
-22.233
-20.522
-19.262
-18.457
-18.108
-18.217
-18.782
-19.799
-21.264
-23.169
-25.506
-28.262
-31.427
-34.984
-38.918
-43.21
-47.841
-52.787
-58.027
-63.534
-69.282
-75.242
-81.385
-87.68
-94.095
-100.597
-107.151
-113.724
-120.279
-126.782
-133.196
-139.485
-145.613
-151.546
-157.247
-162.681
-167.814
-172.614
-177.047
-181.082
-184.69
-187.842
-190.512
-192.675
-194.309
-195.393
-195.91
-195.844
-195.183
-193.915
-192.034
-189.535
-186.416
-182.677
-178.324
-173.362
-167.801
-161.654
-154.936
-147.665
-139.861
-131.547
-122.748
-113.491
-103.805
-93.722
-83.275
-72.497
-61.426
-50.097
-38.549
-26.821
-14.952
-2.981
9.051
21.105
33.143
45.127
57.018
68.781
80.381
91.784
102.96
113.877
124.509
134.829
144.816
154.447
163.705
172.574
181.041
189.095
196.729
203.936
210.714
217.062
222.982
228.478
233.557
238.226
242.498
246.383
249.896
253.053
255.872
258.369
260.565
262.48
264.135
265.551
266.749
267.752
268.581
269.258
269.803
270.237
270.58
270.848
271.061
271.233
271.38
271.514
271.647
271.789
271.952
272.142
272.365
272.627
272.931
273.278
273.672
274.111
274.59
275.104
275.646
276.211
276.797
277.395
277.989
278.573
279.153
279.728
280.301
280.861
281.375
281.827
282.229
282.553
282.74
282.741
282.504
282.014
281.326
280.452
279.316
277.977
276.672
275.446
274.219
273.015
271.567
270.351
270.894
272.883
274.912
274.687
267.861
254.653
239.446
226.589
222.262
226.932
234.757
241.219
241.464
234.603
225.026
215.45
207.705
202.373
197.672
192.784
187.783
182.616
177.56
172.703
167.825
162.888
157.985
153.156
148.428
143.846
139.45
135.304
131.504
128.121
125.19
122.742
120.795
119.36
118.445
118.035
118.103
118.577
119.33
120.246
121.207
122.098
122.83
123.232
123.05
122.106
120.333
117.814
114.799
111.487
108.026
104.722
102.018
100.292
99.699
99.873
100.098
99.697
97.959
94.248
87.944
79.205
69.5
60.851
54.905
50.771
46.261
41.359
40.088
52.135
87.414
149.246
233.245
327.664
419.965
502.988
574.229
633.912
681.667
715.216
731.433
727.892
704.452
661.814
601.561
527.083
441.827
349.46
254.229
159.197
66.789
-20.032
-98.749
-167.595
-224.992
-270.247
-303.658
-325.313
-335.339
-334.382
-323.389
-303.857
-277.848
-247.334
-213.809
-178.874
-144.373
-112.303
-84.447
-61.624
-43.719
-30.276
-20.81
-14.548
-10.537
-7.375
-3.307
2.264
9.785
20.569
33.953
48.174
60.841
66.116
62.438
54.581
47.04
47.976
60.463
76.491
90.084
94.324
85.447
71.172
57.047
46.771
43.742
44.166
45.173
46.355
46.378
46.181
46.686
47.408
48.341
49.434
50.489
51.585
52.769
53.936
54.982
55.886
56.634
57.181
57.517
57.631
57.505
57.187
56.755
56.264
55.768
55.313
54.924
54.645
54.534
54.647
55.051
55.795
56.909
58.423
60.36
62.736
65.564
68.838
72.537
76.646
81.15
86.033
91.284
96.882
102.798
109.003
115.466
122.154
129.032
136.064
143.211
150.431
157.686
164.935
172.142
179.265
186.262
193.091
199.707
206.069
212.137
217.869
223.227
228.173
232.673
236.696
240.213
243.197
245.625
247.476
248.731
249.378
249.403
248.8
247.563
245.691
243.186
240.054
236.301
231.94
226.985
221.454
215.366
208.745
201.617
194.011
185.955
177.484
168.63
159.431
149.921
140.14
130.124
119.914
109.549
99.068
88.509
77.912
67.314
56.753
46.264
35.884
25.647
15.585
5.73
-3.888
-13.24
-22.3
-31.042
-39.444
-47.483
-55.141
-62.401
-69.248
-75.668
-81.652
-87.192
-92.282
-96.917
-101.096
-104.82
-108.09
-110.911
-113.288
-115.229
-116.742
-117.838
-118.528
-118.824
-118.74
-118.292
-117.493
-116.361
-114.912
-113.165
-111.136
-108.844
-106.309
-103.549
-100.583
-97.432
-94.113
-90.646
-87.05
-83.343
-79.542
-75.665
-71.727
-67.744
-63.73
-59.698
-55.661
-51.629
-47.614
-43.623
-39.666
-35.75
-31.88
-28.062
-24.301
-20.599
-16.959
-13.383
-9.873
-6.427
-3.046
0.271
3.527
6.724
9.865
12.953
15.994
18.99
21.947
24.871
27.765
30.634
33.484
36.317
39.139
41.953
44.761
47.565
50.368
53.169
55.97
58.768
61.563
64.353
67.134
69.902
72.654
75.384
78.086
80.756
83.385
85.967
88.494
90.959
93.352
95.664
97.887
100.01
102.024
103.919
105.685
107.313
108.794
110.118
111.279
112.269
113.08
113.708
114.146
114.391
114.438
114.287
113.935
113.383
112.631
111.681
110.538
109.205
107.687
105.988
104.116
102.077
99.88
97.532
95.042
92.419
89.674
86.816
83.857
80.807
77.677
74.479
71.223
67.917
64.572
61.192
57.784
54.352
50.901
47.435
43.957
40.469
36.974
33.478
29.984
26.495
23.01
19.526
16.041
12.552
9.057
5.554
2.039
-1.493
-5.044
-8.607
-12.183
-15.774
-19.389
-23.053
-26.778
-30.57
-34.433
-38.364
-42.355
-46.398
-50.464
-54.511
-58.495
-62.375
-66.123
-69.728
-73.159
-76.38
-79.345
-81.99
-84.28
-86.205
-87.749
-88.921
-89.756
-90.302
-90.656
-90.945
-91.281
-91.786
-92.586
-93.783
-95.495
-97.812
-100.849
-104.793
-109.733
-115.628
-122.3
-129.389
-136.54
-143.507
-149.901
-155.154
-158.876
-160.927
-161.656
-161.857
-162.082
-162.682
-164.141
-167.002
-171.692
-177.247
-180.801
-179.605
-172.074
-159.742
-146.18
-131.138
-110.133
-75.017
-17.417
62.736
157.481
255.232
343.635
416.352
472.955
512.518
534.69
537.231
516.534
474.512
414.5
341.549
262.22
178.648
93.086
8.079
-75.062
-152.784
-222.096
-281.841
-330.717
-368.389
-395.543
-412.329
-419.108
-416.904
-406.606
-389.504
-367.441
-341.994
-314.329
-285.743
-257.578
-231.249
-208.199
-189.083
-173.787
-162.013
-153.439
-147.664
-144.025
-141.316
-138.263
-134.234
-129.148
-123.235
-116.853
-110.255
-103.829
-98.338
-94.456
-92.474
-92.403
-93.941
-96.66
-100.249
-104.331
-108.425
-112.181
-115.353
-117.77
-119.421
-120.331
-120.498
-119.975
-118.831
-117.109
-114.881
-112.222
-109.206
-105.941
-102.542
-99.12
-95.771
-92.557
-89.526
-86.726
-84.182
-81.9
-79.875
-78.083
-76.502
-75.115
-73.894
-72.801
-71.791
-70.806
-69.789
-68.676
-67.415
-65.967
-64.299
-62.383
-60.203
-57.745
-55.004
-51.981
-48.677
-45.09
-41.22
-37.068
-32.639
-27.946
-23.001
-17.821
-12.424
-6.827
-1.052
4.884
10.959
17.151
23.44
29.804
36.218
42.654
49.083
55.474
61.795
68.014
74.097
80.011
85.724
91.205
96.421
101.345
105.947
110.201
114.081
117.561
120.619
123.234
125.387
127.062
128.244
128.921
129.085
128.729
127.85
126.447
124.52
122.074
119.116
115.654
111.699
107.266
102.371
97.032
91.271
85.111
78.576
71.695
64.494
57.004
49.255
41.279
33.108
24.775
16.313
7.755
-0.866
-9.517
-18.165
-26.778
-35.325
-43.776
-52.102
-60.276
-68.27
-76.062
-83.628
-90.947
-98
-104.769
-111.239
-117.396
-123.229
-128.727
-133.884
-138.694
-143.153
-147.261
-151.017
-154.425
-157.489
-160.214
-162.61
-164.684
-166.448
-167.914
-169.095
-170.006
-170.662
-171.08
-171.276
-171.268
-171.073
-170.709
-170.193
-169.544
-168.777
-167.911
-166.961
-165.943
-164.872
-163.764
-162.633
-161.491
-160.352
-159.227
-158.128
-157.063
-156.043
-155.075
-154.166
-153.323
-152.551
-151.853
-151.233
-150.693
-150.235
-149.859
-149.564
-149.349
-149.212
-149.15
-149.159
-149.236
-149.376
-149.576
-149.831
-150.136
-150.487
-150.879
-151.308
-151.769
-152.257
-152.768
-153.297
-153.84
-154.394
-154.953
-155.514
-156.073
-156.627
-157.172
-157.705
-158.223
-158.724
-159.203
-159.66
-160.092
-160.497
-160.874
-161.222
-161.54
-161.827
-162.083
-162.307
-162.499
-162.659
-162.785
-162.877
-162.934
-162.956
-162.94
-162.887
-162.795
-162.663
-162.489
-162.272
-162.01
-161.701
-161.345
-160.939
-160.48
-159.967
-159.398
-158.772
-158.088
-157.345
-156.541
-155.675
-154.747
-153.756
-152.702
-151.584
-150.402
-149.156
-147.847
-146.477
-145.048
-143.561
-142.02
-140.429
-138.793
-137.116
-135.406
-133.668
-131.909
-130.136
-128.359
-126.587
-124.829
-123.096
-121.4
-119.757
-118.182
-116.69
-115.296
-114.017
-112.868
-111.863
-111.017
-110.34
-109.842
-109.532
-109.424
-109.531
-109.864
-110.434
-111.249
-112.314
-113.636
-115.219
-117.061
-119.151
-121.481
-124.048
-126.853
-129.91
-133.226
-136.797
-140.618
-144.674
-148.945
-153.408
-158.025
-162.74
-167.498
-172.249
-176.95
-181.579
-186.098
-190.456
-194.592
-198.42
-201.868
-204.904
-207.503
-209.661
-211.4
-212.74
-213.724
-214.449
-215.011
-215.471
-215.859
-216.193
-216.539
-217.02
-217.843
-219.272
-221.391
-224.272
-228.052
-232.427
-236.83
-240.877
-243.817
-245.511
-247.117
-248.249
-248.011
-245.452
-237.816
-226.75
-216.776
-211.312
-215.802
-229.417
-247.272
-267.571
-284.287
-294.067
-294.081
-273.554
-226.808
-151.086
-47.482
70.103
187.679
292.771
374.636
432.014
467.285
484.68
488.692
480.083
457.363
417.571
359.665
285.908
200.225
108.186
14.9
-76.158
-161.739
-238.884
-305.575
-360.305
-402.223
-431.838
-450.418
-459.484
-461.099
-457.374
-449.861
-439.743
-427.943
-414.784
-400.252
-384.142
-366.045
-345.734
-323.449
-300.006
-276.445
-253.778
-232.949
-214.927
-200.611
-190.534
-184.749
-182.468
-182.421
-183.437
-184.422
-184.036
-180.792
-173.431
-160.951
-143.076
-120.18
-92.673
-61.067
-26.345
10.161
47.189
83.5
118.279
151.221
182.086
210.789
237.597
263.005
287.441
311.288
334.723
357.661
379.979
401.503
421.96
441.021
458.471
474.221
488.29
500.831
512.047
522.11
531.212
539.562
547.301
554.522
561.3
567.651
573.593
579.161
584.36
589.185
593.635
597.67
601.241
604.283
606.693
608.39
609.316
609.413
608.653
607.028
604.533
601.186
597.024
592.081
586.397
580.017
572.978
565.332
557.141
548.47
539.4
529.997
520.316
510.407
500.312
490.065
479.698
469.232
458.677
448.047
437.357
426.62
415.854
405.072
394.281
383.489
372.701
361.922
351.159
340.42
329.709
319.034
308.4
297.815
287.289
276.826
266.432
256.11
245.863
235.692
225.603
215.596
205.674
195.84
186.098
176.452
166.908
157.47
148.143
138.933
129.847
120.889
112.066
103.385
94.852
86.474
78.257
70.21
62.339
54.652
47.157
39.861
32.772
25.899
19.249
12.832
6.655
0.728
-4.943
-10.349
-15.483
-20.337
-24.906
-29.184
-33.165
-36.847
-40.225
-43.297
-46.063
-48.521
-50.674
-52.521
-54.066
-55.312
-56.263
-56.923
-57.299
-57.396
-57.222
-56.784
-56.091
-55.153
-53.978
-52.579
-50.966
-49.151
-47.149
-44.972
-42.635
-40.151
-37.537
-34.808
-31.978
-29.063
-26.079
-23.04
-19.963
-16.862
-13.751
-10.646
-7.56
-4.507
-1.499
1.451
4.33
7.127
9.83
12.43
14.915
17.276
19.502
21.586
23.517
25.29
26.895
28.327
29.58
30.648
31.528
32.216
32.709
33.006
33.104
33.003
32.703
32.205
31.509
30.619
29.536
28.264
26.806
25.167
23.352
21.366
19.215
16.906
14.443
11.835
9.093
6.225
3.242
0.152
-3.035
-6.304
-9.64
-13.038
-16.49
-19.989
-23.528
-27.087
-30.638
-34.177
-37.702
-41.171
-44.549
-47.805
-50.901
-53.842
-56.658
-59.313
-61.75
-64.07
-66.39
-68.623
-70.765
-72.83
-74.529
-76.612
-79.807
-83.055
-86.03
-86.79
-83.014
-77.265
-71.251
-67.519
-69.566
-74.301
-79.104
-82.185
-80.579
-76.414
-71.852
-67.377
-64.314
-61.91
-59.2
-56.381
-53.343
-50.165
-47.061
-43.916
-40.643
-37.29
-33.883
-30.426
-26.94
-23.448
-19.975
-16.557
-13.236
-10.026
-6.939
-3.999
-1.225
1.363
3.743
5.902
7.826
9.504
10.924
12.073
12.941
13.517
13.791
13.761
13.421
12.77
11.808
10.535
8.96
7.097
4.956
2.544
-0.139
-3.104
-6.348
-9.859
-13.623
-17.62
-21.829
-26.222
-30.755
-35.368
-40.003
-44.607
-49.14
-53.577
-57.871
-61.959
-65.769
-69.216
-72.242
-74.823
-76.934
-78.556
-79.694
-80.366
-80.623
-80.581
-80.347
-80.016
-79.698
-79.484
-79.474
-79.844
-80.825
-82.567
-85.111
-88.296
-91.767
-95.199
-98.308
-100.732
-102.018
-101.78
-99.904
-96.882
-93.767
-91.564
-91.045
-92.706
-96.813
-103.501
-112.442
-122.103
-129.888
-132.997
-128.675
-114.841
-90.023
-52.682
-1.951
61.333
134.949
215.667
299.386
382.476
461.435
531.795
589.402
631.196
654.795
659.165
644.584
611.107
559.493
492.168
411.995
322.356
227.458
131.043
36.425
-52.408
-132.076
-200.275
-255.041
-295.755
-323.235
-338.562
-343.141
-339.2
-328.719
-313.533
-295.889
-277.119
-257.648
-237.909
-218.197
-198.684
-180.063
-162.945
-147.176
-132.913
-120.634
-110.515
-102.704
-96.997
-92.427
-88.142
-83.95
-79.715
-75.322
-70.86
-66.286
-61.826
-58.235
-56.064
-55.452
-56.375
-58.57
-61.71
-65.624
-70.022
-74.399
-78.384
-81.722
-84.236
-85.947
-86.883
-87.018
-86.38
-85.023
-82.999
-80.399
-77.32
-73.824
-69.994
-65.911
-61.663
-57.375
-53.143
-49.033
-45.108
-41.389
-37.892
-34.636
-31.621
-28.83
-26.247
-23.839
-21.567
-19.405
-17.314
-15.254
-13.179
-11.03
-8.76
-6.337
-3.737
-0.942
2.057
5.275
8.713
12.365
16.225
20.288
24.544
28.993
33.624
38.424
43.376
48.462
53.661
58.958
64.333
69.767
75.241
80.735
86.229
91.706
97.147
102.529
107.828
113.022
118.086
122.997
127.73
132.263
136.573
140.639
144.44
147.961
151.182
154.089
156.667
158.905
160.79
162.314
163.47
164.252
164.658
164.686
164.338
163.618
162.531
161.084
159.287
157.151
154.688
151.911
148.838
145.483
141.865
138.002
133.915
129.625
125.152
120.519
115.748
110.861
105.88
100.827
95.724
90.592
85.451
80.321
75.221
70.169
65.184
60.28
55.473
50.778
46.208
41.772
37.481
33.343
29.366
25.553
21.91
18.438
15.139
12.014
9.061
6.278
3.662
1.208
-1.089
-3.234
-5.236
-7.102
-8.839
-10.457
-11.964
-13.369
-14.681
-15.911
-17.066
-18.156
-19.191
-20.179
-21.128
-22.049
-22.948
-23.833
-24.71
-25.587
-26.468
-27.358
-28.261
-29.18
-30.119
-31.079
-32.062
-33.069
-34.1
-35.154
-36.231
-37.329
-38.446
-39.58
-40.726
-41.883
-43.046
-44.211
-45.375
-46.535
-47.685
-48.822
-49.942
-51.041
-52.116
-53.161
-54.175
-55.152
-56.091
-56.989
-57.843
-58.651
-59.412
-60.126
-60.791
-61.408
-61.976
-62.495
-62.967
-63.392
-63.772
-64.109
-64.405
-64.662
-64.882
-65.07
-65.229
-65.36
-65.469
-65.558
-65.631
-65.691
-65.741
-65.785
-65.826
-65.866
-65.909
-65.958
-66.014
-66.079
-66.156
-66.244
-66.345
-66.459
-66.584
-66.721
-66.868
-67.023
-67.186
-67.353
-67.522
-67.69
-67.855
-68.012
-68.157
-68.287
-68.395
-68.478
-68.53
-68.546
-68.522
-68.451
-68.33
-68.153
-67.915
-67.611
-67.238
-66.791
-66.265
-65.658
-64.965
-64.187
-63.32
-62.365
-61.321
-60.19
-58.973
-57.674
-56.296
-54.843
-53.321
-51.735
-50.092
-48.401
-46.669
-44.906
-43.124
-41.336
-39.557
-37.8
-36.082
-34.418
-32.825
-31.318
-29.914
-28.625
-27.464
-26.444
-25.578
-24.88
-24.368
-24.052
-23.945
-24.057
-24.397
-24.974
-25.793
-26.849
-28.138
-29.658
-31.408
-33.401
-35.644
-38.135
-40.87
-43.84
-47.027
-50.412
-53.96
-57.619
-61.337
-65.066
-68.76
-72.395
-75.939
-79.347
-82.564
-85.525
-88.165
-90.447
-92.337
-93.799
-94.837
-95.472
-95.767
-95.827
-95.74
-95.575
-95.418
-95.356
-95.481
-95.904
-96.713
-98.025
-100.043
-102.868
-106.472
-110.687
-115.104
-119.294
-122.927
-125.536
-126.513
-125.52
-122.584
-118.222
-113.558
-109.559
-106.847
-106.181
-108.289
-113.43
-120.318
-125.884
-126.636
-120.001
-106.724
-89.227
-67.607
-39.256
2.921
66.917
155.712
266.153
386.843
501.832
595.328
656.153
682.343
678.271
652.785
614.071
564.835
505.178
433.74
350.397
258.672
163.646
70.298
-17.4
-96.954
-166.969
-226.445
-274.525
-311.095
-336.79
-352.472
-359.321
-358.355
-350.364
-336.547
-318.306
-296.859
-273.166
-248.037
-222.333
-197.318
-174.266
-153.844
-136.243
-121.395
-109.184
-99.475
-91.789
-85.098
-78.381
-71.14
-63.297
-55.052
-46.667
-38.322
-30.38
-23.575
-18.551
-15.566
-14.6
-15.363
-17.462
-20.622
-24.51
-28.61
-32.468
-35.762
-38.247
-39.862
-40.62
-40.486
-39.465
-37.607
-34.944
-31.549
-27.527
-22.951
-17.905
-12.488
-6.781
-0.902
5.008
10.846
16.521
21.975
27.19
32.147
36.827
41.236
45.39
49.317
53.064
56.671
60.164
63.582
66.965
70.365
73.847
77.455
81.221
85.167
89.306
93.648
98.203
102.969
107.934
113.086
118.414
123.906
129.558
135.357
141.284
147.32
153.441
159.625
165.852
172.1
178.346
184.565
190.734
196.829
202.83
208.712
214.449
220.013
225.377
230.513
235.394
239.995
244.288
248.249
251.853
255.08
257.91
260.324
262.305
263.837
264.907
265.504
265.618
265.242
264.372
263.004
261.139
258.779
255.93
252.6
248.797
244.533
239.824
234.686
229.138
223.2
216.894
210.246
203.279
196.022
188.502
180.747
172.786
164.65
156.369
147.973
139.491
130.954
122.391
113.831
105.301
96.83
88.444
80.168
72.025
64.039
56.231
48.621
41.226
34.063
27.146
20.488
14.098
7.986
2.157
-3.385
-8.636
-13.597
-18.269
-22.655
-26.759
-30.588
-34.149
-37.45
-40.501
-43.314
-45.899
-48.269
-50.438
-52.418
-54.224
-55.87
-57.371
-58.74
-59.993
-61.143
-62.204
-63.191
-64.116
-64.992
-65.831
-66.644
-67.442
-68.233
-69.027
-69.83
-70.65
-71.49
-72.356
-73.25
-74.175
-75.132
-76.12
-77.141
-78.192
-79.273
-80.379
-81.508
-82.657
-83.821
-84.996
-86.176
-87.357
-88.533
-89.699
-90.849
-91.978
-93.08
-94.151
-95.184
-96.175
-97.119
-98.012
-98.848
-99.625
-100.339
-100.987
-101.566
-102.077
-102.516
-102.884
-103.181
-103.406
-103.561
-103.647
-103.664
-103.615
-103.502
-103.327
-103.093
-102.804
-102.463
-102.073
-101.638
-101.163
-100.651
-100.105
-99.531
-98.93
-98.307
-97.666
-97.011
-96.344
-95.67
-94.991
-94.311
-93.631
-92.955
-92.283
-91.618
-90.96
-90.309
-89.667
-89.034
-88.409
-87.793
-87.186
-86.586
-85.994
-85.408
-84.826
-84.248
-83.671
-83.093
-82.51
-81.92
-81.32
-80.707
-80.078
-79.43
-78.761
-78.067
-77.345
-76.594
-75.809
-74.987
-74.128
-73.231
-72.294
-71.318
-70.303
-69.247
-68.153
-67.026
-65.862
-64.658
-63.41
-62.116
-60.783
-59.43
-58.048
-56.634
-55.217
-53.823
-52.474
-51.204
-50.004
-48.846
-47.764
-46.81
-45.893
-44.903
-43.926
-42.966
-42.006
-41.317
-40.199
-37.973
-35.633
-33.487
-33.349
-37.388
-43.216
-49.244
-53.101
-51.524
-47.39
-43.142
-40.454
-42.101
-46.121
-50.515
-54.837
-57.861
-60.286
-63.009
-65.834
-68.839
-71.901
-74.779
-77.54
-80.238
-82.82
-85.236
-87.449
-89.401
-91.009
-92.226
-93.013
-93.32
-93.159
-92.586
-91.653
-90.469
-89.179
-87.878
-86.676
-85.707
-85.042
-84.758
-84.961
-85.75
-87.303
-89.785
-93.225
-97.481
-102.311
-107.517
-112.725
-117.325
-120.778
-122.454
-122.489
-122.602
-123.541
-124.905
-125.431
-120.583
-108.906
-94.282
-81.423
-79.398
-92.723
-114.426
-134.072
-135.639
-105.682
-44.328
41.105
137.237
230.021
313.479
387.146
453.017
511.909
561.254
596.817
614.417
612.705
592.591
555.1
501.976
435.466
357.874
272.467
183.116
92.752
3.935
-80.364
-157.443
-224.874
-280.527
-323.448
-353.758
-371.655
-377.504
-372.19
-357.187
-334.652
-307.031
-276.418
-244.427
-212.495
-182.261
-155.502
-133.222
-115.517
-102.034
-92.161
-85.334
-81.106
-78.504
-76.009
-72.697
-68.325
-62.967
-57.072
-51.039
-45.085
-39.761
-35.948
-34.122
-34.337
-36.407
-39.88
-44.258
-49.022
-53.72
-57.952
-61.341
-63.864
-64.963
-63.302
-59.197
-53.926
-49.611
-50.224
-55.635
-62.029
-65.624
-60.998
-47.899
-31.72
-16.633
-7.098
-3.978
-3.407
-3
-1.133
2.704
6.926
10.815
14.438
17.763
21.066
24.458
27.783
31.037
34.321
37.682
41.151
44.77
48.573
52.595
56.883
61.45
66.272
71.342
76.663
82.232
88.048
94.103
100.379
106.86
113.532
120.375
127.373
134.505
141.751
149.091
156.503
163.966
171.459
178.958
186.433
193.856
201.194
208.414
215.485
222.371
229.039
235.454
241.584
247.396
252.862
257.95
262.634
266.885
270.678
273.989
276.797
279.08
280.821
282.004
282.616
282.644
282.081
280.921
279.162
276.803
273.845
270.295
266.16
261.452
256.182
250.368
244.029
237.186
229.863
222.086
213.884
205.287
196.327
187.037
177.452
167.606
157.535
147.276
136.867
126.343
115.743
105.103
94.461
83.854
73.317
62.885
52.594
42.477
32.565
22.89
13.48
4.364
-4.434
-12.889
-20.98
-28.687
-35.993
-42.883
-49.346
-55.37
-60.949
-66.078
-70.755
-74.977
-78.749
-82.073
-84.956
-87.405
-89.431
-91.045
-92.261
-93.092
-93.557
-93.672
-93.457
-92.932
-92.118
-91.038
-89.713
-88.169
-86.427
-84.513
-82.452
-80.266
-77.982
-75.622
-73.21
-70.768
-68.32
-65.885
-63.483
-61.134
-58.855
-56.661
-54.569
-52.59
-50.739
-49.024
-47.456
-46.043
-44.79
-43.703
-42.786
-42.04
-41.466
-41.064
-40.83
-40.762
-40.854
-41.102
-41.497
-42.031
-42.696
-43.481
-44.375
-45.366
-46.442
-47.591
-48.8
-50.055
-51.343
-52.652
-53.968
-55.28
-56.575
-57.842
-59.069
-60.247
-61.366
-62.416
-63.39
-64.279
-65.076
-65.777
-66.375
-66.867
-67.249
-67.52
-67.678
-67.723
-67.656
-67.478
-67.191
-66.799
-66.307
-65.719
-65.041
-64.28
-63.442
-62.535
-61.567
-60.546
-59.479
-58.375
-57.242
-56.087
-54.917
-53.74
-52.562
-51.389
-50.228
-49.085
-47.964
-46.87
-45.808
-44.78
-43.791
-42.841
-41.934
-41.069
-40.247
-39.468
-38.73
-38.032
-37.372
-36.749
-36.157
-35.594
-35.055
-34.535
-34.031
-33.536
-33.046
-32.554
-32.057
-31.551
-31.031
-30.494
-29.936
-29.357
-28.752
-28.121
-27.463
-26.776
-26.062
-25.321
-24.556
-23.768
-22.964
-22.148
-21.327
-20.51
-19.705
-18.922
-18.171
-17.464
-16.815
-16.237
-15.743
-15.343
-15.049
-14.873
-14.825
-14.918
-15.156
-15.545
-16.088
-16.792
-17.666
-18.716
-19.939
-21.326
-22.868
-24.558
-26.398
-28.397
-30.553
-32.856
-35.3
-37.883
-40.606
-43.464
-46.44
-49.484
-52.545
-55.577
-58.553
-61.472
-64.33
-67.104
-69.737
-72.154
-74.293
-76.117
-77.615
-78.745
-79.422
-79.637
-79.493
-79.224
-79.21
-79.763
-80.946
-82.753
-85.22
-88.213
-91.534
-94.813
-97.14
-97.617
-95.941
-92.08
-86.231
-79
-70.894
-62.582
-55.68
-52.004
-52.67
-58.368
-69.067
-83.907
-102.069
-122.417
-142.597
-159.577
-170.486
-172.562
-163.732
-142.962
-109.325
-62.246
-2.467
68.079
146.775
230.052
314.079
395.613
471.024
536.298
588.161
624.005
641.809
641.188
622.612
586.271
533.353
466.176
387.348
300.313
209.077
116.637
25.834
-59.581
-136.341
-201.739
-253.546
-291.088
-314.775
-324.852
-322.085
-308.576
-286.905
-260.167
-231.562
-203.27
-176.872
-153.872
-135.405
-121.798
-112.71
-107.033
-103.261
-100.197
-96.819
-92.33
-86.141
-77.929
-67.795
-56.291
-44.268
-32.664
-22.389
-14.036
-7.958
-4.32
-3.032
-3.854
-6.411
-10.184
-14.591
-19.172
-23.593
-27.682
-31.381
-34.624
-37.347
-39.463
-40.91
-41.705
-41.889
-41.367
-40.018
-37.948
-35.22
-31.931
-28.484
-24.306
-18.836
-13.141
-7.573
-3.989
-4.591
-7.023
-9.71
-10.274
-5.437
1.928
9.387
15.283
16.869
16.183
15.296
14.717
15.738
17.693
19.701
21.965
24.394
27.064
30.173
33.602
37.247
41.138
45.283
49.671
54.301
59.17
64.267
69.593
75.148
80.905
86.836
92.923
99.142
105.472
111.893
118.379
124.907
131.452
137.988
144.484
150.91
157.235
163.427
169.453
175.282
180.882
186.223
191.277
196.017
200.417
204.453
208.102
211.343
214.157
216.525
218.434
219.87
220.822
221.283
221.245
220.707
219.669
218.133
216.104
213.589
210.597
207.142
203.236
198.898
194.144
188.997
183.479
177.614
171.428
164.949
158.205
151.226
144.042
136.682
129.177
121.558
113.853
106.095
98.31
90.53
82.78
75.09
67.484
59.989
52.627
45.422
38.395
31.564
24.947
18.561
12.419
6.534
0.916
-4.425
-9.482
-14.251
-18.728
-22.91
-26.799
-30.396
-33.703
-36.727
-39.473
-41.947
-44.159
-46.118
-47.834
-49.318
-50.581
-51.636
-52.494
-53.17
-53.675
-54.024
-54.229
-54.305
-54.264
-54.119
-53.884
-53.571
-53.191
-52.758
-52.283
-51.776
-51.248
-50.71
-50.171
-49.639
-49.124
-48.634
-48.174
-47.753
-47.375
-47.045
-46.769
-46.551
-46.393
-46.299
-46.272
-46.312
-46.422
-46.602
-46.854
-47.177
-47.57
-48.035
-48.568
-49.17
-49.838
-50.57
-51.365
-52.219
-53.129
-54.091
-55.103
-56.158
-57.254
-58.384
-59.543
-60.726
-61.925
-63.136
-64.351
-65.564
-66.769
-67.958
-69.124
-70.262
-71.364
-72.424
-73.435
-74.391
-75.286
-76.114
-76.871
-77.549
-78.145
-78.653
-79.07
-79.392
-79.613
-79.733
-79.748
-79.655
-79.454
-79.144
-78.724
-78.194
-77.557
-76.812
-75.964
-75.014
-73.966
-72.824
-71.594
-70.279
-68.885
-67.418
-65.883
-64.286
-62.633
-60.929
-59.181
-57.393
-55.572
-53.722
-51.849
-49.957
-48.051
-46.136
-44.215
-42.292
-40.371
-38.455
-36.546
-34.645
-32.755
-30.877
-29.012
-27.16
-25.323
-23.498
-21.686
-19.886
-18.096
-16.316
-14.543
-12.775
-11.011
-9.249
-7.489
-5.729
-3.969
-2.209
-0.45
1.308
3.061
4.809
6.547
8.273
9.983
11.669
13.328
14.952
16.534
18.065
19.534
20.929
22.239
23.45
24.551
25.527
26.365
27.053
27.58
27.936
28.112
28.096
27.877
27.442
26.783
25.889
24.753
23.371
21.736
19.847
17.709
15.328
12.709
9.854
6.753
3.402
-0.196
-4.033
-8.098
-12.37
-16.826
-21.428
-26.123
-30.857
-35.58
-40.244
-44.818
-49.271
-53.55
-57.601
-61.353
-64.738
-67.717
-70.258
-72.329
-73.94
-75.12
-75.932
-76.488
-76.88
-77.191
-77.515
-77.929
-78.524
-79.414
-80.698
-82.533
-85.128
-88.558
-92.802
-97.721
-102.955
-108.125
-112.865
-116.596
-118.701
-118.886
-117.107
-113.695
-109.535
-105.508
-102.374
-101.176
-102.101
-103.971
-105.587
-105.202
-102.887
-101.481
-101.245
-99.645
-89.102
-57.421
1.82
87.875
192.452
300.748
401.372
488.148
559.385
616.429
659.941
688.689
697.912
684.15
645.022
579.495
494.072
395.39
289.905
185.538
84.592
-11.082
-98.469
-176.357
-242.369
-294.508
-333.041
-358.986
-373.609
-378.614
-375.39
-365.074
-349.283
-329.739
-307.745
-284.172
-259.812
-235.488
-212.387
-191.772
-174.171
-159.587
-147.873
-138.875
-132.433
-128.057
-124.666
-121.102
-116.792
-111.659
-105.913
-99.863
-93.707
-87.757
-82.683
-79.091
-77.212
-76.988
-78.072
-79.983
-82.353
-84.838
-86.994
-88.491
-89.115
-88.692
-87.204
-84.705
-81.216
-76.811
-71.592
-65.621
-58.993
-51.846
-44.309
-36.551
-28.749
-21.012
-13.429
-6.076
0.995
7.721
14.054
19.991
25.539
30.703
35.493
39.91
43.967
47.711
51.198
54.49
57.657
60.746
63.793
66.835
69.897
73.001
76.165
79.392
82.682
86.039
89.473
92.993
96.61
100.323
104.13
108.028
112.009
116.067
120.198
124.392
128.641
132.939
137.276
141.645
146.037
150.441
154.84
159.216
163.549
167.817
171.997
176.064
179.994
183.76
187.337
190.701
193.827
196.693
199.274
201.548
203.494
205.091
206.32
207.164
207.608
207.636
207.237
206.402
205.122
203.391
201.206
198.566
195.471
191.925
187.932
183.5
178.64
173.362
167.683
161.621
155.192
148.418
141.319
133.918
126.243
118.326
110.194
101.873
93.4
84.808
76.135
67.428
58.703
49.96
41.229
32.537
23.88
15.284
6.757
-1.729
-10.111
-18.269
-26.171
-33.802
-41.018
-47.724
-54.012
-59.792
-65.106
-70.521
-75.217
-78.287
-80.954
-83.294
-88.05
-99.427
-114.112
-128.758
-138.033
-133.475
-119.078
-102.299
-89.72
-91.145
-104.307
-120.762
-135.346
-141.494
-139.418
-134.76
-130.024
-127.294
-126.993
-127.056
-126.854
-126.566
-126.106
-125.761
-125.607
-125.403
-125.078
-124.677
-124.176
-123.544
-122.805
-121.981
-121.096
-120.198
-119.301
-118.385
-117.448
-116.491
-115.511
-114.518
-113.503
-112.444
-111.328
-110.143
-108.89
-107.588
-106.239
-104.817
-103.341
-101.859
-100.408
-99.031
-97.729
-96.436
-95.142
-93.916
-92.676
-91.179
-89.394
-87.389
-85.132
-82.914
-80.165
-75.374
-69.029
-62.46
-58.102
-60.306
-68.386
-78.098
-85.064
-83.085
-72.354
-58.625
-46.305
-40.335
-41.121
-44.336
-47.477
-48.661
-47.524
-45.856
-44.359
-43.005
-41.841
-40.594
-39.226
-37.977
-36.906
-35.975
-35.193
-34.568
-34.09
-33.746
-33.511
-33.341
-33.222
-33.168
-33.18
-33.25
-33.373
-33.539
-33.744
-33.985
-34.257
-34.549
-34.852
-35.158
-35.458
-35.745
-36.012
-36.248
-36.448
-36.601
-36.701
-36.739
-36.708
-36.602
-36.416
-36.142
-35.777
-35.317
-34.756
-34.094
-33.327
-32.453
-31.473
-30.385
-29.191
-27.893
-26.493
-24.995
-23.403
-21.722
-19.958
-18.118
-16.209
-14.238
-12.216
-10.15
-8.051
-5.931
-3.8
-1.673
0.439
2.518
4.548
6.514
8.398
10.184
11.855
13.394
14.788
16.023
17.088
17.971
18.661
19.144
19.407
19.442
19.238
18.788
18.086
17.127
15.906
14.431
12.707
10.737
8.52
6.049
3.316
0.327
-2.911
-6.386
-10.075
-13.954
-17.986
-22.115
-26.285
-30.444
-34.543
-38.553
-42.44
-46.155
-49.643
-52.837
-55.675
-58.126
-60.165
-61.766
-62.943
-63.731
-64.2
-64.469
-64.637
-64.788
-65.026
-65.435
-66.105
-67.148
-68.643
-70.715
-73.559
-77.242
-81.709
-86.807
-92.182
-97.467
-102.342
-106.299
-108.71
-109.213
-107.773
-104.733
-100.775
-96.616
-92.915
-90.375
-89.826
-90.917
-91.767
-90.423
-85.379
-77.614
-69.88
-62.009
-49.408
-22.971
26.452
101.299
196.032
298.461
396.164
481.72
552.085
607.811
649.205
674.357
680.961
667.179
632.761
579.355
509.922
427.991
337.155
241.357
144.401
49.638
-39.728
-121.158
-192.78
-252.994
-300.748
-335.831
-358.625
-369.912
-370.78
-362.093
-344.922
-320.915
-291.924
-259.727
-225.773
-191.307
-157.685
-126.691
-99.907
-78.062
-61.215
-49.042
-41.183
-37.215
-36.34
-37.11
-37.968
-38.026
-37.009
-35.008
-32.211
-28.749
-24.882
-21.292
-18.829
-17.906
-18.516
-20.37
-23.046
-26.251
-29.765
-33.223
-36.157
-38.257
-39.381
-39.535
-38.848
-37.409
-35.264
-32.489
-29.203
-25.542
-21.65
-17.664
-13.69
-9.81
-6.09
-2.588
0.64
3.559
6.155
8.445
10.458
12.223
13.763
15.104
16.281
17.346
18.361
19.39
20.502
21.75
23.176
24.821
26.716
28.888
31.354
34.119
37.181
40.542
44.205
48.174
52.45
57.028
61.899
67.051
72.47
78.139
84.04
90.154
96.46
102.937
109.562
116.311
123.162
130.089
137.061
144.047
151.014
157.927
164.753
171.456
178
184.35
190.472
196.333
201.902
207.146
212.038
216.548
220.65
224.319
227.533
230.27
232.513
234.245
235.452
236.124
236.252
235.833
234.862
233.342
231.275
228.667
225.528
221.869
217.704
213.052
207.931
202.363
196.372
189.983
183.224
176.125
168.715
161.026
153.09
144.939
136.608
128.13
119.538
110.866
102.148
93.416
84.704
76.042
67.461
58.993
50.664
42.502
34.534
26.782
19.271
12.019
5.046
-1.631
-7.999
-14.045
-19.759
-25.133
-30.16
-34.837
-39.162
-43.135
-46.757
-50.032
-52.965
-55.562
-57.832
-59.785
-61.431
-62.783
-63.853
-64.656
-65.206
-65.52
-65.613
-65.501
-65.202
-64.733
-64.111
-63.353
-62.476
-61.498
-60.434
-59.3
-58.112
-56.885
-55.632
-54.367
-53.101
-51.846
-50.612
-49.409
-48.246
-47.129
-46.067
-45.064
-44.126
-43.258
-42.461
-41.739
-41.093
-40.524
-40.032
-39.617
-39.276
-39.009
-38.812
-38.684
-38.62
-38.616
-38.67
-38.776
-38.93
-39.128
-39.365
-39.636
-39.936
-40.262
-40.609
-40.974
-41.351
-41.738
-42.132
-42.529
-42.928
-43.325
-43.719
-44.107
-44.489
-44.861
-45.224
-45.577
-45.918
-46.249
-46.568
-46.877
-47.176
-47.465
-47.746
-48.019
-48.285
-48.547
-48.804
-49.058
-49.309
-49.559
-49.81
-50.06
-50.312
-50.564
-50.818
-51.072
-51.325
-51.577
-51.825
-52.068
-52.303
-52.528
-52.741
-52.94
-53.121
-53.281
-53.418
-53.527
-53.606
-53.65
-53.654
-53.614
-53.525
-53.383
-53.182
-52.919
-52.59
-52.19
-51.716
-51.164
-50.53
-49.813
-49.008
-48.113
-47.127
-46.049
-44.88
-43.619
-42.269
-40.832
-39.311
-37.712
-36.037
-34.294
-32.486
-30.62
-28.703
-26.741
-24.743
-22.719
-20.679
-18.634
-16.6
-14.592
-12.624
-10.712
-8.871
-7.116
-5.46
-3.916
-2.494
-1.205
-0.058
0.933
1.758
2.406
2.87
3.143
3.218
3.092
2.762
2.229
1.504
0.59
-0.514
-1.813
-3.321
-5.044
-6.978
-9.12
-11.464
-13.995
-16.695
-19.528
-22.437
-25.367
-28.269
-31.099
-33.827
-36.407
-38.778
-40.88
-42.641
-44.011
-44.978
-45.513
-45.596
-45.239
-44.455
-43.313
-41.96
-40.534
-39.165
-38
-37.126
-36.678
-36.887
-37.907
-39.817
-42.564
-45.894
-49.595
-53.562
-57.561
-61.205
-64.16
-66.145
-67.308
-68.273
-69.447
-71.19
-73.969
-78.19
-84.398
-92.003
-98.616
-101.865
-99.693
-92.774
-85.149
-77.775
-68.805
-52.005
-15.152
47.822
136.865
246.663
360.662
464.335
547.956
602.484
630.946
640.743
636.105
624.943
607.356
574.757
521.853
442.19
334.369
210.522
84.883
-29.192
-119.74
-186.891
-237.373
-276.303
-309.415
-337.257
-355.704
-363.588
-361.267
-350.686
-335.925
-319.347
-301.535
-282.874
-263.324
-242.997
-222.407
-201.727
-180.945
-160.452
-140.964
-123.061
-107.159
-93.316
-81.075
-70.233
-60.793
-52.446
-44.912
-38.057
-31.733
-26.157
-21.916
-19.28
-18.297
-19.048
-21.347
-24.914
-29.542
-34.787
-40.055
-44.947
-49.14
-52.393
-54.67
-55.944
-56.174
-55.418
-53.751
-51.243
-48.015
-44.168
-39.787
-35.003
-29.94
-24.73
-19.541
-14.5
-9.7
-5.216
-1.075
2.715
6.142
9.218
11.968
14.423
16.632
18.641
20.486
22.22
23.898
25.585
27.357
29.276
31.381
33.708
36.276
39.102
42.199
45.571
49.212
53.118
57.283
61.702
66.377
71.301
76.46
81.839
87.419
93.18
99.106
105.178
111.373
117.671
124.048
130.482
136.951
143.432
149.894
156.309
162.645
168.87
174.952
180.86
186.561
192.022
197.213
202.106
206.672
210.886
214.721
218.155
221.165
223.733
225.839
227.469
228.609
229.248
229.377
228.99
228.085
226.66
224.717
222.26
219.297
215.836
211.89
207.473
202.6
197.29
191.564
185.444
178.954
172.119
164.968
157.529
149.831
141.905
133.781
125.491
117.067
108.539
99.939
91.297
82.645
74.013
65.428
56.921
48.518
40.245
32.128
24.19
16.452
8.936
1.659
-5.361
-12.109
-18.571
-24.735
-30.592
-36.132
-41.348
-46.234
-50.79
-55.018
-58.918
-62.493
-65.742
-68.672
-71.298
-73.623
-75.644
-77.358
-78.764
-79.873
-80.721
-81.322
-81.669
-81.791
-81.751
-81.603
-81.402
-81.169
-80.856
-80.457
-80.053
-79.591
-78.843
-77.767
-76.447
-74.865
-73.285
-71.256
-67.283
-61.666
-55.808
-51.962
-54.411
-62.994
-73.4
-81.367
-80.834
-71.294
-58.512
-46.952
-41.395
-42.779
-46.805
-50.8
-52.979
-52.757
-51.882
-51.172
-50.562
-50.115
-49.569
-48.851
-48.196
-47.677
-47.253
-46.928
-46.712
-46.595
-46.564
-46.599
-46.656
-46.722
-46.815
-46.94
-47.094
-47.276
-47.485
-47.721
-47.988
-48.288
-48.617
-48.974
-49.359
-49.771
-50.21
-50.677
-51.171
-51.691
-52.238
-52.81
-53.407
-54.028
-54.672
-55.337
-56.022
-56.725
-57.446
-58.182
-58.931
-59.691
-60.459
-61.233
-62.01
-62.785
-63.557
-64.319
-65.07
-65.804
-66.519
-67.209
-67.871
-68.499
-69.09
-69.638
-70.14
-70.589
-70.982
-71.313
-71.577
-71.772
-71.892
-71.934
-71.896
-71.773
-71.564
-71.266
-70.878
-70.397
-69.823
-69.154
-68.391
-67.535
-66.586
-65.547
-64.42
-63.208
-61.916
-60.548
-59.109
-57.603
-56.037
-54.417
-52.752
-51.048
-49.315
-47.563
-45.804
-44.051
-42.318
-40.621
-38.973
-37.387
-35.877
-34.458
-33.143
-31.944
-30.872
-29.936
-29.149
-28.525
-28.077
-27.814
-27.744
-27.87
-28.196
-28.726
-29.464
-30.403
-31.542
-32.878
-34.408
-36.145
-38.095
-40.254
-42.615
-45.165
-47.879
-50.741
-53.722
-56.778
-59.871
-62.953
-65.985
-68.939
-71.774
-74.452
-76.932
-79.151
-81.074
-82.681
-83.934
-84.824
-85.363
-85.548
-85.449
-85.147
-84.616
-83.937
-83.304
-82.875
-82.904
-83.574
-84.816
-86.709
-89.56
-93.422
-97.857
-102.128
-105.397
-106.997
-107.488
-108.178
-108.516
-107.518
-104.101
-95.05
-81.852
-70.293
-64.477
-71.856
-94.457
-123.412
-151.114
-167.488
-164.933
-147.906
-119.99
-83.609
-41.365
10.638
74.297
147.594
228.153
311.013
391.842
467.637
534.428
588.543
626.926
646.958
647.747
629.529
592.364
537.235
466.504
383.104
290.932
194.644
97.952
4.21
-82.777
-160.055
-225.523
-277.505
-315.72
-341.214
-354.882
-357.917
-352.085
-338.73
-319.414
-296.139
-270.291
-242.559
-213.878
-185.159
-157.409
-132.256
-110.68
-92.751
-78.548
-68.197
-61.465
-57.965
-56.732
-56.002
-54.669
-52.436
-49.176
-45.016
-40.161
-34.716
-29.228
-24.72
-21.738
-20.386
-20.532
-21.706
-23.551
-25.899
-28.414
-30.663
-32.35
-33.255
-33.307
-32.618
-31.263
-29.287
-26.763
-23.747
-20.339
-16.681
-12.91
-9.171
-5.567
-2.149
1.035
3.946
6.557
8.829
10.759
12.382
13.722
14.803
15.646
16.26
16.685
16.991
17.253
17.552
17.955
18.503
19.242
20.21
21.44
22.96
24.784
26.912
29.349
32.108
35.196
38.628
42.406
46.521
50.964
55.723
60.786
66.138
71.762
77.637
83.743
90.061
96.568
103.246
110.068
117.004
124.023
131.091
138.173
145.231
152.229
159.126
165.885
172.467
178.835
184.953
190.786
196.299
201.461
206.24
210.608
214.538
218.007
220.992
223.475
225.441
226.875
227.769
228.115
227.91
227.154
225.85
224.003
221.621
218.717
215.305
211.401
207.027
202.204
196.959
191.318
185.312
178.972
172.332
165.426
158.292
150.964
143.48
135.878
128.195
120.467
112.732
105.025
97.382
89.835
82.419
75.162
68.096
61.246
54.639
48.296
42.24
36.488
31.056
25.958
21.206
16.807
12.768
9.093
5.783
2.837
0.25
-1.983
-3.87
-5.422
-6.652
-7.574
-8.204
-8.559
-8.659
-8.524
-8.175
-7.634
-6.923
-6.066
-5.085
-4.005
-2.847
-1.636
-0.393
0.859
2.101
3.312
4.474
5.57
6.582
7.497
8.3
8.981
9.529
9.934
10.189
10.289
10.229
10.008
9.623
9.076
8.369
7.504
6.486
5.322
4.017
2.581
1.02
-0.654
-2.431
-4.301
-6.252
-8.271
-10.346
-12.466
-14.618
-16.789
-18.968
-21.145
-23.307
-25.446
-27.551
-29.614
-31.627
-33.582
-35.474
-37.296
-39.044
-40.714
-42.303
-43.809
-45.23
-46.567
-47.819
-48.988
-50.074
-51.081
-52.009
-52.863
-53.645
-54.36
-55.012
-55.605
-56.145
-56.636
-57.083
-57.492
-57.867
-58.212
-58.533
-58.831
-59.111
-59.374
-59.622
-59.857
-60.08
-60.289
-60.485
-60.666
-60.83
-60.976
-61.098
-61.195
-61.261
-61.291
-61.281
-61.224
-61.115
-60.948
-60.718
-60.418
-60.044
-59.588
-59.046
-58.411
-57.678
-56.843
-55.899
-54.844
-53.672
-52.382
-50.972
-49.441
-47.789
-46.018
-44.129
-42.128
-40.018
-37.805
-35.495
-33.098
-30.622
-28.078
-25.479
-22.836
-20.164
-17.48
-14.801
-12.147
-9.536
-6.989
-4.527
-2.17
0.062
2.148
4.072
5.815
7.361
8.692
9.79
10.637
11.215
11.51
11.509
11.202
10.579
9.634
8.371
6.792
4.9
2.694
0.165
-2.691
-5.873
-9.373
-13.18
-17.27
-21.617
-26.182
-30.908
-35.74
-40.625
-45.513
-50.369
-55.155
-59.825
-64.321
-68.572
-72.507
-76.074
-79.229
-81.938
-84.197
-86.02
-87.458
-88.603
-89.528
-90.308
-91.028
-91.76
-92.601
-93.661
-95.031
-96.848
-99.306
-102.501
-106.422
-110.901
-115.523
-119.832
-123.429
-125.817
-126.453
-125.025
-121.519
-116.439
-110.87
-105.931
-102.475
-101.184
-102.562
-106.656
-112.859
-119.524
-123.973
-123.198
-114.42
-95.347
-63.996
-18.964
40.051
111.918
193.962
282.27
372.471
460.237
540.841
609.547
662.409
696.244
709.103
700.731
671.661
622.979
557.1
477.214
386.766
290.042
191.416
94.396
2.443
-80.973
-153.412
-213.178
-258.945
-291.676
-314.199
-327.582
-332.61
-329.71
-315.962
-292.889
-267.052
-243.135
-228.759
-226.25
-227.195
-225.326
-213.616
-188.292
-157.032
-126.128
-100.352
-83.947
-73.829
-67.45
-64.103
-61.883
-61.195
-62.151
-63.553
-64.98
-66.041
-66.438
-66.555
-66.926
-67.796
-69.377
-71.726
-74.656
-77.979
-81.476
-84.797
-87.527
-89.389
-90.228
-90.004
-88.807
-86.722
-83.822
-80.216
-76.045
-71.46
-66.613
-61.651
-56.697
-51.846
-47.18
-42.774
-38.694
-34.987
-31.67
-28.735
-26.154
-23.907
-21.973
-20.327
-18.936
-17.753
-16.723
-15.785
-14.878
-13.949
-12.957
-11.862
-10.63
-9.235
-7.658
-5.889
-3.929
-1.77
0.595
3.176
5.979
9.006
12.255
15.722
19.403
23.29
27.375
31.647
36.096
40.71
45.477
50.383
55.416
60.558
65.789
71.085
76.422
81.772
87.109
92.403
97.624
102.741
107.723
112.541
117.166
121.567
125.716
129.584
133.144
136.369
139.234
141.715
143.791
145.441
146.646
147.391
147.662
147.446
146.736
145.523
143.803
141.574
138.837
135.593
131.85
127.616
122.899
117.715
112.078
106.006
99.519
92.638
85.387
77.79
69.876
61.67
53.203
44.503
35.603
26.532
17.322
8.006
-1.385
-10.818
-20.263
-29.687
-39.061
-48.355
-57.538
-66.583
-75.463
-84.151
-92.623
-100.854
-108.824
-116.51
-123.895
-130.961
-137.692
-144.074
-150.096
-155.745
-161.014
-165.895
-170.382
-174.471
-178.16
-181.448
-184.336
-186.825
-188.921
-190.627
-191.95
-192.898
-193.478
-193.7
-193.573
-193.11
-192.32
-191.218
-189.815
-188.126
-186.164
-183.945
-181.483
-178.794
-175.893
-172.795
-169.517
-166.073
-162.48
-158.753
-154.909
-150.963
-146.931
-142.829
-138.672
-134.475
-130.254
-126.021
-121.792
-117.579
-113.395
-109.253
-105.163
-101.139
-97.19
-93.327
-89.559
-85.897
-82.349
-78.922
-75.624
-72.462
-69.44
-66.565
-63.84
-61.269
-58.855
-56.601
-54.508
-52.577
-50.81
-49.204
-47.759
-46.473
-45.342
-44.362
-43.529
-42.838
-42.284
-41.86
-41.559
-41.376
-41.303
-41.332
-41.455
-41.664
-41.951
-42.306
-42.721
-43.185
-43.69
-44.227
-44.788
-45.362
-45.942
-46.519
-47.085
-47.631
-48.151
-48.636
-49.078
-49.47
-49.806
-50.079
-50.283
-50.413
-50.465
-50.434
-50.316
-50.11
-49.813
-49.422
-48.937
-48.356
-47.678
-46.906
-46.038
-45.076
-44.022
-42.88
-41.652
-40.343
-38.957
-37.496
-35.968
-34.377
-32.728
-31.029
-29.285
-27.503
-25.69
-23.856
-22.009
-20.157
-18.312
-16.482
-14.682
-12.924
-11.22
-9.583
-8.026
-6.562
-5.204
-3.962
-2.846
-1.863
-1.023
-0.334
0.195
0.552
0.73
0.722
0.521
0.122
-0.48
-1.287
-2.293
-3.491
-4.879
-6.46
-8.244
-10.239
-12.442
-14.85
-17.453
-20.233
-23.169
-26.224
-29.342
-32.472
-35.564
-38.574
-41.48
-44.252
-46.847
-49.213
-51.29
-53.025
-54.393
-55.371
-55.938
-56.108
-55.921
-55.457
-54.845
-54.191
-53.589
-53.136
-52.925
-53.066
-53.689
-54.901
-56.827
-59.627
-63.354
-67.947
-73.228
-78.798
-84.196
-88.996
-92.681
-94.657
-94.59
-92.533
-88.909
-84.623
-80.639
-77.551
-75.871
-76.221
-78.706
-82.555
-86.224
-87.223
-82.752
-70.765
-49.458
-16.753
28.603
86.572
155.901
233.578
315.516
397.986
476.969
547.482
604.823
645.057
665.183
663.92
642.236
601.427
542.378
468.242
381.091
283.262
181.959
82.624
-8.963
-86.441
-150.592
-202.673
-243.546
-276.056
-299.328
-312.387
-316.06
-310.358
-296.615
-276.651
-251.724
-223.251
-192.057
-158.979
-125.124
-91.948
-61.502
-35.18
-13.478
3.439
15.595
23.274
26.931
27.659
27.301
27.146
27.742
29.335
31.852
35.117
38.977
42.863
45.758
47.061
46.645
44.618
41.379
37.33
32.736
28.022
23.766
20.337
17.931
16.623
16.31
16.908
18.389
20.661
23.597
27.09
31.007
35.225
39.655
44.171
48.663
53.051
57.245
61.197
64.883
68.289
71.423
74.31
76.965
79.415
81.696
83.838
85.884
87.889
89.904
91.992
94.207
96.584
99.156
101.945
104.962
108.214
111.698
115.402
119.317
123.437
127.752
132.257
136.94
141.787
146.78
151.899
157.122
162.431
167.805
173.224
178.667
184.113
189.543
194.936
200.273
205.529
210.679
215.695
220.551
225.222
229.68
233.899
237.854
241.521
244.879
247.907
250.588
252.902
254.836
256.375
257.507
258.222
258.512
258.371
257.794
256.778
255.325
253.435
251.113
248.364
245.196
241.618
237.641
233.278
228.543
223.452
218.024
212.277
206.232
199.911
193.338
186.535
179.527
172.34
165
157.53
149.958
142.308
134.604
126.87
119.131
111.407
103.722
96.095
88.546
81.094
73.755
66.548
59.486
52.583
45.852
39.304
32.95
26.798
20.856
15.13
9.626
4.346
-0.707
-5.531
-10.127
-14.496
-18.64
-22.564
-26.271
-29.768
-33.06
-36.154
-39.059
-41.781
-44.328
-46.709
-48.933
-51.006
-52.937
-54.733
-56.402
-57.95
-59.384
-60.71
-61.933
-63.059
-64.093
-65.038
-65.899
-66.679
-67.381
-68.008
-68.563
-69.046
-69.459
-69.804
-70.08
-70.29
-70.431
-70.505
-70.51
-70.446
-70.312
-70.107
-69.829
-69.479
-69.056
-68.559
-67.989
-67.347
-66.634
-65.854
-65.007
-64.099
-63.133
-62.114
-61.047
-59.939
-58.796
-57.625
-56.433
-55.23
-54.022
-52.818
-51.627
-50.458
-49.318
-48.218
-47.165
-46.168
-45.237
-44.378
-43.602
-42.915
-42.326
-41.842
-41.469
-41.213
-41.08
-41.074
-41.199
-41.457
-41.85
-42.379
-43.043
-43.84
-44.768
-45.823
-46.999
-48.292
-49.695
-51.2
-52.799
-54.482
-56.241
-58.067
-59.948
-61.875
-63.837
-65.824
-67.824
-69.827
-71.821
-73.795
-75.738
-77.64
-79.488
-81.274
-82.988
-84.62
-86.162
-87.606
-88.944
-90.17
-91.278
-92.264
-93.123
-93.851
-94.449
-94.914
-95.248
-95.452
-95.527
-95.477
-95.305
-95.017
-94.618
-94.112
-93.507
-92.808
-92.025
-91.167
-90.241
-89.255
-88.217
-87.138
-86.03
-84.909
-83.788
-82.671
-81.574
-80.524
-79.545
-78.659
-77.877
-77.185
-76.581
-76.1
-75.735
-75.439
-75.18
-74.917
-74.636
-74.413
-74.286
-74.185
-74.181
-74.535
-75.294
-76.379
-77.854
-79.432
-81.526
-85.742
-91.769
-98.021
-102.129
-99.386
-89.675
-77.78
-68.555
-68.655
-78.797
-92.633
-104.944
-110.919
-110.792
-109.003
-107.113
-104.807
-98.543
-86.52
-72.217
-60.108
-56.281
-61.747
-70.901
-79.073
-81.512
-77.361
-71.031
-65.365
-62.339
-62.659
-64.557
-67.066
-69.844
-72.327
-74.369
-75.514
-74.958
-72.353
-67.755
-61.643
-55.05
-49.026
-44.379
-41.856
-42.116
-45.291
-50.745
-56.813
-60.847
-59.88
-51.232
-32.538
-1.442
43.683
103.125
175.668
258.277
346.656
436.332
522.551
599.708
662.595
707
729.725
729.728
707.567
664.231
601.913
524.376
435.702
340.267
242.649
146.195
53.724
-31.776
-108.404
-175.096
-230.973
-275.895
-310.205
-333.927
-347.508
-351.839
-347.297
-334.617
-315.092
-289.904
-260.466
-228.47
-195.297
-162.483
-132.065
-105.337
-82.829
-64.805
-50.935
-40.618
-33.347
-28.06
-23.158
-17.713
-11.348
-3.956
4.1
12.462
20.899
28.77
35.133
39.467
41.617
41.701
40.158
37.336
33.489
29.037
24.534
20.456
17.119
14.665
13.066
12.288
12.337
13.194
14.802
17.063
19.864
23.096
26.677
30.554
34.647
38.856
43.056
47.091
50.855
54.291
57.367
60.067
62.381
64.294
65.821
67.01
67.911
68.573
69.035
69.326
69.488
69.581
69.673
69.842
70.148
70.627
71.312
72.23
73.405
74.857
76.588
78.592
80.866
83.416
86.258
89.407
92.855
96.585
100.574
104.784
109.183
113.74
118.408
123.152
127.947
132.78
137.661
142.604
147.603
152.636
157.666
162.649
167.573
172.425
177.197
181.902
186.548
191.151
195.759
200.394
205.036
209.642
214.116
218.341
222.24
225.752
228.832
231.453
233.561
235.103
236.04
236.312
235.858
234.607
232.446
229.291
225.13
219.983
213.94
207.13
199.643
191.558
182.952
173.88
164.415
154.627
144.563
134.283
123.86
113.388
102.996
92.802
82.865
73.218
63.851
54.716
45.795
37.078
28.547
20.204
12.051
4.094
-3.637
-11.109
-18.312
-25.245
-31.932
-38.397
-44.637
-50.64
-56.381
-61.818
-66.923
-71.676
-76.046
-80.017
-83.582
-86.74
-89.505
-91.899
-93.935
-95.626
-96.979
-97.999
-98.698
-99.094
-99.204
-99.048
-98.649
-98.027
-97.208
-96.215
-95.07
-93.79
-92.391
-90.886
-89.289
-87.613
-85.874
-84.085
-82.262
-80.418
-78.568
-76.728
-74.911
-73.128
-71.392
-69.712
-68.097
-66.555
-65.095
-63.723
-62.445
-61.265
-60.19
-59.223
-58.367
-57.624
-56.996
-56.485
-56.09
-55.811
-55.648
-55.598
-55.661
-55.835
-56.117
-56.506
-57
-57.594
-58.287
-59.075
-59.953
-60.918
-61.965
-63.088
-64.281
-65.539
-66.856
-68.225
-69.64
-71.095
-72.584
-74.1
-75.636
-77.185
-78.74
-80.295
-81.844
-83.379
-84.894
-86.382
-87.839
-89.257
-90.631
-91.955
-93.225
-94.433
-95.576
-96.648
-97.646
-98.564
-99.398
-100.146
-100.803
-101.367
-101.834
-102.203
-102.472
-102.638
-102.701
-102.661
-102.516
-102.269
-101.918
-101.465
-100.912
-100.261
-99.513
-98.672
-97.738
-96.716
-95.609
-94.422
-93.157
-91.82
-90.415
-88.947
-87.423
-85.849
-84.229
-82.57
-80.879
-79.16
-77.423
-75.676
-73.927
-72.186
-70.465
-68.77
-67.117
-65.52
-63.985
-62.516
-61.119
-59.798
-58.565
-57.441
-56.422
-55.506
-54.727
-54.113
-53.687
-53.478
-53.471
-53.631
-53.984
-54.569
-55.275
-55.974
-56.738
-57.56
-58.431
-59.623
-60.427
-60.152
-59.774
-59.579
-61.359
-67.252
-74.819
-82.425
-87.655
-87.214
-83.97
-80.347
-77.982
-79.597
-83.148
-86.574
-89.402
-90.386
-90.225
-89.834
-89.065
-88.087
-86.922
-85.48
-83.972
-82.586
-81.392
-80.494
-80.014
-80.102
-80.949
-82.677
-85.275
-88.575
-92.244
-95.902
-99.208
-101.751
-103.035
-102.736
-100.815
-97.722
-94.435
-92.028
-91.362
-93.067
-97.606
-105.066
-114.943
-125.763
-135.026
-139.737
-136.972
-124.431
-100.174
-62.557
-10.993
53.712
129.479
211.904
295.988
378.42
454.795
522.134
578.448
617.828
636.425
631.333
599.679
545.468
473.609
389.088
298.439
204.343
109.409
17.003
-70.452
-149.121
-215.979
-269.541
-308.831
-334.64
-348.433
-351.414
-345.178
-331.159
-310.814
-286.188
-259.087
-230.471
-201.218
-172.207
-144.45
-119.581
-98.656
-81.727
-68.721
-59.622
-54.178
-52.058
-52.338
-53.26
-53.69
-53.321
-52.046
-49.963
-47.188
-43.718
-40.014
-37.049
-35.371
-35.048
-35.909
-37.555
-39.718
-42.306
-45.061
-47.534
-49.392
-50.42
-50.555
-49.912
-48.574
-46.57
-43.956
-40.835
-37.343
-33.656
-29.954
-26.332
-22.843
-19.521
-16.386
-13.471
-10.81
-8.416
-6.273
-4.358
-2.656
-1.153
0.157
1.301
2.332
3.325
4.365
5.511
6.809
8.292
9.989
11.931
14.139
16.627
19.391
22.432
25.758
29.377
33.302
37.534
42.069
46.895
51.999
57.367
62.987
68.841
74.91
81.174
87.613
94.208
100.94
107.788
114.724
121.719
128.741
135.759
142.738
149.645
156.441
163.093
169.564
175.82
181.829
187.557
192.974
198.048
202.753
207.06
210.943
214.38
217.347
219.825
221.796
223.246
224.162
224.534
224.356
223.624
222.337
220.497
218.109
215.179
211.717
207.736
203.252
198.282
192.847
186.971
180.677
173.996
166.954
159.585
151.918
143.988
135.828
127.471
118.953
110.307
101.568
92.772
83.952
75.142
66.376
57.686
49.104
40.662
32.386
24.306
16.448
8.835
1.491
-5.565
-12.314
-18.739
-24.827
-30.565
-35.945
-40.96
-45.604
-49.876
-53.777
-57.308
-60.474
-63.282
-65.739
-67.856
-69.644
-71.115
-72.283
-73.164
-73.774
-74.13
-74.249
-74.151
-73.854
-73.377
-72.742
-71.967
-71.072
-70.076
-69
-67.861
-66.679
-65.47
-64.252
-63.04
-61.85
-60.694
-59.585
-58.535
-57.553
-56.648
-55.826
-55.093
-54.454
-53.913
-53.471
-53.131
-52.892
-52.754
-52.715
-52.774
-52.928
-53.172
-53.503
-53.917
-54.407
-54.968
-55.596
-56.283
-57.023
-57.811
-58.639
-59.502
-60.392
-61.304
-62.23
-63.167
-64.107
-65.047
-65.982
-66.908
-67.822
-68.721
-69.602
-70.464
-71.305
-72.124
-72.92
-73.691
-74.438
-75.16
-75.856
-76.528
-77.174
-77.794
-78.389
-78.958
-79.5
-80.014
-80.5
-80.956
-81.381
-81.774
-82.133
-82.456
-82.742
-82.989
-83.193
-83.353
-83.465
-83.525
-83.529
-83.473
-83.352
-83.161
-82.896
-82.553
-82.126
-81.612
-81.006
-80.304
-79.502
-78.597
-77.585
-76.463
-75.23
-73.884
-72.424
-70.851
-69.166
-67.371
-65.469
-63.464
-61.36
-59.163
-56.879
-54.514
-52.077
-49.577
-47.022
-44.425
-41.797
-39.153
-36.509
-33.883
-31.291
-28.752
-26.285
-23.906
-21.636
-19.491
-17.484
-15.631
-13.944
-12.44
-11.135
-10.045
-9.181
-8.557
-8.183
-8.067
-8.217
-8.638
-9.324
-10.27
-11.474
-12.939
-14.679
-16.701
-19.001
-21.574
-24.407
-27.482
-30.779
-34.26
-37.868
-41.546
-45.241
-48.908
-52.521
-56.043
-59.426
-62.61
-65.519
-68.093
-70.295
-72.097
-73.472
-74.42
-74.963
-75.161
-75.112
-74.919
-74.677
-74.48
-74.418
-74.581
-75.055
-75.972
-77.515
-79.823
-82.916
-86.66
-90.781
-94.97
-98.949
-102.32
-104.513
-105.052
-103.761
-100.994
-97.509
-94.046
-91.298
-89.979
-90.836
-94.484
-100.094
-105.087
-106.934
-103.578
-95.323
-84.489
-70.21
-48.641
-13.417
43.282
123.576
223.145
333.993
443.705
540.441
616.64
666.703
690.651
692.905
676.741
645.951
601.6
541.872
467.643
380.945
285.531
187.323
90.556
-1.496
-85.486
-159.067
-220.268
-267.516
-300.641
-320.466
-327.94
-324.416
-311.938
-292.992
-270.33
-246.65
-223.941
-203.28
-185.483
-171.311
-160.906
-153.717
-148.763
-144.605
-139.928
-134.224
-127.219
-118.503
-108.026
-96.06
-83.114
-70.214
-58.493
-48.5
-40.53
-34.828
-31.357
-30.01
-30.591
-32.588
-35.376
-38.498
-41.599
-44.412
-46.832
-48.751
-50.077
-50.776
-50.792
-50.117
-48.805
-46.887
-44.406
-41.401
-37.869
-33.879
-29.636
-25.205
-20.477
-15.544
-10.555
-5.535
-0.808
4.114
10.691
18.5
26.2
31.473
30.054
22.436
12.879
5.708
7.072
17.128
30.239
42.085
47.885
47.064
43.934
41.076
40.338
42.19
44.887
47.689
50.646
53.712
57.163
61.055
65.149
69.373
73.757
78.281
82.923
87.678
92.542
97.521
102.639
107.892
113.243
118.67
124.154
129.671
135.197
140.704
146.156
151.526
156.786
161.907
166.859
171.615
176.146
180.426
184.43
188.133
191.511
194.542
197.206
199.484
201.358
202.814
203.838
204.42
204.551
204.227
203.443
202.199
200.496
198.337
195.728
192.678
189.198
185.3
180.999
176.313
171.262
165.866
160.149
154.134
147.849
141.318
134.57
127.632
120.534
113.302
105.967
98.557
91.1
83.624
76.158
68.726
61.356
54.072
46.898
39.857
32.969
26.255
19.732
13.419
7.33
1.478
-4.123
-9.464
-14.537
-19.335
-23.852
-28.085
-32.034
-35.699
-39.08
-42.182
-45.009
-47.566
-49.862
-51.905
-53.703
-55.267
-56.609
-57.739
-58.67
-59.415
-59.986
-60.396
-60.659
-60.787
-60.795
-60.694
-60.498
-60.219
-59.87
-59.461
-59.005
-58.513
-57.995
-57.46
-56.918
-56.377
-55.846
-55.332
-54.841
-54.378
-53.95
-53.561
-53.214
-52.912
-52.657
-52.451
-52.295
-52.189
-52.134
-52.129
-52.174
-52.266
-52.404
-52.588
-52.814
-53.08
-53.384
-53.723
-54.093
-54.493
-54.919
-55.367
-55.835
-56.319
-56.816
-57.321
-57.832
-58.345
-58.856
-59.36
-59.856
-60.338
-60.803
-61.249
-61.672
-62.069
-62.437
-62.773
-63.074
-63.338
-63.562
-63.744
-63.879
-63.967
-64.004
-63.987
-63.915
-63.783
-63.591
-63.336
-63.016
-62.628
-62.17
-61.64
-61.037
-60.358
-59.602
-58.768
-57.854
-56.859
-55.783
-54.626
-53.387
-52.067
-50.663
-49.179
-47.615
-45.973
-44.256
-42.464
-40.596
-38.659
-36.659
-34.594
-32.462
-30.264
-27.997
-25.674
-23.314
-20.915
-18.473
-16.021
-13.587
-11.194
-8.878
-6.629
-4.42
-2.283
-0.272
1.705
3.755
5.791
7.803
9.799
11.5
13.597
16.767
20.009
23.015
23.962
20.673
15.54
10.159
6.907
9.053
13.697
18.385
21.439
20.09
16.342
12.221
8.189
5.481
3.385
0.993
-1.508
-4.229
-7.107
-9.951
-12.878
-15.955
-19.092
-22.233
-25.352
-28.426
-31.46
-34.438
-37.296
-39.959
-42.354
-44.425
-46.155
-47.481
-48.29
-48.561
-48.346
-47.831
-47.38
-47.286
-47.697
-48.715
-50.369
-52.502
-54.864
-56.979
-58.072
-57.434
-54.5
-49.023
-41.138
-31.349
-20.404
-9.299
0.673
8.074
11.365
9.516
2.139
-10.524
-27.544
-47.666
-69.24
-89.969
-106.865
-117.073
-118.011
-107.588
-84.702
-48.509
1.457
64.483
138.671
221.442
309.293
398.361
485.206
565.799
635.732
691.451
729.909
748.532
746.414
723.526
679.884
617.82
540.783
451.091
352.806
248.977
141.507
36.683
-59.873
-142.607
-205.814
-250.633
-279.372
-294.602
-299.913
-294.791
-279.673
-256.802
-227.866
-196.413
-165.244
-135.577
-109.27
-87.656
-70.9
-58.878
-50.867
-45.538
-41.991
-39.413
-36.376
-31.647
-24.668
-15.26
-3.82
8.795
21.932
34.897
46.676
56.53
64.067
69.086
71.776
72.528
71.672
69.639
66.946
63.932
60.834
57.86
55.117
52.708
50.764
49.329
48.399
47.994
48.126
48.804
50.03
51.753
53.88
56.328
59.039
61.962
65.047
68.219
71.37
74.415
77.293
79.967
82.423
84.643
86.619
88.361
89.902
91.287
92.571
93.798
94.999
96.212
97.477
98.842
100.368
102.102
104.075
106.316
108.842
111.67
114.816
118.281
122.055
126.126
130.484
135.117
140.019
145.175
150.566
156.17
161.963
167.918
174.013
180.221
186.513
192.859
199.23
205.595
211.927
218.196
224.369
230.412
236.291
241.971
247.42
252.605
257.492
262.051
266.252
270.068
273.473
276.444
278.959
280.997
282.542
283.579
284.096
284.082
283.531
282.44
280.807
278.634
275.927
272.692
268.94
264.684
259.94
254.725
249.059
242.966
236.468
229.594
222.369
214.825
206.991
198.9
190.583
182.074
173.407
164.614
155.73
146.787
137.819
128.858
119.934
111.079
102.322
93.691
85.213
76.912
68.813
60.937
53.304
45.931
38.834
32.027
25.521
19.326
13.45
7.896
2.67
-2.228
-6.798
-11.042
-14.964
-18.57
-21.867
-24.864
-27.569
-29.993
-32.149
-34.048
-35.705
-37.132
-38.344
-39.356
-40.182
-40.838
-41.339
-41.699
-41.934
-42.057
-42.082
-42.023
-41.893
-41.703
-41.465
-41.19
-40.888
-40.568
-40.239
-39.908
-39.582
-39.268
-38.972
-38.698
-38.45
-38.232
-38.048
-37.9
-37.789
-37.717
-37.687
-37.698
-37.752
-37.849
-37.989
-38.172
-38.4
-38.671
-38.985
-39.343
-39.744
-40.188
-40.675
-41.206
-41.78
-42.398
-43.059
-43.764
-44.512
-45.304
-46.14
-47.018
-47.939
-48.902
-49.905
-50.948
-52.03
-53.148
-54.301
-55.487
-56.702
-57.945
-59.211
-60.498
-61.8
-63.114
-64.434
-65.754
-67.07
-68.376
-69.664
-70.928
-72.162
-73.359
-74.512
-75.613
-76.656
-77.632
-78.535
-79.358
-80.094
-80.737
-81.279
-81.716
-82.041
-82.252
-82.343
-82.311
-82.154
-81.869
-81.455
-80.912
-80.24
-79.44
-78.514
-77.465
-76.297
-75.015
-73.625
-72.133
-70.547
-68.877
-67.131
-65.319
-63.454
-61.546
-59.606
-57.649
-55.688
-53.737
-51.809
-49.922
-48.09
-46.334
