Name,John Breau
Date of Birth,"Dec 20, 1971"
Recorded Date,2023-06-21 08:21:31 -0500
Classification,Sinus Rhythm
Symptoms,
Software Version,1.90
Device,"Watch6,3"
Sample Rate,512 hertz


Lead,Lead I
Unit,µV

-183.454
-254.299
-289.719
-283.543
-246.034
-200.183
-163.34
-141.597
-131.968
-124.809
-114.225
-99.934
-84.041
-70.076
-59.54
-51.616
-45.105
-38.943
-32.481
-25.497
-17.906
-9.729
-1.157
7.316
15.04
21.62
26.79
30.449
32.746
33.883
34.147
33.969
33.807
34.011
34.88
36.633
39.382
43.236
48.228
54.314
61.432
69.5
78.446
88.2
98.661
109.693
121.157
132.922
144.858
156.83
168.653
180.104
190.972
201.067
210.272
218.516
225.741
231.912
237.019
241.072
244.14
246.317
247.688
248.334
248.349
247.846
247.012
246.101
245.355
244.984
245.146
245.94
247.464
249.793
252.964
256.961
261.697
267.039
272.849
278.985
285.283
291.551
297.529
302.865
307.191
310.15
311.414
310.693
307.732
302.258
294.008
282.871
268.879
252.186
233.109
211.944
188.801
163.829
137.259
109.16
79.627
48.693
16.037
-18.471
-54.355
-90.979
-127.547
-162.85
-195.993
-226.157
-251.963
-272.44
-287.437
-297.041
-301.778
-302.798
-300.793
-296.37
-290.936
-285.536
-280.616
-276.614
-273.554
-271.015
-269.091
-267.936
-266.91
-265.597
-263.902
-261.608
-258.838
-255.902
-252.662
-248.938
-245.016
-241.04
-237.032
-233.092
-229.067
-224.787
-220.319
-215.711
-210.983
-206.32
-201.897
-197.918
-194.553
-191.732
-189.463
-187.945
-187.137
-186.817
-186.658
-186.002
-184.578
-182.73
-180.476
-177.52
-173.806
-169.335
-164.531
-160.667
-158.56
-158.135
-159.489
-162.938
-168.67
-176.893
-187.098
-196.378
-200.937
-198.556
-187.75
-169.846
-148.342
-122.632
-89.21
-42.282
26.411
119.008
230.349
351.478
467.871
565.755
637.108
676.056
682.922
662.874
619.948
558.771
480.569
384.472
270.811
141.571
5.131
-129.591
-253.798
-358.864
-444.114
-509.869
-556.525
-587.327
-601.453
-598.03
-578.873
-545.76
-502.614
-453.995
-403.092
-352.159
-303.034
-257.774
-218.069
-184.998
-158.821
-138.675
-123.435
-112.419
-104.602
-98.49
-92.658
-85.65
-76.725
-66.118
-54.245
-41.465
-28.315
-15.455
-3.699
5.971
13.092
17.76
20.248
20.992
20.416
18.895
16.976
15.288
14.265
14.168
15.102
17.015
19.882
23.686
28.345
33.757
39.803
46.358
53.325
60.618
68.144
75.808
83.48
91.028
98.326
105.253
111.725
117.698
123.137
128.026
132.372
136.185
139.495
142.349
144.783
146.832
148.532
149.908
151.001
151.855
152.516
153.029
153.428
153.73
153.955
154.112
154.205
154.236
154.201
154.089
153.893
153.612
153.244
152.789
152.248
151.614
150.885
150.054
149.118
148.074
146.919
145.648
144.259
142.749
141.118
139.365
137.487
135.481
133.344
131.071
128.658
126.101
123.396
120.54
117.531
114.367
111.048
107.574
103.945
100.164
96.232
92.151
87.925
83.557
79.051
74.412
69.646
64.759
59.757
54.647
49.439
44.139
38.757
33.303
27.785
22.214
16.602
10.957
5.293
-0.379
-6.048
-11.7
-17.325
-22.909
-28.44
-33.907
-39.297
-44.599
-49.802
-54.895
-59.868
-64.71
-69.412
-73.962
-78.353
-82.576
-86.621
-90.481
-94.148
-97.615
-100.876
-103.925
-106.755
-109.361
-111.738
-113.882
-115.788
-117.452
-118.873
-120.046
-120.971
-121.646
-122.071
-122.245
-122.17
-121.846
-121.275
-120.458
-119.397
-118.096
-116.556
-114.78
-112.774
-110.541
-108.085
-105.413
-102.528
-99.436
-96.145
-92.658
-88.985
-85.13
-81.101
-76.905
-72.551
-68.049
-63.407
-58.634
-53.743
-48.744
-43.648
-38.469
-33.217
-27.905
-22.545
-17.152
-11.737
-6.315
-0.899
4.495
9.852
15.155
20.386
25.527
30.562
35.471
40.239
44.847
49.28
53.527
57.573
61.408
65.017
68.388
71.51
74.374
76.973
79.3
81.352
83.124
84.62
85.848
86.815
87.527
87.984
88.178
88.108
87.777
87.19
86.354
85.278
83.977
82.478
80.824
79.059
77.227
75.364
73.502
71.678
69.943
68.35
66.965
65.842
65.021
64.536
64.415
64.665
65.277
66.222
67.422
68.779
70.186
71.522
72.673
73.545
74.006
73.853
72.923
71.131
68.525
65.316
61.72
57.908
54.155
50.904
48.578
47.447
47.364
47.717
47.981
47.619
45.955
42.296
35.773
26.779
17.59
10.58
8.122
9.917
12.372
15.107
19.986
33.281
67.152
127.93
217.675
332.54
457.463
577.765
678.735
748.02
784.468
791.612
776.343
746.236
702.404
642.53
564.01
466.015
352.766
231.47
108.151
-11.711
-124.751
-228.635
-317.271
-386.131
-431.311
-449.874
-446.403
-425.599
-392.831
-354.946
-313.27
-269.321
-225.163
-180.96
-139.177
-101.957
-69.266
-41.32
-17.752
2.604
20.041
34.699
47.264
58.214
67.887
76.865
85.595
94.035
102.208
110.125
117.53
124.237
130.035
134.523
137.29
138.252
137.544
135.379
132.117
128.111
123.687
119.278
115.366
112.277
110.159
109.066
108.934
109.684
111.27
113.588
116.49
119.848
123.531
127.432
131.478
135.574
139.6
143.444
146.984
150.108
152.755
154.884
156.471
157.525
158.059
158.097
157.679
156.852
155.661
154.148
152.348
150.293
148.024
145.586
143.026
140.392
137.718
135.028
132.339
129.662
127.003
124.367
121.751
119.147
116.553
113.965
111.386
108.818
106.261
103.712
101.169
98.627
96.082
93.532
90.975
88.406
85.822
83.223
80.604
77.968
75.312
72.632
69.927
67.191
64.421
61.616
58.772
55.886
52.956
49.982
46.962
43.899
40.792
37.644
34.456
31.232
27.974
24.686
21.374
18.041
14.693
11.337
7.979
4.625
1.285
-2.035
-5.325
-8.577
-11.782
-14.931
-18.013
-21.021
-23.945
-26.777
-29.508
-32.131
-34.637
-37.021
-39.274
-41.392
-43.369
-45.2
-46.881
-48.409
-49.78
-50.993
-52.045
-52.937
-53.667
-54.237
-54.645
-54.895
-54.987
-54.924
-54.709
-54.346
-53.837
-53.187
-52.401
-51.484
-50.44
-49.276
-47.995
-46.605
-45.11
-43.516
-41.828
-40.05
-38.186
-36.241
-34.218
-32.12
-29.948
-27.704
-25.392
-23.013
-20.57
-18.064
-15.496
-12.868
-10.181
-7.436
-4.632
-1.765
1.167
4.166
7.233
10.369
13.575
16.851
20.2
23.62
27.106
30.656
34.271
37.956
41.718
45.555
49.455
53.403
57.386
61.392
65.407
69.413
73.385
77.304
81.164
84.967
88.719
92.416
96.039
99.558
102.945
106.183
109.272
112.218
115.015
117.659
120.151
122.506
124.751
126.892
128.899
130.716
132.286
133.573
134.566
135.271
135.689
135.803
135.588
135.011
134.057
132.715
130.961
128.751
126.039
122.812
119.117
115.061
110.742
106.237
101.603
96.874
92.105
87.371
82.748
78.319
74.143
70.274
66.776
63.726
61.181
59.154
57.591
56.376
55.396
54.545
53.711
52.792
51.67
50.231
48.34
45.791
42.433
38.218
33.239
27.767
22.095
16.466
11.276
7.105
4.431
3.507
4.052
5.212
6.28
6.592
5.288
1.571
-5.319
-14.921
-24.749
-31.966
-34.81
-33.836
-31.147
-26.475
-14.797
12.569
63.651
141.776
241.976
353.632
466.082
568.139
653.492
718.946
760.286
778.418
773.207
744.083
693.9
621.925
529.094
419.49
296.43
166.563
37.865
-84.907
-197.969
-299.082
-389.029
-465.779
-524.508
-560.325
-568.112
-547.418
-504.436
-449.517
-392.552
-340.588
-296.252
-256.226
-218.172
-181.339
-145.158
-112.892
-86.638
-66.128
-51.384
-40.689
-32.209
-25.225
-18.911
-12.602
-5.834
1.601
9.581
17.84
25.967
33.574
40.378
45.957
49.848
51.95
52.415
51.491
49.588
47.093
44.308
41.631
39.5
38.178
37.823
38.493
40.117
42.624
45.951
49.981
54.582
59.64
65.039
70.688
76.522
82.453
88.395
94.267
99.98
105.455
110.616
115.408
119.805
123.805
127.424
130.685
133.615
136.246
138.622
140.779
142.751
144.568
146.25
147.823
149.318
150.768
152.205
153.655
155.129
156.634
158.171
159.739
161.333
162.945
164.559
166.162
167.744
169.299
170.821
172.303
173.734
175.105
176.403
177.619
178.744
179.77
180.686
181.485
182.16
182.706
183.117
183.39
183.519
183.497
183.321
182.986
182.486
181.82
180.983
179.972
178.785
177.423
175.885
174.172
172.283
170.221
167.988
165.587
163.02
160.292
157.406
154.366
151.179
147.848
144.38
140.78
137.055
133.211
129.256
125.195
121.037
116.789
112.458
108.051
103.578
99.044
94.457
89.824
85.152
80.448
75.719
70.972
66.212
61.446
56.681
51.924
47.181
42.46
37.767
33.11
28.494
23.928
19.417
14.968
10.588
6.282
2.056
-2.083
-6.131
-10.08
-13.927
-17.668
-21.297
-24.811
-28.208
-31.485
-34.64
-37.671
-40.575
-43.351
-45.995
-48.507
-50.882
-53.117
-55.209
-57.156
-58.958
-60.613
-62.12
-63.482
-64.699
-65.778
-66.72
-67.527
-68.201
-68.741
-69.148
-69.422
-69.563
-69.57
-69.442
-69.18
-68.787
-68.269
-67.63
-66.872
-65.992
-64.986
-63.853
-62.599
-61.23
-59.753
-58.182
-56.534
-54.84
-53.141
-51.466
-49.837
-48.266
-46.753
-45.299
-43.909
-42.583
-41.322
-40.122
-38.975
-37.877
-36.833
-35.83
-34.842
-33.824
-32.706
-31.443
-30.023
-28.445
-26.731
-24.915
-23.029
-21.127
-19.28
-17.549
-15.995
-14.667
-13.594
-12.824
-12.421
-12.469
-13.071
-14.294
-16.157
-18.651
-21.746
-25.385
-29.504
-34.008
-38.763
-43.649
-48.559
-53.393
-58.077
-62.527
-66.644
-70.325
-73.48
-76.059
-78.067
-79.547
-80.54
-81.115
-81.367
-81.426
-81.457
-81.617
-82.032
-82.854
-84.295
-86.514
-89.572
-93.424
-97.841
-102.511
-107.1
-111.115
-113.918
-115.043
-114.353
-112.038
-108.698
-105.195
-102.513
-101.829
-104.433
-110.385
-118.249
-126.419
-133.449
-139.873
-147.14
-153.673
-153.928
-138.793
-100.299
-35.756
51.514
153.926
264.822
377.801
485.076
577.082
642.452
673.821
671.185
640.945
591.508
527.919
450.833
358.49
250.902
131.92
7.899
-114.327
-229.379
-333.504
-423.829
-498.326
-555.616
-595.246
-618.044
-625.268
-618.436
-599.511
-570.781
-534.624
-493.37
-449.233
-403.785
-358.435
-314.797
-274.11
-237.181
-204.68
-176.941
-153.906
-135.729
-122.287
-112.769
-106.466
-102.77
-100.888
-100.297
-100.544
-100.8
-100.627
-100.155
-99.389
-98.366
-97.233
-95.832
-94.268
-93.14
-92.645
-92.645
-93.077
-93.728
-94.466
-95.451
-96.514
-97.102
-96.942
-95.922
-93.98
-91.264
-87.81
-83.479
-78.366
-72.764
-66.89
-60.949
-55.077
-49.283
-43.651
-38.329
-33.384
-28.826
-24.643
-20.784
-17.224
-13.971
-11.005
-8.292
-5.793
-3.46
-1.256
0.842
2.866
4.848
6.824
8.836
10.91
13.061
15.297
17.617
20.022
22.508
25.068
27.687
30.352
33.05
35.768
38.499
41.232
43.954
46.653
49.313
51.92
54.464
56.931
59.31
61.589
63.756
65.802
67.718
69.494
71.122
72.59
73.89
75.013
75.95
76.695
77.241
77.582
77.714
77.635
77.345
76.843
76.13
75.209
74.083
72.757
71.238
69.531
67.643
65.585
63.363
60.989
58.474
55.827
53.062
50.191
47.226
44.18
41.067
37.9
34.692
31.457
28.208
24.958
21.718
18.502
15.322
12.188
9.112
6.104
3.173
0.326
-2.427
-5.082
-7.632
-10.072
-12.4
-14.612
-16.706
-18.681
-20.536
-22.272
-23.888
-25.388
-26.773
-28.047
-29.212
-30.274
-31.237
-32.106
-32.887
-33.586
-34.209
-34.761
-35.25
-35.682
-36.063
-36.399
-36.698
-36.966
-37.208
-37.43
-37.638
-37.835
-38.026
-38.215
-38.404
-38.595
-38.789
-38.988
-39.19
-39.398
-39.608
-39.821
-40.034
-40.245
-40.452
-40.65
-40.837
-41.007
-41.157
-41.282
-41.376
-41.435
-41.455
-41.43
-41.357
-41.231
-41.048
-40.805
-40.499
-40.126
-39.683
-39.169
-38.584
-37.927
-37.201
-36.406
-35.549
-34.636
-33.675
-32.675
-31.645
-30.595
-29.535
-28.478
-27.438
-26.429
-25.462
-24.55
-23.708
-22.952
-22.296
-21.755
-21.341
-21.062
-20.927
-20.944
-21.125
-21.475
-21.999
-22.695
-23.564
-24.612
-25.845
-27.266
-28.874
-30.665
-32.627
-34.746
-37.009
-39.393
-41.87
-44.41
-46.974
-49.521
-52.024
-54.453
-56.787
-59.015
-61.099
-62.997
-64.663
-66.043
-67.131
-67.968
-68.573
-68.95
-69.162
-69.313
-69.649
-70.551
-72.243
-74.76
-78.077
-82.168
-87.031
-92.601
-98.44
-103.65
-107.479
-109.594
-109.998
-108.886
-106.309
-102.31
-97.455
-93.164
-91.039
-92.122
-96.809
-104.907
-116.185
-130.451
-146.867
-163.301
-176.737
-184.284
-183.398
-172.142
-148.856
-111.712
-59.563
7.135
86.371
175.209
269.888
366.309
460.061
545.687
617.58
670.998
702.187
708.54
688.928
643.281
572.58
479.823
369.477
246.609
117.084
-12.931
-137.987
-253.014
-353.13
-435.991
-500.584
-545.224
-570.728
-577.153
-564.198
-537.187
-500.928
-460.766
-422.985
-386.805
-350.836
-314.179
-275.088
-236.68
-201.926
-172.126
-148.709
-130.538
-116.589
-106.819
-100.257
-96.126
-93.513
-90.923
-87.645
-83.593
-78.596
-72.738
-66.414
-60
-54.143
-49.71
-47.03
-46.047
-46.66
-48.554
-51.357
-54.775
-58.354
-61.546
-64.046
-65.692
-66.378
-66.155
-65.066
-63.129
-60.456
-57.179
-53.396
-49.217
-44.717
-39.943
-34.979
-29.908
-24.797
-19.728
-14.77
-9.985
-5.454
-1.229
2.668
6.228
9.461
12.386
15.018
17.386
19.525
21.468
23.244
24.88
26.393
27.81
29.158
30.465
31.766
33.086
34.436
35.824
37.254
38.725
40.237
41.782
43.346
44.918
46.491
48.057
49.615
51.158
52.676
54.161
55.603
56.993
58.325
59.59
60.779
61.886
62.905
63.831
64.66
65.388
66.01
66.52
66.913
67.185
67.33
67.346
67.228
66.973
66.58
66.047
65.376
64.566
63.62
62.539
61.327
59.988
58.527
56.949
55.26
53.466
51.574
49.592
47.528
45.39
43.188
40.929
38.624
36.283
33.914
31.529
29.136
26.746
24.368
22.011
19.685
17.399
15.161
12.981
10.867
8.826
6.867
4.995
3.218
1.54
-0.033
-1.498
-2.851
-4.09
-5.212
-6.217
-7.103
-7.87
-8.52
-9.054
-9.473
-9.781
-9.981
-10.076
-10.072
-9.973
-9.784
-9.512
-9.161
-8.739
-8.252
-7.706
-7.109
-6.467
-5.787
-5.077
-4.343
-3.593
-2.833
-2.069
-1.308
-0.555
0.186
0.91
1.614
2.296
2.952
3.582
4.186
4.762
5.311
5.835
6.335
6.814
7.276
7.724
8.162
8.597
9.032
9.472
9.925
10.394
10.886
11.407
11.962
12.557
13.196
13.887
14.632
15.438
16.306
17.242
18.246
19.319
20.461
21.669
22.938
24.263
25.636
27.049
28.492
29.955
31.427
32.899
34.36
35.8
37.207
38.567
39.865
41.087
42.219
43.246
44.154
44.932
45.568
46.057
46.394
46.573
46.584
46.413
46.04
45.454
44.643
43.599
42.325
40.824
39.113
37.224
35.191
33.051
30.84
28.582
26.307
24.049
21.848
19.759
17.84
16.137
14.698
13.558
12.718
12.165
11.848
11.682
11.594
11.493
11.263
10.807
10.013
8.764
6.98
4.517
1.148
-3.259
-8.748
-15.241
-22.408
-29.876
-37.312
-44.176
-49.801
-53.74
-55.776
-56.058
-55.278
-54.336
-54.084
-55.534
-59.876
-66.824
-74.69
-81.995
-86.314
-87.609
-88.84
-88.96
-85.144
-70.863
-33.938
31.522
126.487
246.972
379.231
509.562
624.866
713.34
770.53
797.864
801.639
789.251
766.704
733.611
682.02
605.189
497.319
359.409
205.63
52.03
-85.952
-195.741
-277.732
-337.826
-380.735
-412.191
-432.225
-437.061
-426.702
-402.573
-368.031
-328.732
-288.523
-249.336
-212.867
-180.427
-152.826
-130.622
-113.629
-100.784
-90.985
-83.621
-77.905
-72.74
-67.179
-60.3
-51.738
-41.916
-31.356
-20.436
-9.661
0.402
9.14
15.798
20.049
22.053
22.077
20.484
17.654
13.888
9.594
5.303
1.361
-2.032
-4.745
-6.755
-8.006
-8.42
-8.001
-6.809
-4.917
-2.413
0.632
4.163
8.098
12.35
16.83
21.437
26.095
30.732
35.268
39.629
43.733
47.514
50.939
54
56.702
59.059
61.088
62.813
64.267
65.482
66.488
67.312
67.97
68.485
68.884
69.198
69.461
69.701
69.934
70.17
70.416
70.674
70.945
71.227
71.509
71.785
72.051
72.304
72.546
72.776
72.988
73.177
73.338
73.465
73.554
73.6
73.598
73.544
73.434
73.267
73.041
72.756
72.408
71.995
71.513
70.959
70.332
69.629
68.848
67.987
67.046
66.023
64.921
63.739
62.479
61.141
59.728
58.242
56.684
55.059
53.368
51.616
49.806
47.943
46.033
44.08
42.089
40.067
38.021
35.955
33.878
31.794
29.711
27.634
25.571
23.526
21.505
19.514
17.557
15.638
13.762
11.933
10.151
8.421
6.745
5.123
3.559
2.054
0.609
-0.776
-2.1
-3.361
-4.561
-5.699
-6.776
-7.794
-8.755
-9.66
-10.513
-11.317
-12.074
-12.789
-13.466
-14.11
-14.725
-15.316
-15.887
-16.445
-16.994
-17.537
-18.077
-18.619
-19.162
-19.71
-20.262
-20.816
-21.374
-21.934
-22.498
-23.063
-23.629
-24.197
-24.767
-25.34
-25.914
-26.488
-27.055
-27.612
-28.154
-28.673
-29.162
-29.612
-30.014
-30.36
-30.648
-30.87
-31.02
-31.085
-31.052
-30.909
-30.654
-30.284
-29.799
-29.2
-28.495
-27.7
-26.843
-25.954
-25.049
-24.134
-23.205
-22.262
-21.305
-20.339
-19.365
-18.371
-17.342
-16.27
-15.153
-13.986
-12.752
-11.413
-9.904
-8.179
-6.215
-4.018
-1.616
0.966
3.692
6.513
9.364
12.152
14.797
17.241
19.44
21.35
22.9
23.995
24.518
24.377
23.517
21.915
19.575
16.511
12.77
8.432
3.611
-1.55
-6.933
-12.448
-18.017
-23.558
-28.962
-34.097
-38.829
-43.05
-46.677
-49.665
-51.989
-53.66
-54.745
-55.328
-55.532
-55.516
-55.419
-55.376
-55.518
-55.943
-56.8
-58.308
-60.648
-63.918
-68.077
-72.868
-77.995
-83.186
-88.003
-91.887
-94.336
-94.98
-93.945
-91.933
-89.622
-87.771
-87.38
-89.388
-94.651
-102.777
-111.547
-118.326
-121.187
-120.958
-119.983
-117.491
-108.99
-84.767
-33.869
46.899
154.282
277.225
399.407
509.649
599.19
664.559
709.505
736.057
747.1
741.622
711.672
651.767
558.076
434.332
293.678
148.547
10.722
-112.885
-221.559
-313.797
-388.469
-444.372
-479.815
-495.641
-494.119
-478.231
-451.934
-418.944
-382.603
-345.922
-310.715
-278.163
-249.391
-224.924
-204.844
-188.78
-175.717
-164.611
-154.985
-146.383
-138.118
-129.597
-120.175
-109.652
-98.495
-87.251
-76.263
-65.891
-56.506
-48.537
-42.614
-39.019
-37.58
-38.025
-39.974
-43.035
-46.927
-51.277
-55.556
-59.384
-62.517
-64.766
-66.109
-66.541
-66.021
-64.584
-62.312
-59.277
-55.587
-51.352
-46.649
-41.583
-36.254
-30.75
-25.193
-19.695
-14.36
-9.302
-4.589
-0.258
3.659
7.153
10.233
12.91
15.215
17.193
18.878
20.306
21.509
22.51
23.347
24.06
24.686
25.269
25.837
26.409
27
27.619
28.27
28.954
29.665
30.392
31.127
31.866
32.604
33.339
34.067
34.78
35.47
36.128
36.747
37.32
37.84
38.3
38.693
39.016
39.262
39.43
39.516
39.515
39.422
39.231
38.939
38.541
38.035
37.416
36.683
35.835
34.871
33.792
32.6
31.298
29.887
28.372
26.757
25.048
23.249
21.369
19.413
17.391
15.309
13.178
11.006
8.802
6.576
4.337
2.094
-0.143
-2.367
-4.567
-6.737
-8.867
-10.95
-12.98
-14.95
-16.853
-18.686
-20.442
-22.119
-23.713
-25.221
-26.641
-27.971
-29.212
-30.362
-31.422
-32.392
-33.275
-34.073
-34.788
-35.426
-35.988
-36.481
-36.909
-37.277
-37.592
-37.857
-38.078
-38.261
-38.411
-38.533
-38.633
-38.715
-38.786
-38.849
-38.909
-38.971
-39.037
-39.111
-39.196
-39.294
-39.406
-39.535
-39.682
-39.848
-40.035
-40.242
-40.469
-40.717
-40.984
-41.268
-41.567
-41.877
-42.194
-42.514
-42.831
-43.139
-43.434
-43.71
-43.963
-44.188
-44.382
-44.54
-44.659
-44.734
-44.759
-44.729
-44.636
-44.471
-44.23
-43.905
-43.493
-42.989
-42.391
-41.696
-40.904
-40.017
-39.03
-37.941
-36.741
-35.423
-33.992
-32.454
-30.823
-29.118
-27.356
-25.557
-23.747
-21.948
-20.172
-18.427
-16.704
-14.991
-13.292
-11.616
-9.986
-8.423
-6.927
-5.496
-4.125
-2.793
-1.486
-0.186
1.151
2.551
4.009
5.504
6.976
8.358
9.612
10.711
11.637
12.379
12.892
13.136
13.086
12.702
11.946
10.775
9.118
6.936
4.255
1.128
-2.35
-6.058
-9.921
-13.865
-17.808
-21.673
-25.362
-28.783
-31.883
-34.607
-36.9
-38.712
-39.987
-40.711
-40.945
-40.782
-40.362
-39.849
-39.392
-39.156
-39.301
-40.018
-41.552
-44.067
-47.612
-52.098
-57.229
-62.668
-68.11
-73.109
-77.089
-79.627
-80.466
-79.798
-78.47
-77.361
-77.283
-79.093
-83.439
-90.676
-100.791
-112.717
-124.131
-132.387
-134.551
-127.627
-109.153
-76.837
-28.942
34.676
112.474
201.812
298.757
398.624
496.583
586.935
663.827
722.307
758.313
768.977
753.081
710.492
642.185
551.083
441.417
318.334
187.867
55.966
-71.775
-189.726
-292.914
-377.726
-441.724
-484.189
-505.922
-508.227
-493.258
-464.441
-425.679
-380.99
-334.322
-288.56
-245.874
-208.568
-178.251
-155.213
-138.939
-128.174
-121.215
-116.818
-113.84
-110.569
-105.487
-97.924
-87.817
-75.745
-62.658
-49.243
-36.138
-24.322
-14.749
-7.94
-4.021
-2.716
-3.507
-5.953
-9.636
-14.042
-18.612
-22.893
-26.582
-29.503
-31.578
-32.759
-33.007
-32.323
-30.766
-28.407
-25.317
-21.586
-17.296
-12.542
-7.44
-2.092
3.407
8.942
14.409
19.706
24.718
29.376
33.641
37.478
40.88
43.856
46.42
48.602
50.451
52.001
53.291
54.356
55.22
55.918
56.488
56.966
57.393
57.8
58.205
58.624
59.068
59.541
60.046
60.579
61.129
61.69
62.26
62.835
63.415
63.998
64.581
65.157
65.721
66.268
66.793
67.291
67.757
68.186
68.574
68.918
69.216
69.465
69.661
69.8
69.875
69.883
69.82
69.68
69.461
69.157
68.768
68.289
67.721
67.062
66.313
65.472
64.541
63.52
62.412
61.219
59.943
58.587
57.156
55.653
54.083
52.452
50.764
49.027
47.247
45.429
43.581
41.71
39.822
37.924
36.024
34.127
32.24
30.371
28.525
26.708
24.928
23.189
21.498
19.859
18.276
16.755
15.298
13.909
12.591
11.347
10.179
9.088
8.076
7.143
6.29
5.515
4.819
4.2
3.656
3.185
2.783
2.449
2.178
1.968
1.813
1.712
1.659
1.649
1.68
1.745
1.841
1.962
2.104
2.262
2.432
2.609
2.79
2.971
3.147
3.316
3.475
3.622
3.753
3.868
3.965
4.044
4.103
4.143
4.165
4.171
4.162
4.142
4.112
4.076
4.039
4.003
3.972
3.951
3.944
3.955
3.99
4.053
4.149
4.282
4.458
4.681
4.956
5.286
5.674
6.125
6.64
7.222
7.873
8.593
9.383
10.243
11.172
12.166
13.225
14.343
15.516
16.738
18.002
19.298
20.616
21.945
23.273
24.587
25.873
27.118
28.309
29.433
30.48
31.437
32.294
33.036
33.651
34.127
34.453
34.617
34.611
34.429
34.062
33.513
32.782
31.87
30.775
29.487
27.997
26.3
24.396
22.284
19.975
17.482
14.824
12.039
9.162
6.231
3.282
0.341
-2.566
-5.403
-8.128
-10.687
-13.021
-15.085
-16.839
-18.254
-19.326
-20.069
-20.529
-20.78
-20.895
-20.951
-21.038
-21.253
-21.713
-22.54
-23.839
-25.761
-28.514
-32.236
-36.963
-42.557
-48.626
-54.756
-60.574
-65.578
-69.202
-71.063
-71.019
-69.464
-67.477
-66.057
-66.004
-68.333
-73.78
-82.561
-94.615
-107.776
-118.66
-125.305
-124.955
-116.552
-99.76
-69.801
-23.748
40.678
124.943
222.338
325.738
428.217
521.068
600.539
663.343
705.228
724.133
717.631
684.252
624.878
541.78
438.931
321.341
194.767
65.236
-61.915
-181.331
-287.899
-377.822
-448.491
-498.48
-528.322
-539.571
-533.725
-513.398
-482.035
-442.882
-399.39
-354.765
-310.843
-269.039
-231.152
-198.115
-170.268
-147.889
-130.323
-116.548
-106.18
-98.667
-92.928
-88.208
-83.687
-78.407
-72.26
-65.511
-58.212
-50.631
-43.233
-36.337
-30.48
-26.335
-24.046
-23.483
-24.48
-26.695
-29.783
-33.456
-37.293
-40.802
-43.69
-45.788
-46.996
-47.336
-46.833
-45.503
-43.429
-40.728
-37.494
-33.818
-29.779
-25.43
-20.841
-16.101
-11.285
-6.477
-1.756
2.803
7.123
11.144
14.837
18.193
21.222
23.939
26.363
28.518
30.439
32.155
33.695
35.083
36.336
37.477
38.535
39.539
40.521
41.507
42.508
43.531
44.578
45.649
46.74
47.842
48.942
50.028
51.09
52.124
53.126
54.09
55.008
55.871
56.67
57.397
58.046
58.61
59.081
59.455
59.725
59.89
59.947
59.895
59.73
59.45
59.05
58.529
57.886
57.119
56.226
55.207
54.063
52.797
51.412
49.911
48.299
46.58
44.761
42.848
40.849
38.77
36.62
34.406
32.136
29.82
27.467
25.086
22.685
20.275
17.863
15.46
13.074
10.714
8.387
6.102
3.866
1.687
-0.43
-2.476
-4.448
-6.338
-8.142
-9.856
-11.476
-12.999
-14.423
-15.745
-16.966
-18.083
-19.099
-20.013
-20.827
-21.544
-22.165
-22.695
-23.137
-23.496
-23.777
-23.985
-24.125
-24.204
-24.227
-24.2
-24.129
-24.02
-23.88
-23.714
-23.529
-23.33
-23.125
-22.918
-22.717
-22.526
-22.351
-22.198
-22.07
-21.972
-21.909
-21.885
-21.902
-21.964
-22.074
-22.234
-22.444
-22.705
-23.017
-23.378
-23.786
-24.237
-24.727
-25.252
-25.806
-26.383
-26.978
-27.587
-28.204
-28.825
-29.443
-30.055
-30.654
-31.235
-31.788
-32.304
-32.774
-33.188
-33.538
-33.816
-34.017
-34.131
-34.155
-34.087
-33.921
-33.653
-33.276
-32.777
-32.148
-31.39
-30.508
-29.511
-28.418
-27.244
-26.007
-24.733
-23.44
-22.14
-20.838
-19.525
-18.189
-16.833
-15.465
-14.109
-12.787
-11.502
-10.256
-9.045
-7.85
-6.659
-5.452
-4.191
-2.855
-1.45
-0.002
1.43
2.772
3.977
5.014
5.865
6.521
6.953
7.125
7.009
6.566
5.756
4.533
2.826
0.591
-2.162
-5.387
-8.991
-12.854
-16.887
-21.02
-25.185
-29.325
-33.366
-37.229
-40.85
-44.167
-47.114
-49.611
-51.576
-52.967
-53.812
-54.195
-54.235
-54.05
-53.741
-53.425
-53.225
-53.261
-53.652
-54.488
-55.892
-58.056
-61.093
-65.013
-69.669
-74.692
-79.658
-84.159
-87.661
-89.523
-89.318
-86.968
-82.872
-77.865
-72.934
-69.064
-67.21
-68.387
-72.424
-77.58
-81.757
-83.074
-81.948
-80.274
-77.381
-68.455
-43.994
5.316
82.321
182.061
292.279
400.167
497.449
579.799
646.595
696.778
727.151
734.254
715.06
668.591
596.194
501.043
387.697
261.602
128.891
-4.242
-131.954
-248.665
-349.573
-431.216
-491.369
-529.662
-547.413
-546.476
-529.458
-499.817
-461.056
-416.81
-370.7
-325.048
-281.338
-241.205
-205.647
-175.136
-150.135
-130.198
-114.291
-102.028
-92.999
-86.273
-81.151
-76.73
-71.852
-66.245
-60.107
-53.404
-46.315
-39.222
-32.41
-26.514
-22.342
-20.124
-19.756
-21.035
-23.584
-27.046
-31.092
-35.214
-38.82
-41.521
-43.128
-43.596
-43.004
-41.412
-38.864
-35.449
-31.311
-26.592
-21.414
-15.887
-10.084
-4.081
2.002
8.041
13.913
19.495
24.716
29.542
33.944
37.916
41.467
44.612
47.382
49.826
51.982
53.885
55.568
57.057
58.389
59.606
60.753
61.873
62.998
64.144
65.326
66.551
67.822
69.138
70.494
71.874
73.272
74.682
76.098
77.518
78.938
80.349
81.743
83.11
84.443
85.735
86.977
88.162
89.284
90.335
91.31
92.205
93.015
93.733
94.353
94.867
95.269
95.553
95.715
95.747
95.647
95.409
95.033
94.517
93.86
93.063
92.126
91.051
89.841
88.499
87.029
85.436
83.725
81.902
79.973
77.947
75.83
73.632
71.36
69.024
66.633
64.196
61.722
59.221
56.703
54.175
51.648
49.129
46.629
44.154
41.714
39.316
36.966
34.672
32.44
30.276
28.183
26.167
24.232
22.38
20.615
18.938
17.351
15.855
14.449
13.135
11.91
10.773
9.721
8.754
7.869
7.062
6.331
5.673
5.084
4.559
4.097
3.692
3.34
3.037
2.78
2.563
2.383
2.236
2.119
2.027
1.956
1.904
1.868
1.843
1.827
1.817
1.813
1.812
1.813
1.817
1.823
1.834
1.85
1.875
1.91
1.957
2.016
2.09
2.182
2.294
2.426
2.582
2.765
2.982
3.239
3.541
3.891
4.293
4.751
5.268
5.848
6.493
7.2
7.971
8.809
9.724
10.724
11.811
12.979
14.214
15.507
16.849
18.231
19.636
21.044
22.439
23.816
25.184
26.553
27.922
29.278
30.595
31.849
33.03
34.141
35.19
36.175
37.094
37.949
38.761
39.558
40.345
41.096
41.75
42.251
42.563
42.676
42.591
42.306
41.8
41.041
40.005
38.683
37.061
35.116
32.8
30.065
26.907
23.383
19.591
15.624
11.551
7.414
3.257
-0.868
-4.895
-8.752
-12.392
-15.779
-18.865
-21.589
-23.883
-25.693
-27.039
-28.011
-28.73
-29.297
-29.803
-30.333
-30.995
-31.914
-33.212
-34.975
-37.297
-40.335
-44.213
-48.974
-54.557
-60.695
-67.009
-73.118
-78.521
-82.578
-84.816
-85.032
-83.323
-80.256
-76.677
-73.429
-71.53
-72.275
-75.749
-80.603
-85.431
-88.086
-88.662
-89.887
-91.155
-89.476
-76.98
-42.006
20.358
109.935
218.905
333.706
445.43
544.873
626.599
688.647
725.575
736.882
722.899
683.043
621.208
538.67
436.144
317.756
186.146
45.98
-93.722
-226.189
-343.886
-439.62
-513.926
-567.545
-602.061
-621.627
-625.432
-613.4
-587.805
-550.129
-504.214
-454.222
-402.492
-351.076
-302.032
-256.851
-216.871
-183.225
-156
-134.586
-118.382
-106.678
-98.322
-92.153
-86.911
-81.216
-74.498
-66.833
-58.385
-49.516
-40.776
-32.678
-25.927
-21.349
-19.239
-19.469
-21.752
-25.606
-30.534
-36.106
-41.775
-46.934
-51.197
-54.336
-56.259
-57.024
-56.688
-55.298
-52.959
-49.804
-45.961
-41.564
-36.731
-31.558
-26.155
-20.637
-15.119
-9.719
-4.544
0.312
4.79
8.862
12.52
15.777
18.653
21.178
23.396
25.359
27.119
28.721
30.209
31.618
32.99
34.369
35.795
37.309
38.936
40.687
42.57
44.584
46.724
48.984
51.347
53.796
56.312
58.882
61.49
64.126
66.775
69.417
72.036
74.613
77.129
79.569
81.916
84.153
86.264
88.234
90.049
91.697
93.166
94.442
95.513
96.364
96.987
97.371
97.507
97.387
97.006
96.358
95.443
94.259
92.806
91.087
89.105
86.865
84.372
81.636
78.664
75.468
72.057
68.446
64.647
60.676
56.548
52.281
47.892
43.398
38.818
34.172
29.477
24.754
20.02
15.295
10.596
5.943
1.351
-3.161
-7.579
-11.886
-16.068
-20.111
-24.003
-27.733
-31.29
-34.665
-37.85
-40.837
-43.621
-46.197
-48.561
-50.712
-52.649
-54.37
-55.878
-57.176
-58.267
-59.156
-59.85
-60.354
-60.679
-60.832
-60.823
-60.664
-60.363
-59.934
-59.388
-58.737
-57.994
-57.171
-56.282
-55.339
-54.356
-53.344
-52.317
-51.286
-50.264
-49.261
-48.288
-47.355
-46.472
-45.647
-44.888
-44.203
-43.597
-43.075
-42.642
-42.3
-42.052
-41.898
-41.838
-41.87
-41.992
-42.198
-42.486
-42.85
-43.283
-43.78
-44.332
-44.932
-45.571
-46.239
-46.928
-47.627
-48.326
-49.014
-49.681
-50.317
-50.913
-51.458
-51.944
-52.361
-52.703
-52.961
-53.129
-53.2
-53.169
-53.032
-52.786
-52.43
-51.963
-51.387
-50.705
-49.922
-49.048
-48.09
-47.057
-45.959
-44.809
-43.617
-42.399
-41.167
-39.933
-38.711
-37.512
-36.353
-35.252
-34.222
-33.276
-32.427
-31.683
-31.055
-30.553
-30.182
-29.946
-29.845
-29.881
-30.062
-30.4
-30.898
-31.558
-32.38
-33.351
-34.46
-35.69
-37.01
-38.392
-39.803
-41.205
-42.573
-43.873
-45.073
-46.15
-47.07
-47.801
-48.309
-48.533
-48.435
-48.016
-47.296
-46.347
-45.228
-43.918
-42.512
-41.219
-40.231
-39.794
-40.008
-40.722
-41.98
-44.08
-47.028
-50.595
-54.382
-57.588
-59.817
-61.272
-61.746
-60.68
-57.925
-53.665
-48.638
-44.384
-41.942
-41.612
-44.066
-50.138
-59.394
-70.083
-79.837
-86.085
-89.095
-91.071
-91.492
-85.671
-64.07
-17.024
58.814
158.559
270.008
380.634
481.987
569.726
643.261
701.328
740.672
757.739
749.204
713.611
651.607
566.28
463.056
347.348
224.264
96.666
-34.707
-166.362
-291.055
-397.993
-476.584
-522.09
-537.5
-532.332
-515.832
-493.635
-467.732
-436.235
-398.421
-356.21
-311.772
-268.043
-227.632
-191.389
-159.735
-133.113
-111.223
-93.542
-79.968
-70.118
-63.069
-58.052
-54.066
-49.883
-45.111
-39.799
-33.847
-27.42
-20.901
-14.6
-9.132
-5.289
-3.315
-3.106
-4.477
-7.046
-10.428
-14.305
-18.202
-21.555
-24.01
-25.399
-25.678
-24.937
-23.262
-20.702
-17.357
-13.37
-8.869
-3.98
1.187
6.564
12.068
17.595
23.041
28.292
33.241
37.823
42.007
45.776
49.135
52.099
54.681
56.918
58.856
60.537
62.001
63.281
64.405
65.408
66.329
67.212
68.102
69.028
70.006
71.048
72.161
73.345
74.6
75.919
77.286
78.69
80.124
81.579
83.053
84.538
86.023
87.496
88.946
90.361
91.732
93.048
94.299
95.473
96.563
97.56
98.458
99.25
99.926
100.48
100.901
101.183
101.319
101.303
101.129
100.793
100.29
99.62
98.782
97.778
96.608
95.275
93.783
92.137
90.342
88.404
86.331
84.13
81.81
79.38
76.85
74.229
71.53
68.762
65.939
63.071
60.17
57.248
54.318
51.39
48.476
45.586
42.733
39.925
37.173
34.487
31.875
29.345
26.906
24.562
22.32
20.185
18.159
16.247
14.449
12.769
11.205
9.758
8.428
7.213
6.112
5.122
4.239
3.46
2.781
2.196
1.701
1.289
0.955
0.693
0.495
0.357
0.269
0.227
0.223
0.25
0.301
0.369
0.448
0.531
0.612
0.685
0.747
0.791
0.815
0.816
0.79
0.736
0.653
0.538
0.393
0.216
0.01
-0.226
-0.489
-0.778
-1.088
-1.417
-1.76
-2.113
-2.469
-2.825
-3.175
-3.513
-3.832
-4.127
-4.393
-4.624
-4.815
-4.958
-5.046
-5.072
-5.029
-4.912
-4.719
-4.442
-4.081
-3.633
-3.099
-2.485
-1.79
-1.016
-0.162
0.773
1.783
2.862
3.994
5.168
6.369
7.585
8.798
9.992
11.151
12.259
13.303
14.273
15.157
15.943
16.612
17.137
17.493
17.685
17.747
17.716
17.612
17.416
17.078
16.583
15.965
15.236
14.335
13.157
11.644
9.879
8.115
6.576
5.247
4.054
3.068
2.283
1.545
0.681
-1.034
-3.489
-5.232
-6.472
-8.097
-12.421
-23.856
-41.147
-58.979
-71.69
-71.953
-60.2
-43.504
-27.286
-17.39
-14.983
-15.315
-15.853
-16.079
-15.803
-18.42
-26.419
-36.781
-47.443
-54.698
-54.024
-48.317
-40.193
-31.863
-27.103
-24.027
-20.759
-17.689
-14.521
-13.202
-15.686
-22.028
-32.089
-45.653
-62.14
-80.632
-99.451
-115.794
-126.705
-129.544
-121.965
-101.853
-67.223
-16.784
49.327
129.223
219.914
317.445
417.243
514.422
603.191
677.699
733.017
765.291
771.992
752.163
705.947
634.667
541.588
431.167
308.694
180.182
51.392
-72.33
-185.757
-284.472
-365.362
-426.384
-467.236
-489.102
-493.549
-482.884
-460.23
-428.765
-391.872
-352.965
-314.215
-277.034
-242.976
-212.983
-187.521
-166.993
-150.908
-138.202
-128.405
-121.091
-115.367
-110.555
-105.84
-100.188
-93.4
-85.777
-77.419
-68.61
-59.818
-51.377
-43.904
-38.182
-34.446
-32.614
-32.542
-33.881
-36.312
-39.577
-43.226
-46.746
-49.818
-52.239
-53.906
-54.812
-54.926
-54.219
-52.739
-50.574
-47.813
-44.537
-40.809
-36.688
-32.239
-27.547
-22.701
-17.78
-12.859
-8.009
-3.301
1.189
5.4
9.301
12.882
16.149
19.114
21.792
24.205
26.383
28.358
30.155
31.801
33.313
34.711
36.019
37.264
38.477
39.681
40.887
42.1
43.321
44.548
45.778
47.002
48.204
49.373
50.499
51.576
52.598
53.56
54.452
55.265
55.99
56.618
57.141
57.552
57.845
58.013
58.051
57.958
57.731
57.369
56.871
56.233
55.456
54.537
53.478
52.279
50.941
49.467
47.859
46.124
44.268
42.295
40.215
38.033
35.759
33.4
30.967
28.467
25.91
23.307
20.666
17.999
15.316
12.626
9.941
7.27
4.624
2.012
-0.557
-3.073
-5.529
-7.916
-10.228
-12.457
-14.597
-16.643
-18.589
-20.43
-22.164
-23.788
-25.298
-26.695
-27.977
-29.146
-30.201
-31.144
-31.976
-32.701
-33.32
-33.838
-34.258
-34.585
-34.824
-34.98
-35.06
-35.071
-35.018
-34.909
-34.75
-34.548
-34.31
-34.042
-33.751
-33.443
-33.125
-32.803
-32.484
-32.175
-31.881
-31.61
-31.365
-31.152
-30.977
-30.843
-30.754
-30.714
-30.726
-30.793
-30.917
-31.101
-31.346
-31.652
-32.019
-32.447
-32.931
-33.47
-34.057
-34.687
-35.355
-36.055
-36.782
-37.53
-38.293
-39.067
-39.848
-40.634
-41.417
-42.19
-42.946
-43.676
-44.371
-45.022
-45.618
-46.148
-46.603
-46.976
-47.261
-47.455
-47.552
-47.54
-47.409
-47.15
-46.762
-46.246
-45.603
-44.84
-43.967
-43.005
-41.987
-40.946
-39.904
-38.876
-37.864
-36.872
-35.905
-34.969
-34.071
-33.202
-32.351
-31.512
-30.681
-29.856
-29.023
-28.145
-27.166
-26.036
-24.729
-23.245
-21.605
-19.831
-17.954
-16.013
-14.063
-12.185
-10.453
-8.926
-7.653
-6.674
-6.043
-5.841
-6.164
-7.087
-8.65
-10.853
-13.668
-17.065
-20.985
-25.347
-30.043
-34.937
-39.924
-44.917
-49.824
-54.554
-58.987
-63.002
-66.508
-69.469
-71.862
-73.655
-74.873
-75.64
-76.236
-76.975
-78.073
-79.57
-81.4
-83.674
-86.539
-89.895
-93.338
-96.225
-97.99
-98.575
-98.274
-97.012
-94.52
-90.797
-86.224
-81.88
-79.131
-78.587
-80.196
-84.131
-90.808
-100.396
-112.471
-125.47
-135.931
-140.894
-139.052
-128.032
-107.467
-77.04
-33.023
24.552
96.922
186.464
288.897
401.595
517.223
622.302
707.978
764.327
787.648
782.402
752.097
703.01
636.982
551.019
444.4
315.786
171.409
24.457
-113.178
-228.514
-316.71
-382.038
-428.223
-460.993
-482.439
-488.956
-479.868
-456.258
-421.055
-380.137
-337.882
-296.447
-257.608
-222.816
-193.159
-169.528
-151.946
-139.368
-130.575
-124.852
-121.329
-118.761
-115.946
-111.636
-105.218
-96.999
-87.472
-77.024
-66.177
-55.545
-45.863
-38.064
-32.617
-29.442
-28.315
-28.883
-30.778
-33.712
-37.264
-40.869
-44.161
-46.938
-49.078
-50.583
-51.406
-51.47
-50.783
-49.405
-47.405
-44.865
-41.844
-38.383
-34.552
-30.431
-26.099
-21.651
-17.155
-12.678
-8.29
-4.062
-0.073
3.616
6.972
9.986
12.662
15.015
17.062
18.822
20.332
21.623
22.725
23.665
24.461
25.135
25.713
26.226
26.708
27.185
27.673
28.182
28.716
29.277
29.866
30.478
31.101
31.727
32.35
32.966
33.574
34.172
34.753
35.311
35.838
36.328
36.774
37.172
37.515
37.798
38.018
38.171
38.257
38.272
38.214
38.08
37.866
37.569
37.189
36.723
36.17
35.53
34.804
33.992
33.099
32.126
31.076
29.954
28.763
27.507
26.191
24.821
23.4
21.934
20.43
18.892
17.326
15.74
14.139
12.529
10.917
9.309
7.712
6.133
4.576
3.048
1.556
0.104
-1.301
-2.655
-3.955
-5.194
-6.371
-7.481
-8.522
-9.493
-10.391
-11.216
-11.967
-12.643
-13.244
-13.771
-14.224
-14.605
-14.914
-15.153
-15.323
-15.428
-15.468
-15.448
-15.37
-15.236
-15.052
-14.821
-14.546
-14.234
-13.887
-13.512
-13.113
-12.696
-12.265
-11.827
-11.386
-10.947
-10.515
-10.096
-9.693
-9.311
-8.954
-8.625
-8.328
-8.066
-7.84
-7.654
-7.508
-7.405
-7.344
-7.327
-7.354
-7.424
-7.535
-7.687
-7.878
-8.105
-8.364
-8.653
-8.966
-9.298
-9.646
-10.002
-10.362
-10.718
-11.065
-11.394
-11.7
-11.975
-12.212
-12.403
-12.542
-12.621
-12.636
-12.578
-12.445
-12.23
-11.929
-11.538
-11.056
-10.48
-9.808
-9.04
-8.176
-7.219
-6.169
-5.031
-3.809
-2.508
-1.138
0.293
1.774
3.293
4.837
6.392
7.944
9.478
10.981
12.44
13.843
15.175
16.422
17.568
18.599
19.502
20.264
20.874
21.322
21.6
21.706
21.638
21.397
20.979
20.373
19.568
18.555
17.329
15.889
14.241
12.396
10.371
8.198
5.913
3.554
1.16
-1.239
-3.616
-5.933
-8.148
-10.201
-12.025
-13.568
-14.784
-15.636
-16.116
-16.231
-16.018
-15.545
-14.882
-14.112
-13.336
-12.659
-12.208
-12.109
-12.471
-13.464
-15.322
-18.199
-22.143
-26.996
-32.334
-37.737
-42.833
-47.119
-50.029
-51.143
-50.299
-48.006
-45.449
-43.73
-43.731
-46.37
-52.29
-61.705
-74.449
-88.078
-98.961
-104.749
-102.39
-90.925
-70.013
-34.993
16.628
86.727
176.465
278.666
386.07
491.324
584.186
661.033
719.879
758.854
780.374
781.847
757.635
704.088
617.365
501.749
368.553
228.581
93.141
-31.746
-145.073
-244.424
-328.246
-394.811
-441.42
-468.4
-477.564
-470.563
-450.478
-420.659
-383.952
-343.503
-302.006
-260.911
-221.622
-185.872
-154.735
-128.912
-108.593
-93.056
-81.525
-73.647
-68.687
-65.454
-62.751
-59.27
-54.311
-48.009
-40.621
-32.364
-23.639
-14.978
-7.095
-0.918
3.105
5.035
5.076
3.597
0.961
-2.525
-6.395
-10.074
-13.181
-15.498
-16.906
-17.439
-17.116
-15.931
-13.957
-11.293
-8.035
-4.289
-0.141
4.342
9.082
13.995
18.993
23.975
28.853
33.543
37.954
42.037
45.754
49.085
52.033
54.61
56.833
58.734
60.352
61.721
62.874
63.84
64.643
65.317
65.892
66.403
66.888
67.371
67.868
68.395
68.955
69.553
70.19
70.86
71.553
72.262
72.984
73.713
74.451
75.193
75.934
76.667
77.387
78.085
78.757
79.395
79.993
80.544
81.042
81.482
81.859
82.169
82.405
82.56
82.627
82.601
82.477
82.249
81.912
81.462
80.896
80.213
79.412
78.493
77.455
76.299
75.028
73.643
72.146
70.541
68.831
67.019
65.111
63.11
61.023
58.856
56.614
54.305
51.937
49.518
47.056
44.56
42.04
39.505
36.964
34.426
31.901
29.398
26.926
24.494
22.109
19.779
17.512
15.315
13.192
11.15
9.193
7.326
5.553
3.876
2.299
0.824
-0.546
-1.811
-2.969
-4.02
-4.963
-5.799
-6.529
-7.155
-7.68
-8.106
-8.437
-8.679
-8.835
-8.911
-8.914
-8.85
-8.725
-8.546
-8.32
-8.055
-7.757
-7.433
-7.092
-6.738
-6.379
-6.021
-5.669
-5.329
-5.006
-4.705
-4.428
-4.18
-3.965
-3.784
-3.641
-3.537
-3.474
-3.454
-3.476
-3.54
-3.646
-3.792
-3.977
-4.195
-4.446
-4.722
-5.021
-5.337
-5.664
-5.996
-6.328
-6.651
-6.96
-7.248
-7.508
-7.732
-7.915
-8.05
-8.131
-8.152
-8.109
-7.998
-7.814
-7.555
-7.218
-6.8
-6.302
-5.721
-5.058
-4.312
-3.486
-2.581
-1.6
-0.548
0.57
1.748
2.977
4.245
5.542
6.857
8.175
9.484
10.769
12.017
13.217
14.357
15.426
16.41
17.297
18.074
18.729
19.252
19.633
19.864
19.937
19.849
19.602
19.197
18.636
17.915
17.02
15.943
14.679
13.223
11.579
9.754
7.757
5.612
3.359
1.037
-1.309
-3.641
-5.933
-8.151
-10.257
-12.202
-13.924
-15.366
-16.485
-17.243
-17.62
-17.618
-17.256
-16.591
-15.708
-14.704
-13.697
-12.814
-12.171
-11.895
-12.086
-12.884
-14.504
-17.108
-20.771
-25.433
-30.827
-36.649
-42.631
-48.342
-53.194
-56.694
-58.491
-58.708
-58.048
-57.125
-56.623
-57.482
-60.541
-66.571
-75.094
-83.819
-90.212
-92.427
-91.17
-88.657
-83.906
-72.584
-45.778
6.712
87.246
192.123
310.881
427.648
532.389
618.239
681.188
723.65
745.317
744.798
722.535
675.709
603.715
509.661
396.717
271.496
142.467
15.017
-106.646
-219.54
-323.734
-415.718
-488.703
-537.831
-557.913
-549.907
-522.187
-482.704
-439.822
-398.113
-356.729
-315.371
-273.893
-233.383
-196.79
-165.432
-139.594
-119.179
-103.063
-90.65
-81.715
-75.434
-70.997
-67.709
-64.663
-61.172
-57.111
-52.401
-47.05
-41.385
-35.736
-30.475
-26.16
-23.315
-22.099
-22.427
-24.106
-26.788
-30.127
-33.791
-37.352
-40.346
-42.48
-43.635
-43.788
-43.024
-41.432
-39.067
-36.033
-32.466
-28.479
-24.178
-19.646
-14.935
-10.117
-5.289
-0.541
4.027
8.319
12.284
15.89
19.117
21.976
24.479
26.645
28.508
30.108
31.48
32.657
33.666
34.53
35.28
35.949
36.576
37.2
37.849
38.537
39.276
40.072
40.925
41.834
42.791
43.783
44.801
45.836
46.883
47.939
48.997
50.048
51.084
52.093
53.066
53.996
54.873
55.69
56.437
57.109
57.7
58.206
58.621
58.939
59.156
59.264
59.258
59.135
58.889
58.518
58.019
57.389
56.63
55.741
54.724
53.582
52.316
50.932
49.434
47.827
46.116
44.309
42.412
40.433
38.38
36.26
34.084
31.858
29.593
27.298
24.981
22.653
20.322
17.996
15.684
13.395
11.136
8.914
6.736
4.609
2.539
0.532
-1.408
-3.277
-5.071
-6.786
-8.421
-9.973
-11.441
-12.824
-14.122
-15.335
-16.464
-17.51
-18.474
-19.358
-20.165
-20.897
-21.558
-22.151
-22.68
-23.149
-23.562
-23.924
-24.24
-24.513
-24.749
-24.952
-25.126
-25.277
-25.409
-25.527
-25.634
-25.734
-25.833
-25.932
-26.037
-26.149
-26.272
-26.408
-26.559
-26.727
-26.915
-27.122
-27.35
-27.599
-27.87
-28.162
-28.474
-28.804
-29.151
-29.511
-29.883
-30.263
-30.647
-31.032
-31.413
-31.786
-32.146
-32.489
-32.809
-33.102
-33.362
-33.583
-33.761
-33.89
-33.965
-33.981
-33.934
-33.819
-33.634
-33.374
-33.037
-32.621
-32.123
-31.544
-30.882
-30.139
-29.316
-28.415
-27.44
-26.395
-25.288
-24.126
-22.92
-21.677
-20.411
-19.132
-17.854
-16.589
-15.349
-14.145
-12.991
-11.9
-10.884
-9.959
-9.14
-8.44
-7.873
-7.451
-7.185
-7.085
-7.155
-7.399
-7.82
-8.423
-9.216
-10.208
-11.405
-12.809
-14.418
-16.228
-18.225
-20.387
-22.684
-25.08
-27.538
-30.027
-32.518
-34.979
-37.381
-39.683
-41.833
-43.785
-45.494
-46.92
-48.037
-48.829
-49.306
-49.508
-49.514
-49.399
-49.229
-49.082
-49.032
-49.184
-49.664
-50.594
-52.067
-54.207
-57.199
-61.144
-66.067
-71.814
-77.967
-84.125
-89.963
-95.04
-98.834
-100.964
-101.182
-99.755
-97.644
-95.572
-93.948
-93.446
-94.722
-98.128
-103.935
-110.519
-114.121
-112.952
-106.019
-93.004
-76.312
-53.325
-18.332
31.594
101.726
191.61
293.925
404.21
512.31
606.77
681.526
727.718
742.909
731.287
694.784
637.996
563.082
468.394
355.868
228.847
92.626
-44.719
-176.761
-298.46
-405.12
-493.77
-562.426
-609.803
-636.528
-644.322
-634.915
-610.645
-574.447
-529.15
-477.798
-423.523
-368.373
-314
-262.558
-215.736
-174.802
-140.875
-114.024
-93.591
-79.241
-70.351
-65.516
-63.366
-62.36
-60.845
-58.178
-54.331
-49.209
-43.059
-36.472
-30.02
-24.554
-21.032
-19.737
-20.547
-23.236
-27.327
-32.337
-37.837
-43.235
-47.902
-51.47
-53.767
-54.762
-54.571
-53.283
-50.963
-47.737
-43.75
-39.145
-34.054
-28.584
-22.818
-16.852
-10.804
-4.793
1.054
6.622
11.84
16.669
21.094
25.117
28.749
32.009
34.933
37.567
39.958
42.145
44.164
46.046
47.828
49.552
51.264
53.008
54.813
56.69
58.649
60.689
62.808
64.999
67.248
69.535
71.844
74.163
76.48
78.788
81.074
83.324
85.524
87.657
89.711
91.675
93.536
95.283
96.905
98.393
99.739
100.937
101.979
102.859
103.567
104.096
104.439
104.592
104.548
104.305
103.859
103.21
102.357
101.304
100.054
98.609
96.975
95.159
93.166
91.006
88.687
86.217
83.609
80.871
78.017
75.059
72.008
68.879
65.685
62.438
59.154
55.846
52.526
49.21
45.909
42.637
39.407
36.229
33.115
30.077
27.123
24.262
21.504
18.855
16.322
13.91
11.623
9.465
7.44
5.548
3.792
2.172
0.687
-0.664
-1.883
-2.971
-3.932
-4.771
-5.491
-6.097
-6.596
-6.993
-7.294
-7.507
-7.638
-7.695
-7.686
-7.617
-7.496
-7.332
-7.131
-6.901
-6.649
-6.382
-6.106
-5.828
-5.554
-5.289
-5.037
-4.805
-4.594
-4.41
-4.256
-4.133
-4.043
-3.989
-3.97
-3.988
-4.043
-4.133
-4.257
-4.415
-4.602
-4.818
-5.057
-5.317
-5.593
-5.882
-6.177
-6.475
-6.771
-7.059
-7.334
-7.59
-7.824
-8.029
-8.2
-8.333
-8.423
-8.465
-8.456
-8.392
-8.27
-8.089
-7.845
-7.538
-7.167
-6.732
-6.233
-5.673
-5.052
-4.375
-3.645
-2.865
-2.043
-1.183
-0.295
0.612
1.527
2.441
3.34
4.213
5.046
5.828
6.547
7.193
7.756
8.224
8.589
8.837
8.958
8.944
8.785
8.475
8.007
7.378
6.589
5.644
4.545
3.293
1.885
0.313
-1.426
-3.331
-5.401
-7.626
-9.995
-12.487
-15.069
-17.706
-20.361
-22.997
-25.584
-28.097
-30.502
-32.758
-34.814
-36.613
-38.106
-39.252
-40.02
-40.403
-40.414
-40.094
-39.514
-38.745
-37.868
-36.982
-36.184
-35.581
-35.28
-35.373
-36.002
-37.396
-39.718
-43.023
-47.239
-52.069
-57.164
-62.215
-66.753
-70.144
-71.93
-71.931
-70.345
-67.907
-65.567
-64.218
-64.895
-68.84
-75.963
-84.574
-92.835
-98.267
-101
-104.464
-108.666
-110.264
-100.517
-65.502
1.569
98.987
216.949
338.152
449.974
545.857
623.228
683.692
726.257
747.403
744.141
714.002
656.9
575.241
472.685
353.586
223.864
90.814
-40.131
-164.664
-279.657
-384.978
-477.061
-549.328
-597.093
-615.119
-604.272
-572.826
-528.716
-480.502
-433.219
-386.488
-340.328
-295.203
-252.861
-216.52
-187.668
-166.126
-150.76
-139.801
-132.205
-127.042
-122.853
-118.292
-112.156
-103.933
-94.037
-83.091
-71.589
-60.117
-49.369
-40.112
-33.215
-29.055
-27.456
-28.087
-30.495
-34.246
-38.959
-44.129
-49.175
-53.695
-57.465
-60.359
-62.353
-63.423
-63.533
-62.723
-61.084
-58.71
-55.698
-52.131
-48.087
-43.651
-38.923
-34.011
-29.016
-24.034
-19.157
-14.472
-10.066
-6.004
-2.323
0.968
3.875
6.419
8.623
10.521
12.154
13.562
14.779
15.84
16.772
17.604
18.37
19.103
19.84
20.606
21.417
22.282
23.203
24.179
25.207
26.278
27.379
28.496
29.622
30.749
31.873
32.987
34.082
35.149
36.176
37.156
38.08
38.94
39.728
40.436
41.059
41.59
42.027
42.365
42.597
42.719
42.725
42.61
42.371
42.004
41.505
40.873
40.105
39.203
38.167
36.999
35.699
34.272
32.72
31.047
29.26
27.362
25.359
23.258
21.066
18.79
16.437
14.015
11.532
8.996
6.416
3.8
1.157
-1.504
-4.176
-6.848
-9.513
-12.162
-14.788
-17.382
-19.937
-22.447
-24.904
-27.302
-29.635
-31.898
-34.085
-36.192
-38.213
-40.145
-41.985
-43.728
-45.374
-46.919
-48.363
-49.705
-50.944
-52.08
-53.114
-54.048
-54.881
-55.615
-56.252
-56.793
-57.242
-57.601
-57.874
-58.064
-58.175
-58.212
-58.181
-58.084
-57.928
-57.718
-57.457
-57.152
-56.808
-56.431
-56.025
-55.597
-55.153
-54.699
-54.24
-53.782
-53.327
-52.881
-52.447
-52.028
-51.624
-51.236
-50.865
-50.512
-50.178
-49.862
-49.565
-49.288
-49.032
-48.798
-48.585
-48.39
-48.211
-48.041
-47.875
-47.707
-47.528
-47.332
-47.111
-46.858
-46.569
-46.243
-45.873
-45.452
-44.972
-44.42
-43.788
-43.072
-42.269
-41.381
-40.416
-39.387
-38.318
-37.236
-36.158
-35.095
-34.051
-33.02
-31.996
-30.976
-29.95
-28.923
-27.897
-26.869
-25.845
-24.823
-23.786
-22.711
-21.553
-20.257
-18.797
-17.165
-15.363
-13.431
-11.406
-9.338
-7.299
-5.336
-3.493
-1.816
-0.336
0.913
1.878
2.498
2.696
2.379
1.499
0.032
-2.015
-4.594
-7.637
-11.06
-14.745
-18.586
-22.493
-26.373
-30.146
-33.736
-37.051
-40.003
-42.496
-44.445
-45.804
-46.573
-46.792
-46.527
-45.86
-44.921
-43.873
-42.885
-42.121
-41.705
-41.769
-42.516
-44.115
-46.649
-50.073
-54.119
-58.437
-62.714
-66.527
-69.313
-70.609
-70.133
-68.029
-65.026
-61.934
-59.588
-58.922
-60.858
-66.289
-74.75
-83.959
-91.26
-93.584
-90.407
-84.341
-75.06
-60.701
-35.403
12.351
88.275
193.697
323.923
463.237
596.026
706.866
783.257
823.089
828.868
807.108
764.751
703.821
624.344
525.574
408.72
279.128
144.037
10.922
-113.55
-224.287
-317.603
-390.962
-442.955
-473.736
-484.605
-477.373
-454.929
-420.906
-378.943
-332.806
-285.887
-240.723
-199.391
-163.674
-134.697
-112.542
-96.588
-85.916
-78.437
-72.231
-66.965
-61.434
-56.317
-53.345
-49.974
-44.967
-36.38
-21.293
-3.585
13.208
26.338
32.28
33.208
31.567
28.291
25.19
21.891
17.903
14.028
10.575
7.877
6.316
5.775
6.136
7.462
9.708
12.772
16.582
21.04
26.046
31.542
37.441
43.627
50
56.436
62.817
69.038
74.986
80.585
85.795
90.585
94.942
98.873
102.387
105.516
108.302
110.78
112.985
114.95
116.7
118.272
119.706
121.038
122.31
123.55
124.773
125.995
127.225
128.466
129.718
130.978
132.231
133.473
134.698
135.903
137.086
138.242
139.365
140.45
141.487
142.472
143.398
144.26
145.05
145.764
146.397
146.944
147.404
147.774
148.047
148.221
148.29
148.25
148.098
147.829
147.441
146.93
146.296
145.538
144.656
143.652
142.527
141.283
139.923
138.451
136.871
135.187
133.405
131.529
129.566
127.523
125.406
123.222
120.98
118.687
116.351
113.981
111.585
109.171
106.748
104.324
101.905
99.501
97.118
94.763
92.442
90.163
87.931
85.752
83.63
81.57
79.575
77.649
75.794
74.011
72.303
70.671
69.114
67.633
66.228
64.898
63.642
62.458
61.345
60.3
59.321
58.404
57.547
56.745
55.994
55.292
54.633
54.013
53.428
52.873
52.345
51.839
51.349
50.872
50.403
49.937
49.471
49.001
48.521
48.03
47.524
47
46.456
45.888
45.297
44.678
44.033
43.359
42.655
41.921
41.158
40.365
39.544
38.696
37.822
36.925
36.006
35.07
34.119
33.156
32.185
31.209
30.232
29.259
28.294
27.34
26.404
25.489
24.6
23.743
22.921
22.139
21.401
20.71
20.071
19.486
18.959
18.491
18.084
17.74
17.461
17.246
17.096
17.007
16.98
17.01
17.094
17.226
17.4
17.608
17.841
18.089
18.343
18.591
18.822
19.024
19.186
19.299
19.352
19.334
19.234
19.04
18.74
18.322
17.775
17.089
16.254
15.265
14.118
12.815
11.353
9.732
7.942
5.977
3.834
1.51
-0.995
-3.674
-6.514
-9.49
-12.565
-15.7
-18.856
-21.998
-25.099
-28.132
-31.062
-33.856
-36.466
-38.848
-40.963
-42.772
-44.238
-45.35
-46.127
-46.621
-46.925
-47.128
-47.297
-47.512
-47.86
-48.43
-49.325
-50.636
-52.436
-54.859
-58.097
-62.273
-67.392
-73.287
-79.575
-85.815
-91.558
-96.237
-99.191
-99.961
-98.468
-95.101
-90.671
-86.234
-82.898
-81.771
-84.006
-89.4
-96.145
-102.236
-105.814
-107.187
-108.042
-107.189
-99.967
-77.792
-31.597
42.222
141.891
259.441
383.383
502.585
604.991
681.522
727.667
743.053
732.739
701.997
653.386
586.975
500.852
395.425
274.744
145.214
14.448
-111.146
-226.443
-327.087
-409.948
-472.786
-514.905
-537.187
-541.108
-528.86
-503.511
-468.486
-427.501
-384.212
-341.124
-300.141
-263.225
-231.798
-206.664
-187.921
-174.682
-165.661
-160.035
-156.898
-154.937
-152.866
-149.424
-143.944
-136.654
-128.077
-118.628
-108.823
-99.304
-90.821
-84.307
-80.249
-78.575
-79.034
-81.233
-84.747
-89.226
-94.204
-99.071
-103.411
-106.979
-109.611
-111.311
-112.093
-111.927
-110.868
-109.008
-106.425
-103.224
-99.5
-95.319
-90.774
-85.96
-80.961
-75.894
-70.865
-65.97
-61.313
-56.959
-52.941
-49.291
-46.014
-43.099
-40.535
-38.288
-36.315
-34.582
-33.056
-31.704
-30.503
-29.418
-28.413
-27.454
-26.501
-25.529
-24.523
-23.47
-22.362
-21.199
-19.981
-18.715
-17.414
-16.087
-14.74
-13.38
-12.009
-10.633
-9.26
-7.899
-6.557
-5.245
-3.969
-2.737
-1.558
-0.44
0.611
1.589
2.49
3.309
4.038
4.673
5.207
5.635
5.953
6.155
6.239
6.201
6.041
5.757
5.35
4.822
4.175
3.411
2.534
1.548
0.458
-0.732
-2.014
-3.382
-4.83
-6.351
-7.935
-9.575
-11.261
-12.985
-14.737
-16.508
-18.289
-20.07
-21.842
-23.596
-25.324
-27.017
-28.668
-30.268
-31.812
-33.293
-34.705
-36.043
-37.302
-38.481
-39.575
-40.582
-41.501
-42.332
-43.073
-43.725
-44.289
-44.766
-45.158
-45.468
-45.699
-45.853
-45.935
-45.95
-45.9
-45.793
-45.631
-45.422
-45.169
-44.879
-44.557
-44.209
-43.841
-43.458
-43.066
-42.669
-42.273
-41.882
-41.501
-41.133
-40.783
-40.453
-40.147
-39.866
-39.614
-39.391
-39.199
-39.039
-38.91
-38.812
-38.744
-38.704
-38.692
-38.704
-38.737
-38.79
-38.858
-38.938
-39.026
-39.118
-39.209
-39.294
-39.368
-39.425
-39.46
-39.466
-39.438
-39.371
-39.259
-39.097
-38.88
-38.601
-38.257
-37.843
-37.354
-36.786
-36.134
-35.396
-34.568
-33.649
-32.638
-31.533
-30.335
-29.046
-27.667
-26.2
-24.648
-23.015
-21.304
-19.521
-17.671
-15.762
-13.8
-11.797
-9.762
-7.711
-5.655
-3.61
-1.591
0.388
2.313
4.17
5.943
7.619
9.184
10.623
11.922
13.064
14.033
14.817
15.403
15.786
15.959
15.92
15.671
15.211
14.54
13.657
12.555
11.23
9.686
7.922
5.943
3.764
1.405
-1.106
-3.727
-6.423
-9.161
-11.907
-14.637
-17.312
-19.886
-22.311
-24.539
-26.537
-28.287
-29.757
-30.901
-31.702
-32.168
-32.353
-32.361
-32.245
-32.017
-31.756
-31.621
-31.887
-32.866
-34.71
-37.431
-41.072
-45.699
-51.233
-57.331
-63.18
-67.775
-70.471
-70.971
-69.14
-65.001
-58.789
-51.165
-43.752
-38.707
-37.636
-41.55
-49.99
-60.988
-72.831
-84.27
-96.048
-109.678
-123.274
-130.922
-121.176
-82.909
-13.309
83.376
195.482
310.844
424.514
532.256
629.648
711.174
766.706
791.241
786.189
754.464
702.081
631.926
543.38
438.433
320.353
194.744
69.485
-49.323
-157.141
-250.278
-326.64
-384.936
-424.806
-447.677
-455.96
-452.345
-439.435
-419.404
-394.181
-365.625
-335.259
-303.798
-271.403
-238.075
-204.238
-170.977
-139.517
-110.928
-85.906
-65.016
-48.878
-37.946
-32.032
-30.186
-31.045
-33.104
-35.38
-37.333
-38.487
-38.551
-37.552
-35.84
-34.082
-33.108
-33.304
-34.653
-37.026
-40.12
-43.599
-47.129
-50.258
-52.492
-53.572
-53.442
-52.143
-49.826
-46.622
-42.622
-37.977
-32.854
-27.394
-21.719
-15.932
-10.117
-4.384
1.141
6.365
11.223
15.681
19.734
23.387
26.65
29.551
32.124
34.406
36.431
38.228
39.822
41.244
42.53
43.719
44.855
45.97
47.084
48.211
49.357
50.523
51.706
52.897
54.083
55.251
56.396
57.51
58.59
59.631
60.624
61.561
62.432
63.228
63.944
64.571
65.103
65.533
65.858
66.074
66.178
66.168
66.039
65.789
65.413
64.908
64.272
63.502
62.598
61.559
60.387
59.083
57.651
56.094
54.419
52.629
50.732
48.735
46.643
44.466
42.212
39.888
37.506
35.072
32.598
30.094
27.568
25.032
22.496
19.97
17.464
14.986
12.548
10.159
7.826
5.559
3.366
1.253
-0.772
-2.703
-4.534
-6.26
-7.878
-9.384
-10.777
-12.055
-13.216
-14.261
-15.191
-16.006
-16.709
-17.301
-17.784
-18.163
-18.441
-18.622
-18.711
-18.713
-18.634
-18.48
-18.257
-17.973
-17.633
-17.244
-16.814
-16.349
-15.857
-15.345
-14.819
-14.288
-13.757
-13.236
-12.73
-12.247
-11.793
-11.375
-10.997
-10.665
-10.385
-10.162
-9.998
-9.899
-9.867
-9.907
-10.02
-10.208
-10.472
-10.811
-11.226
-11.713
-12.271
-12.893
-13.575
-14.313
-15.101
-15.934
-16.805
-17.709
-18.64
-19.595
-20.566
-21.547
-22.527
-23.497
-24.446
-25.361
-26.232
-27.044
-27.785
-28.444
-29.01
-29.478
-29.839
-30.084
-30.2
-30.172
-29.99
-29.65
-29.149
-28.485
-27.664
-26.697
-25.604
-24.419
-23.167
-21.86
-20.506
-19.099
-17.639
-16.129
-14.569
-12.959
-11.297
-9.578
-7.804
-5.988
-4.121
-2.187
-0.148
2.061
4.473
7.092
9.909
12.891
15.996
19.184
22.387
25.521
28.515
31.307
33.85
36.12
38.065
39.61
40.661
41.1
40.848
39.864
38.132
35.656
32.475
28.652
24.292
19.537
14.508
9.298
3.988
-1.365
-6.67
-11.807
-16.648
-21.061
-24.94
-28.216
-30.848
-32.823
-34.181
-35.008
-35.417
-35.564
-35.598
-35.651
-35.863
-36.353
-37.226
-38.644
-40.842
-43.983
-48.118
-53.13
-58.662
-64.351
-69.905
-74.875
-78.673
-80.864
-81.265
-80.215
-78.663
-77.448
-77.223
-78.836
-83.085
-90.418
-99.986
-109.123
-114.659
-114.334
-108.877
-100.695
-89.417
-71.44
-38.417
19.447
104.533
212.727
333.123
449.529
551.154
631.477
687.507
722.434
737.139
731.072
704.602
655.162
582.687
489.991
380.12
258.889
132.429
5.876
-115.186
-225.799
-321.937
-400.079
-457.92
-494.766
-510.962
-507.826
-487.886
-454.567
-411.748
-363.621
-314.11
-266.377
-223.168
-186.682
-158.129
-137.614
-124.338
-116.778
-113.159
-111.873
-111.212
-109.497
-105.438
-98.469
-88.779
-77.069
-64.275
-51.275
-38.959
-28.259
-20.017
-14.672
-12.18
-12.225
-14.314
-17.933
-22.638
-27.935
-33.285
-38.295
-42.717
-46.381
-49.209
-51.157
-52.168
-52.242
-51.436
-49.797
-47.391
-44.298
-40.589
-36.361
-31.717
-26.744
-21.539
-16.206
-10.842
-5.551
-0.441
4.42
8.982
13.211
17.101
20.653
23.88
26.809
29.478
31.92
34.168
36.247
38.178
39.988
41.708
43.367
45.001
46.633
48.274
49.936
51.617
53.316
55.029
56.742
58.438
60.104
61.729
63.303
64.821
66.274
67.651
68.944
70.141
71.233
72.213
73.074
73.808
74.411
74.879
75.208
75.4
75.453
75.365
75.136
74.763
74.248
73.59
72.791
71.852
70.777
69.569
68.233
66.776
65.203
63.522
61.739
59.864
57.904
55.867
53.763
51.602
49.391
47.142
44.862
42.564
40.255
37.946
35.645
33.363
31.107
28.885
26.707
24.577
22.504
20.494
18.55
16.68
14.887
13.175
11.547
10.008
8.559
7.201
5.938
4.768
3.694
2.713
1.827
1.035
0.335
-0.274
-0.794
-1.226
-1.572
-1.836
-2.021
-2.13
-2.167
-2.137
-2.044
-1.892
-1.687
-1.434
-1.136
-0.799
-0.426
-0.023
0.407
0.86
1.33
1.813
2.305
2.8
3.294
3.781
4.257
4.718
5.158
5.574
5.96
6.311
6.624
6.894
7.117
7.289
7.407
7.467
7.469
7.411
7.292
7.115
6.88
6.59
6.249
5.859
5.425
4.951
4.439
3.893
3.317
2.713
2.085
1.439
0.779
0.113
-0.55
-1.2
-1.828
-2.422
-2.974
-3.474
-3.914
-4.286
-4.585
-4.804
-4.935
-4.968
-4.889
-4.688
-4.361
-3.907
-3.331
-2.645
-1.866
-1.015
-0.116
0.814
1.762
2.723
3.704
4.71
5.75
6.822
7.911
9.006
10.098
11.183
12.262
13.35
14.47
15.651
16.932
18.333
19.858
21.486
23.174
24.861
26.48
27.978
29.323
30.483
31.432
32.134
32.558
32.659
32.388
31.681
30.467
28.702
26.371
23.507
20.176
16.467
12.493
8.345
4.106
-0.146
-4.341
-8.404
-12.268
-15.862
-19.116
-21.946
-24.271
-26.05
-27.285
-28.04
-28.407
-28.482
-28.388
-28.254
-28.212
-28.41
-28.991
-30.056
-31.721
-34.15
-37.446
-41.646
-46.654
-52.111
-57.555
-62.555
-66.621
-69.184
-69.838
-68.371
-64.972
-60.472
-55.941
-52.312
-50.393
-51.081
-55.005
-62.054
-71.377
-80.277
-84.624
-81.684
-69.434
-47.154
-16.391
24.207
77.371
146.07
234.594
341.017
458.625
576.359
677.974
751.763
790.181
791.615
762.987
711.004
640.089
551.941
444.105
314.563
168.477
16.843
-128.085
-253.24
-353.432
-431.857
-491.794
-537.977
-572.121
-591.168
-594.037
-580.988
-554.079
-517.935
-476.186
-431.285
-384.938
-337.908
-291.4
-247.222
-206.76
-171.046
-140.697
-115.666
-95.92
-81.523
-72.01
-66.218
-62.859
-60.572
-58.158
-55.198
-51.526
-46.953
-41.648
-36.099
-30.88
-26.746
-24.417
-24.041
-25.472
-28.479
-32.619
-37.45
-42.548
-47.376
-51.405
-54.331
-56.025
-56.485
-55.824
-54.138
-51.504
-48.046
-43.902
-39.208
-34.089
-28.649
-22.976
-17.165
-11.322
-5.556
0.02
5.304
10.235
14.785
18.945
22.728
26.146
29.222
31.988
34.49
36.771
38.869
40.818
42.643
44.378
46.062
47.733
49.43
51.177
52.986
54.86
56.798
58.795
60.844
62.933
65.04
67.151
69.253
71.335
73.39
75.406
77.371
79.269
81.088
82.814
84.437
85.946
87.329
88.579
89.686
90.645
91.449
92.093
92.572
92.877
93.004
92.948
92.704
92.27
91.643
90.822
89.808
88.603
87.21
85.635
83.881
81.957
79.867
77.622
75.229
72.698
70.039
67.263
64.381
61.404
58.347
55.22
52.036
48.809
45.552
42.278
38.999
35.728
32.477
29.259
26.085
22.967
19.916
16.942
14.054
11.263
8.575
5.999
3.54
1.204
-1.004
-3.082
-5.026
-6.835
-8.507
-10.043
-11.443
-12.709
-13.841
-14.844
-15.72
-16.474
-17.111
-17.635
-18.053
-18.371
-18.594
-18.732
-18.789
-18.775
-18.697
-18.564
-18.383
-18.164
-17.915
-17.645
-17.363
-17.077
-16.794
-16.523
-16.27
-16.043
-15.848
-15.691
-15.578
-15.513
-15.501
-15.546
-15.65
-15.816
-16.045
-16.34
-16.699
-17.122
-17.609
-18.158
-18.766
-19.431
-20.148
-20.914
-21.723
-22.569
-23.447
-24.349
-25.266
-26.192
-27.117
-28.034
-28.933
-29.805
-30.641
-31.433
-32.173
-32.85
-33.458
-33.987
-34.431
-34.781
-35.032
-35.177
-35.21
-35.128
-34.927
-34.603
-34.155
-33.581
-32.881
-32.056
-31.108
-30.04
-28.857
-27.564
-26.17
-24.682
-23.112
-21.473
-19.776
-18.037
-16.271
-14.494
-12.724
-10.977
-9.269
-7.617
-6.039
-4.55
-3.168
-1.91
-0.79
0.174
0.968
1.578
1.991
2.197
2.191
1.968
1.524
0.857
-0.04
-1.168
-2.526
-4.113
-5.922
-7.945
-10.167
-12.564
-15.098
-17.732
-20.426
-23.145
-25.858
-28.528
-31.118
-33.588
-35.89
-37.983
-39.832
-41.398
-42.652
-43.569
-44.143
-44.41
-44.44
-44.309
-44.094
-43.85
-43.629
-43.524
-43.621
-44.009
-44.778
-45.959
-47.633
-49.962
-53.034
-56.838
-61.239
-65.878
-70.352
-74.336
-77.369
-78.846
-78.313
-75.566
-70.792
-64.591
-57.8
-51.284
-45.92
-43.044
-42.872
-43.746
-43.928
-41.142
-35.127
-29.901
-27.314
-25.94
-20.491
2.518
54.364
140.244
260.833
402.788
547.001
674.394
763.936
807.405
807.626
772.32
716.192
647.788
568.034
476.318
369.392
248.249
118.987
-11.575
-136.247
-249.7
-348.519
-430.238
-493.426
-537.316
-562.352
-569.86
-561.26
-538.548
-504.374
-461.427
-412.655
-361.128
-309.003
-258.173
-210.965
-169.114
-133.774
-105.811
-85.063
-70.674
-62.071
-58.373
-57.956
-59.373
-61.181
-61.931
-61.129
-58.839
-55.036
-50.018
-44.441
-38.876
-34.084
-30.903
-29.523
-29.786
-31.488
-34.205
-37.492
-40.989
-44.188
-46.551
-47.83
-47.941
-46.908
-44.887
-41.985
-38.275
-33.896
-28.996
-23.708
-18.156
-12.424
-6.568
-0.677
5.156
10.827
16.224
21.283
25.975
30.286
34.223
37.801
41.032
43.95
46.599
49.019
51.248
53.316
55.246
57.067
58.815
60.524
62.236
63.978
65.761
67.593
69.476
71.406
73.38
75.388
77.413
79.439
81.458
83.459
85.437
87.382
89.283
91.128
92.902
94.596
96.197
97.696
99.081
100.344
101.475
102.467
103.315
104.011
104.55
104.924
105.128
105.155
105.003
104.667
104.144
103.435
102.537
101.454
100.187
98.74
97.117
95.323
93.364
91.246
88.976
86.563
84.015
81.339
78.547
75.647
72.649
69.565
66.406
63.181
59.904
56.584
53.234
49.864
46.487
43.112
39.751
36.413
33.109
29.848
26.638
23.488
20.405
17.396
14.468
11.626
8.875
6.22
3.664
1.211
-1.135
-3.374
-5.501
-7.516
-9.417
-11.202
-12.873
-14.427
-15.866
-17.189
-18.399
-19.497
-20.483
-21.362
-22.135
-22.805
-23.376
-23.852
-24.237
-24.535
-24.751
-24.889
-24.954
-24.952
-24.888
-24.765
-24.591
-24.37
-24.108
-23.81
-23.482
-23.128
-22.755
-22.368
-21.972
-21.572
-21.174
-20.782
-20.401
-20.035
-19.69
-19.368
-19.074
-18.81
-18.58
-18.385
-18.227
-18.106
-18.024
-17.98
-17.974
-18.004
-18.069
-18.168
-18.298
-18.456
-18.639
-18.844
-19.068
-19.305
-19.551
-19.803
-20.055
-20.302
-20.54
-20.764
-20.969
-21.151
-21.306
-21.43
-21.519
-21.57
-21.58
-21.546
-21.467
-21.341
-21.168
-20.949
-20.689
-20.392
-20.062
-19.707
-19.333
-18.948
-18.562
-18.181
-17.811
-17.458
-17.13
-16.834
-16.579
-16.376
-16.232
-16.157
-16.158
-16.242
-16.418
-16.689
-17.052
-17.508
-18.057
-18.702
-19.46
-20.341
-21.352
-22.496
-23.776
-25.185
-26.717
-28.355
-30.062
-31.803
-33.542
-35.246
-36.895
-38.461
-39.91
-41.199
-42.272
-43.079
-43.582
-43.755
-43.579
-43.054
-42.198
-41.058
-39.711
-38.249
-36.773
-35.388
-34.208
-33.361
-32.967
-33.183
-34.213
-36.201
-39.213
-43.183
-47.846
-52.864
-57.904
-62.524
-66.194
-68.523
-69.271
-68.59
-67.237
-66.059
-65.876
-67.543
-71.667
-78.557
-88.205
-99.686
-110.92
-119.479
-122.604
-117.454
-101.778
-73.503
-30.978
25.986
96.113
177.099
265.319
356.548
446.547
530.153
601.946
657.364
692.417
704.233
691.622
653.996
591.711
507.213
404.234
287.434
162.65
35.573
-88.545
-203.825
-305.004
-388.356
-451.259
-493.002
-514.583
-517.358
-503.443
-476.42
-440.214
-398.797
-356.033
-314.342
-275.366
-240.871
-211.976
-188.946
-171.421
-158.197
-147.79
-139.43
-132.395
-125.641
-118.284
-109.474
-98.879
-86.981
-74.435
-61.697
-49.272
-37.693
-27.528
-19.528
-14.047
-10.939
-9.939
-10.677
-12.779
-15.965
-19.848
-23.902
-27.77
-31.235
-34.142
-36.455
-38.096
-38.963
-39.043
-38.375
-37.013
-35.032
-32.49
-29.431
-25.932
-22.072
-17.933
-13.611
-9.177
-4.704
-0.269
4.05
8.168
12.02
15.573
18.816
21.754
24.406
26.788
28.926
30.858
32.62
34.242
35.754
37.173
38.524
39.834
41.135
42.462
43.841
45.286
46.804
48.395
50.058
51.787
53.572
55.394
57.239
59.093
60.946
62.791
64.618
66.413
68.162
69.852
71.467
72.997
74.429
75.75
76.952
78.022
78.955
79.745
80.385
80.867
81.186
81.335
81.308
81.102
80.712
80.135
79.37
78.417
77.276
75.951
74.445
72.762
70.908
68.889
66.712
64.387
61.92
59.323
56.605
53.778
50.852
47.841
44.757
41.611
38.419
35.191
31.942
28.684
25.43
22.193
18.983
15.814
12.696
9.639
6.655
3.753
0.94
-1.773
-4.379
-6.873
-9.248
-11.5
-13.623
-15.616
-17.474
-19.198
-20.786
-22.237
-23.553
-24.735
-25.786
-26.709
-27.507
-28.185
-28.749
-29.203
-29.555
-29.81
-29.977
-30.061
-30.072
-30.015
-29.9
-29.733
-29.524
-29.279
-29.006
-28.713
-28.408
-28.096
-27.786
-27.484
-27.195
-26.925
-26.679
-26.462
-26.278
-26.129
-26.019
-25.95
-25.923
-25.94
-26
-26.102
-26.247
-26.431
-26.652
-26.907
-27.192
-27.501
-27.831
-28.175
-28.528
-28.884
-29.236
-29.579
-29.905
-30.209
-30.483
-30.721
-30.916
-31.062
-31.152
-31.182
-31.145
-31.037
-30.854
-30.591
-30.247
-29.818
-29.304
-28.703
-28.015
-27.241
-26.382
-25.442
-24.423
-23.33
-22.169
-20.947
-19.672
-18.357
-17.012
-15.65
-14.284
-12.929
-11.6
-10.31
-9.072
-7.897
-6.8
-5.79
-4.881
-4.088
-3.422
-2.894
-2.516
-2.295
-2.239
-2.355
-2.64
-3.095
-3.716
-4.506
-5.473
-6.627
-7.974
-9.516
-11.256
-13.185
-15.292
-17.56
-19.954
-22.437
-24.97
-27.514
-30.037
-32.509
-34.891
-37.138
-39.189
-40.981
-42.461
-43.582
-44.311
-44.643
-44.59
-44.191
-43.514
-42.625
-41.616
-40.589
-39.639
-38.875
-38.4
-38.319
-38.825
-40.166
-42.476
-45.793
-50.001
-54.768
-59.771
-64.673
-68.907
-71.824
-73.037
-72.411
-70.241
-67.461
-65.07
-63.993
-65.525
-69.967
-76.036
-82.669
-88.24
-93.103
-100.64
-110.559
-119
-117.179
-91.885
-36.653
47.391
154.073
272.682
394.763
514.166
621.588
705.81
758.005
773.472
755.494
714.319
657.633
589.089
509.116
415.2
308.503
194.08
78.049
-32.944
-134.242
-223.028
-297.218
-355.642
-397.977
-424.887
-437.875
-438.643
-428.717
-409.903
-384.351
-354.304
-321.78
-288.131
-254.32
-221.48
-191.144
-164.597
-142.355
-124.281
-109.925
-99.01
-91.265
-86.041
-82.093
-78.04
-73.151
-67.33
-60.802
-53.816
-46.566
-39.343
-32.839
-27.934
-25.07
-24.278
-25.315
-27.761
-31.289
-35.622
-40.299
-44.77
-48.629
-51.598
-53.578
-54.618
-54.74
-53.961
-52.341
-49.957
-46.912
-43.321
-39.277
-34.86
-30.152
-25.23
-20.198
-15.171
-10.259
-5.573
-1.188
2.862
6.546
9.853
12.785
15.346
17.559
19.468
21.107
22.507
23.697
24.699
25.545
26.277
26.933
27.558
28.181
28.819
29.486
30.194
30.946
31.744
32.585
33.453
34.344
35.252
36.173
37.107
38.049
38.991
39.926
40.846
41.744
42.614
43.449
44.242
44.988
45.681
46.317
46.894
47.407
47.853
48.225
48.518
48.727
48.849
48.878
48.811
48.645
48.377
48.007
47.535
46.96
46.284
45.509
44.636
43.669
42.611
41.465
40.236
38.93
37.551
36.105
34.597
33.036
31.426
29.776
28.091
26.381
24.651
22.91
21.164
19.422
17.689
15.974
14.281
12.618
10.991
9.405
7.865
6.375
4.94
3.564
2.25
0.999
-0.184
-1.3
-2.345
-3.32
-4.223
-5.054
-5.814
-6.501
-7.116
-7.661
-8.136
-8.543
-8.883
-9.159
-9.373
-9.528
-9.628
-9.676
-9.676
-9.633
-9.549
-9.43
-9.278
-9.1
-8.898
-8.676
-8.439
-8.19
-7.935
-7.676
-7.419
-7.168
-6.926
-6.697
-6.487
-6.298
-6.135
-6.002
-5.902
-5.839
-5.817
-5.84
-5.909
-6.028
-6.198
-6.421
-6.695
-7.021
-7.395
-7.817
-8.283
-8.79
-9.338
-9.921
-10.54
-11.191
-11.872
-12.581
-13.314
-14.066
-14.828
-15.595
-16.357
-17.107
-17.833
-18.526
-19.174
-19.772
-20.311
-20.783
-21.175
-21.473
-21.663
-21.74
-21.702
-21.548
-21.285
-20.917
-20.458
-19.934
-19.37
-18.788
-18.206
-17.625
-17.045
-16.47
-15.905
-15.358
-14.828
-14.294
-13.731
-13.121
-12.44
-11.663
-10.756
-9.648
-8.284
-6.626
-4.648
-2.363
0.206
3.036
6.092
9.33
12.684
16.06
19.354
22.488
25.379
27.944
30.082
31.651
32.533
32.643
31.916
30.339
27.917
24.674
20.667
15.978
10.717
5.018
-0.976
-7.132
-13.31
-19.379
-25.183
-30.549
-35.346
-39.426
-42.665
-45.091
-46.738
-47.676
-48.053
-47.879
-47.168
-46.146
-45.033
-43.841
-42.639
-41.433
-40.237
-39.528
-39.706
-40.687
-42.28
-44.388
-46.823
-49.514
-52.292
-54.361
-55.125
-54.817
-54.053
-53.379
-53.576
-55.275
-58.757
-64.885
-73.3
-81.34
-87.185
-89.64
-88.181
-84.631
-76.403
-56.489
-18.526
44.036
130.12
231.084
338.218
441.934
536.263
618.821
686.899
738.906
773.615
790.538
787.952
762.311
709.415
624.353
508.324
368.543
216.389
67.566
-66.626
-179.248
-267.953
-336.779
-388.571
-425.592
-448.817
-455.811
-446.403
-422.74
-388.279
-348.31
-307.151
-267.304
-230.623
-198.727
-172.786
-153.088
-139.093
-129.593
-123.101
-118.57
-115.025
-110.979
-105.082
-96.728
-85.937
-73.303
-59.697
-45.768
-32.125
-19.692
-9.406
-1.782
3.059
5.356
5.571
4.098
1.277
-2.44
-6.55
-10.67
-14.525
-17.948
-20.881
-23.239
-24.909
-25.834
-26.008
-25.444
-24.197
-22.328
-19.884
-16.943
-13.591
-9.91
-5.982
-1.887
2.302
6.504
10.64
14.629
18.385
21.844
24.964
27.727
30.14
32.223
33.996
35.492
36.749
37.8
38.68
39.415
40.025
40.536
40.975
41.375
41.774
42.2
42.672
43.201
43.792
44.443
45.155
45.919
46.721
47.55
48.397
49.255
50.122
50.991
51.855
52.703
53.525
54.312
55.056
55.747
56.378
56.941
57.431
57.841
58.171
58.415
58.57
58.632
58.595
58.457
58.214
57.865
57.407
56.84
56.163
55.377
54.486
53.491
52.397
51.206
49.923
48.554
47.103
45.575
43.978
42.315
40.595
38.824
37.008
35.155
33.271
31.364
29.44
27.507
25.572
23.64
21.717
19.811
17.926
16.068
14.243
12.454
10.707
9.005
7.352
5.752
4.208
2.721
1.295
-0.069
-1.369
-2.604
-3.772
-4.873
-5.906
-6.87
-7.765
-8.591
-9.347
-10.034
-10.654
-11.205
-11.69
-12.109
-12.464
-12.757
-12.988
-13.161
-13.277
-13.34
-13.351
-13.314
-13.232
-13.108
-12.946
-12.75
-12.523
-12.27
-11.993
-11.699
-11.391
-11.074
-10.751
-10.429
-10.112
-9.804
-9.509
-9.233
-8.978
-8.75
-8.551
-8.385
-8.254
-8.161
-8.109
-8.098
-8.13
-8.205
-8.324
-8.484
-8.686
-8.927
-9.204
-9.513
-9.851
-10.214
-10.596
-10.993
-11.397
-11.804
-12.206
-12.596
-12.967
-13.311
-13.619
-13.885
-14.098
-14.252
-14.339
-14.352
-14.283
-14.126
-13.875
-13.526
-13.073
-12.514
-11.845
-11.065
-10.173
-9.169
-8.056
-6.836
-5.514
-4.097
-2.592
-1.009
0.638
2.339
4.08
5.846
7.623
9.396
11.147
12.86
14.52
16.11
17.612
19.009
20.281
21.411
22.386
23.192
23.819
24.256
24.496
24.534
24.365
23.984
23.387
22.568
21.522
20.248
18.748
17.028
15.104
12.995
10.729
8.335
5.844
3.289
0.7
-1.888
-4.43
-6.887
-9.22
-11.389
-13.369
-15.116
-16.566
-17.692
-18.491
-18.99
-19.274
-19.373
-19.258
-19.031
-18.89
-19.04
-19.74
-21.061
-22.889
-25.329
-28.615
-32.701
-37.266
-41.731
-45.305
-47.673
-48.947
-48.886
-47.105
-43.582
-38.858
-34.172
-31.005
-30.277
-32.357
-37.726
-46.953
-59.209
-71.753
-81.452
-85.806
-85.347
-82.814
-77.524
-64.221
-33.42
24.396
111.145
220.416
339.528
454.426
555.251
637.614
701.792
750.621
786.691
809.167
813.158
789.863
730.232
630.406
494.455
335.966
172.965
23.099
-101.515
-198.024
-269.209
-322.119
-362.997
-393.675
-413.847
-420.836
-413.278
-393.326
-364.718
-332.143
-299.02
-266.632
-235.516
-206.191
-179.618
-156.634
-137.228
-120.773
-106.594
-94.424
-84.214
-75.601
-67.617
-59.229
-50.033
-40.221
-30.24
-20.423
-10.936
-2.022
5.711
11.475
14.877
15.953
14.987
12.399
8.541
3.696
-1.716
-7.129
-12.123
-16.409
-19.802
-22.283
-23.84
-24.432
-24.091
-22.887
-20.894
-18.216
-14.959
-11.204
-7.056
-2.613
2.035
6.768
11.472
16.039
20.356
24.352
27.99
31.24
34.089
36.545
38.618
40.339
41.755
42.901
43.814
44.525
45.058
45.45
45.741
45.968
46.174
46.388
46.625
46.901
47.225
47.599
48.022
48.49
48.987
49.506
50.042
50.589
51.146
51.708
52.267
52.815
53.344
53.847
54.317
54.746
55.129
55.458
55.73
55.939
56.085
56.162
56.168
56.098
55.947
55.71
55.386
54.969
54.458
53.85
53.144
52.34
51.439
50.44
49.347
48.159
46.881
45.513
44.06
42.523
40.909
39.219
37.459
35.633
33.748
31.808
29.819
27.787
25.719
23.62
21.498
19.357
17.203
15.043
12.883
10.726
8.58
6.449
4.337
2.249
0.189
-1.838
-3.831
-5.785
-7.698
-9.568
-11.393
-13.171
-14.899
-16.578
-18.204
-19.776
-21.294
-22.756
-24.162
-25.512
-26.804
-28.04
-29.22
-30.343
-31.412
-32.426
-33.386
-34.295
-35.154
-35.963
-36.726
-37.445
-38.121
-38.759
-39.36
-39.927
-40.464
-40.973
-41.457
-41.921
-42.365
-42.794
-43.21
-43.618
-44.02
-44.421
-44.823
-45.23
-45.646
-46.074
-46.519
-46.983
-47.469
-47.979
-48.516
-49.084
-49.684
-50.318
-50.987
-51.693
-52.437
-53.218
-54.038
-54.894
-55.783
-56.706
-57.657
-58.635
-59.634
-60.649
-61.675
-62.71
-63.747
-64.782
-65.81
-66.823
-67.817
-68.785
-69.722
-70.619
-71.465
-72.253
-72.973
-73.621
-74.188
-74.667
-75.052
-75.335
-75.512
-75.582
-75.539
-75.375
-75.082
-74.65
-74.081
-73.383
-72.565
-71.631
-70.589
-69.45
-68.227
-66.943
-65.609
-64.224
-62.788
-61.298
-59.765
-58.215
-56.666
-55.141
-53.651
-52.191
-50.767
-49.398
-48.088
-46.84
-45.649
-44.495
-43.396
-42.399
-41.544
-40.87
-40.402
-40.14
-40.097
-40.291
-40.736
-41.46
-42.478
-43.78
-45.376
-47.277
-49.482
-52.009
-54.825
-57.847
-61.014
-64.259
-67.523
-70.771
-73.948
-76.988
-79.85
-82.484
-84.85
-86.937
-88.729
-90.231
-91.49
-92.546
-93.47
-94.366
-95.325
-96.448
-97.84
-99.589
-101.783
-104.498
-107.831
-111.922
-116.854
-122.635
-129.16
-136.123
-143.134
-149.808
-155.585
-159.807
-162.01
-161.842
-159.219
-154.701
-149.084
-143.213
-138.446
-135.468
-133.415
-131.461
-128.495
-124.701
-123.799
-128.072
-135.691
-139.711
-126.176
-82.515
-4.831
102.112
223.931
343.884
451.572
541.481
612.749
666.894
702.013
714.793
702.649
663.332
597.405
508.258
400.354
278.967
150.108
19.534
-107.68
-226.287
-331.536
-420.098
-489.702
-539.253
-569.426
-581.54
-576.868
-557.786
-527.323
-488.484
-444.588
-398.63
-352.501
-308.073
-267.594
-232.615
-204.153
-182.549
-167.078
-156.789
-151.078
-148.903
-148.696
-148.912
-147.983
-145.034
-140.136
-133.582
-125.664
-116.901
-107.984
-99.773
-93.29
-89.043
-86.985
-86.902
-88.412
-91.121
-94.675
-98.566
-102.204
-105.209
-107.379
-108.61
-108.946
-108.416
-107.025
-104.862
-102.032
-98.631
-94.76
-90.496
-85.897
-81.039
-75.999
-70.86
-65.716
-60.648
-55.738
-51.07
-46.698
-42.654
-38.96
-35.607
-32.584
-29.874
-27.445
-25.26
-23.285
-21.49
-19.845
-18.331
-16.916
-15.571
-14.263
-12.956
-11.624
-10.252
-8.826
-7.343
-5.8
-4.198
-2.543
-0.848
0.878
2.628
4.397
6.181
7.977
9.775
11.568
13.346
15.1
16.824
18.508
20.144
21.726
23.245
24.696
26.076
27.379
28.6
29.732
30.77
31.707
32.539
33.261
33.867
34.355
34.722
34.966
35.085
35.081
34.954
34.705
34.336
33.849
33.248
32.535
31.716
30.793
29.772
28.658
27.458
26.178
24.823
23.401
21.92
20.386
18.807
17.191
15.545
13.876
12.193
10.501
8.81
7.126
5.456
3.807
2.186
0.6
-0.946
-2.445
-3.894
-5.285
-6.616
-7.883
-9.08
-10.206
-11.257
-12.229
-13.121
-13.929
-14.652
-15.289
-15.838
-16.3
-16.673
-16.958
-17.156
-17.268
-17.295
-17.241
-17.106
-16.894
-16.608
-16.253
-15.83
-15.345
-14.803
-14.208
-13.564
-12.879
-12.156
-11.401
-10.62
-9.818
-9
-8.172
-7.339
-6.506
-5.679
-4.861
-4.06
-3.279
-2.522
-1.794
-1.098
-0.438
0.184
0.765
1.304
1.802
2.256
2.667
3.037
3.367
3.66
3.919
4.146
4.344
4.519
4.674
4.814
4.946
5.072
5.199
5.335
5.489
5.668
5.879
6.13
6.426
6.775
7.184
7.66
8.207
8.826
9.523
10.306
11.182
12.161
13.244
14.419
15.682
17.029
18.454
19.948
21.502
23.095
24.72
26.38
28.075
29.811
31.576
33.348
35.105
36.825
38.496
40.125
41.71
43.236
44.7
46.104
47.454
48.771
50.043
51.222
52.267
53.139
53.813
54.296
54.588
54.682
54.568
54.218
53.61
52.74
51.59
50.128
48.325
46.141
43.585
40.727
37.643
34.405
31.073
27.681
24.264
20.879
17.582
14.435
11.509
8.856
6.536
4.627
3.185
2.258
1.842
1.865
2.238
2.872
3.659
4.493
5.265
5.842
6.123
5.98
5.197
3.614
1.154
-2.116
-5.919
-9.961
-13.993
-17.616
-20.281
-21.539
-21.131
-19.342
-17.033
-14.923
-13.73
-14.361
-17.585
-24.107
-33.363
-42.72
-49.313
-51.358
-49.373
-45.55
-39.523
-26.136
3.344
57.06
138.022
240.811
354.544
468.431
571.941
659.457
728.146
774.324
798.753
801.061
780.431
738.631
674.167
588.406
486.427
372.141
251.075
126.336
-2.08
-130.667
-252.175
-355.888
-430.71
-471.525
-481.416
-469.991
-447.097
-419.271
-388.665
-353.224
-312.243
-267.452
-221.304
-177.463
-138.423
-104.669
-76.49
-53.945
-36.503
-23.653
-14.83
-9.032
-5.271
-2.753
-0.485
2.496
6.533
11.609
17.585
24.023
30.454
36.486
41.543
45.018
46.716
46.73
45.265
42.712
39.463
35.835
32.255
29.175
26.862
25.474
25.066
25.571
26.926
29.081
31.929
35.352
39.245
43.498
48.033
52.79
57.689
62.653
67.605
72.46
77.144
81.582
85.72
89.528
92.997
96.133
98.953
101.474
103.725
105.744
107.566
109.22
110.735
112.129
113.428
114.66
115.856
117.048
118.258
119.5
120.779
122.099
123.459
124.856
126.284
127.728
129.177
130.623
132.062
133.488
134.898
136.284
137.636
138.946
140.207
141.413
142.558
143.635
144.638
145.564
146.41
147.173
147.853
148.445
148.947
149.357
149.671
149.889
150.01
150.033
149.959
149.788
149.523
149.167
148.722
148.191
147.58
146.89
146.127
145.294
144.396
143.438
142.423
141.356
140.242
139.086
137.891
136.663
135.406
134.124
132.822
131.505
130.175
128.837
127.495
126.152
124.81
123.474
122.144
120.822
119.512
118.212
116.926
115.653
114.394
113.149
111.92
110.705
109.506
108.324
107.159
106.013
104.887
103.783
102.701
101.645
100.615
99.615
98.645
97.706
96.801
95.929
95.093
94.292
93.527
92.8
92.109
91.455
90.839
90.26
89.719
89.216
88.75
88.321
87.929
87.575
87.257
86.974
86.724
86.507
86.318
86.157
86.021
85.905
85.807
85.723
85.649
85.578
85.508
85.435
85.356
85.27
85.173
85.065
84.945
84.814
84.674
84.523
84.359
84.175
83.968
83.737
83.482
83.205
82.904
82.577
82.227
81.863
81.492
81.124
80.759
80.395
80.035
79.691
79.382
79.137
78.974
78.904
78.933
79.065
79.31
79.67
80.137
80.683
81.262
81.832
82.376
82.896
83.396
83.866
84.211
84.31
84.175
83.848
83.418
83.008
82.549
81.954
81.409
81.152
81.146
81.314
81.307
80.576
79.229
77.534
75.312
72.693
70.286
68.422
68.102
69.941
72.459
75.568
80.361
88.427
103.222
123.532
143.337
156.158
154.506
137.881
112.827
85.225
61.718
44.167
28.911
14.478
-0.298
-15.613
-29.296
-40.903
-51.18
-60.345
-68.949
-77.418
-85.554
-93.285
-100.651
-107.326
-112.942
-117.42
-120.778
-123.175
-124.932
-126.269
-127.374
-128.5
-129.869
-131.733
-134.394
-137.998
-142.537
-147.873
-153.66
-159.573
-165.334
-170.455
-174.291
-176.335
-176.39
-174.815
-172.411
-170.114
-168.886
-169.629
-173.285
-179.712
-187.209
-193.673
-197.299
-198.578
-199.491
-199.466
-193.507
-171.59
-123.699
-46.543
54.812
167.639
278.531
379.121
465.476
537.159
593.226
630.308
644.471
632.563
593.503
528.089
438.958
330.34
206.987
74.703
-60.306
-192.762
-317.344
-428.794
-523.247
-597.973
-651.296
-683.664
-696.596
-691.503
-671.019
-638.625
-597.576
-551.453
-503.686
-456.31
-410.941
-369.551
-333.168
-302.239
-277.135
-257.211
-241.413
-229.299
-220.256
-213.162
-207.238
-201.65
-195.443
-188.538
-181.236
-173.617
-165.967
-158.754
-152.287
-147.084
-143.78
-142.474
-142.956
-144.968
-148.082
-151.881
-156.029
-160.069
-163.469
-165.898
-167.198
-167.321
-166.355
-164.38
-161.446
-157.653
-153.145
-148.056
-142.519
-136.655
-130.547
-124.287
-117.993
-111.779
-105.769
-100.079
-94.78
-89.908
-85.484
-81.503
-77.953
-74.817
-72.057
-69.624
-67.471
-65.557
-63.844
-62.301
-60.89
-59.565
-58.28
-56.986
-55.651
-54.256
-52.785
-51.231
-49.589
-47.859
-46.046
-44.164
-42.222
-40.226
-38.181
-36.089
-33.957
-31.796
-29.614
-27.423
-25.234
-23.056
-20.9
-18.775
-16.692
-14.661
-12.69
-10.787
-8.961
-7.221
-5.578
-4.044
-2.627
-1.338
-0.185
0.823
1.678
2.374
2.905
3.267
3.458
3.476
3.319
2.987
2.482
1.806
0.963
-0.044
-1.208
-2.525
-3.986
-5.583
-7.307
-9.148
-11.095
-13.137
-15.262
-17.458
-19.711
-22.009
-24.338
-26.686
-29.039
-31.384
-33.708
-35.998
-38.243
-40.43
-42.547
-44.584
-46.53
-48.377
-50.116
-51.739
-53.24
-54.611
-55.85
-56.95
-57.91
-58.726
-59.397
-59.923
-60.303
-60.54
-60.635
-60.591
-60.414
-60.108
-59.679
-59.134
-58.48
-57.726
-56.879
-55.949
-54.945
-53.874
-52.748
-51.576
-50.367
-49.132
-47.881
-46.624
-45.371
-44.131
-42.913
-41.726
-40.578
-39.476
-38.428
-37.438
-36.515
-35.662
-34.885
-34.187
-33.571
-33.041
-32.596
-32.238
-31.964
-31.773
-31.66
-31.623
-31.655
-31.749
-31.9
-32.102
-32.348
-32.631
-32.947
-33.287
-33.645
-34.013
-34.382
-34.743
-35.082
-35.389
-35.652
-35.861
-36.006
-36.081
-36.076
-35.985
-35.805
-35.531
-35.157
-34.675
-34.072
-33.339
-32.477
-31.491
-30.389
-29.191
-27.911
-26.568
-25.188
-23.79
-22.388
-20.987
-19.578
-18.15
-16.706
-15.256
-13.821
-12.424
-11.066
-9.747
-8.463
-7.199
-5.94
-4.669
-3.344
-1.942
-0.467
1.058
2.576
4.021
5.353
6.541
7.566
8.409
9.034
9.405
9.501
9.285
8.724
7.781
6.392
4.531
2.216
-0.507
-3.55
-6.806
-10.198
-13.652
-17.085
-20.422
-23.573
-26.464
-29.049
-31.275
-33.104
-34.505
-35.448
-35.956
-36.084
-35.911
-35.557
-35.167
-34.875
-34.82
-35.124
-35.915
-37.399
-39.73
-42.96
-47.02
-51.644
-56.537
-61.457
-66.039
-69.746
-72.104
-72.783
-71.905
-70.142
-68.072
-66.29
-65.577
-66.745
-70.855
-77.627
-84.563
-88.885
-87.993
-82.538
-77.236
-73.514
-69.52
-57.345
-21.92
45.272
146.72
276.551
415.896
547.138
654.075
724.617
759.033
761.585
739.208
699.187
642.961
569.394
477.095
366.649
242.394
110.938
-20.395
-145.738
-260.739
-361.569
-445.628
-511.132
-556.956
-583.664
-592.671
-585.388
-563.972
-531.251
-490.045
-443.434
-394.52
-345.358
-297.698
-253.648
-214.619
-181.473
-154.803
-134.213
-118.747
-107.8
-100.547
-95.6
-91.822
-88.092
-83.293
-77.194
-70.052
-62.019
-53.481
-45.068
-37.278
-30.721
-26.08
-23.476
-22.711
-23.576
-25.681
-28.595
-31.985
-35.412
-38.392
-40.674
-42.123
-42.65
-42.297
-41.106
-39.097
-36.377
-33.067
-29.259
-25.056
-20.537
-15.754
-10.797
-5.754
-0.693
4.303
9.166
13.831
18.218
22.276
25.988
29.349
32.375
35.09
37.515
39.682
41.635
43.409
45.04
46.559
47.987
49.351
50.684
52.016
53.383
54.809
56.304
57.877
59.528
61.255
63.053
64.912
66.814
68.744
70.692
72.647
74.602
76.546
78.467
80.35
82.182
83.95
85.641
87.244
88.746
90.136
91.403
92.54
93.539
94.392
95.091
95.627
95.991
96.178
96.181
95.993
95.611
95.031
94.251
93.27
92.092
90.717
89.148
87.392
85.453
83.338
81.056
78.614
76.022
73.291
70.431
67.454
64.372
61.199
57.947
54.631
51.263
47.858
44.431
40.996
37.566
34.157
30.783
27.456
24.192
21.003
17.902
14.901
12.011
9.243
6.607
4.112
1.765
-0.427
-2.457
-4.322
-6.017
-7.54
-8.889
-10.063
-11.062
-11.889
-12.544
-13.03
-13.353
-13.515
-13.524
-13.384
-13.104
-12.691
-12.154
-11.501
-10.744
-9.891
-8.956
-7.948
-6.881
-5.765
-4.612
-3.436
-2.247
-1.058
0.12
1.275
2.397
3.474
4.497
5.458
6.347
7.157
7.882
8.516
9.054
9.491
9.826
10.055
10.178
10.193
10.1
9.902
9.6
9.197
8.699
8.11
7.436
6.685
5.865
4.985
4.054
3.082
2.08
1.059
0.029
-0.998
-2.009
-2.994
-3.941
-4.839
-5.675
-6.44
-7.124
-7.717
-8.211
-8.598
-8.872
-9.026
-9.056
-8.957
-8.725
-8.36
-7.859
-7.223
-6.452
-5.551
-4.522
-3.37
-2.105
-0.736
0.725
2.266
3.872
5.528
7.216
8.921
10.625
12.312
13.967
15.574
17.115
18.573
19.931
21.171
22.279
23.241
24.043
24.674
25.126
25.395
25.48
25.377
25.082
24.578
23.854
22.902
21.718
20.301
18.658
16.794
14.73
12.5
10.14
7.691
5.193
2.671
0.16
-2.297
-4.652
-6.835
-8.782
-10.442
-11.767
-12.725
-13.302
-13.496
-13.337
-12.884
-12.211
-11.414
-10.599
-9.876
-9.382
-9.228
-9.564
-10.616
-12.545
-15.447
-19.304
-23.849
-28.736
-33.692
-38.316
-42.084
-44.644
-45.711
-45.356
-44.394
-43.771
-44.222
-46.536
-51.43
-59.157
-69.689
-82.41
-94.336
-102.104
-103.843
-96.749
-80.412
-55.149
-16.565
37.468
108.295
197.16
297.146
401.012
502.533
593.633
671.083
732.379
774.133
794.727
791.757
763.56
710.208
633.781
538.835
430.32
312.708
188.17
57.363
-76.356
-205.586
-318.649
-404.106
-456.426
-477.888
-478.053
-466.693
-449.762
-429.419
-403.688
-371.661
-335.224
-296.648
-258.942
-224.475
-193.793
-166.987
-144.169
-124.916
-108.631
-95.207
-84.391
-75.496
-68.065
-61.451
-54.738
-47.753
-40.711
-33.586
-26.549
-19.927
-13.916
-9.028
-5.942
-4.813
-5.51
-7.825
-11.38
-15.837
-20.907
-26.115
-30.908
-34.914
-37.891
-39.743
-40.506
-40.194
-38.828
-36.479
-33.263
-29.309
-24.745
-19.686
-14.215
-8.42
-2.407
3.702
9.785
15.723
21.405
26.767
31.761
36.354
40.54
44.322
47.712
50.742
53.451
55.874
58.043
59.985
61.725
63.297
64.739
66.088
67.385
68.653
69.906
71.157
72.409
73.663
74.915
76.157
77.375
78.559
79.703
80.801
81.851
82.848
83.784
84.653
85.447
86.16
86.787
87.324
87.767
88.112
88.356
88.498
88.539
88.476
88.308
88.033
87.647
87.15
86.54
85.816
84.977
84.023
82.957
81.78
80.496
79.108
77.621
76.039
74.367
72.612
70.78
68.877
66.91
64.887
62.815
60.701
58.554
56.383
54.194
51.997
49.799
47.609
45.433
43.281
41.159
39.075
37.035
35.047
33.115
31.247
29.448
27.722
26.075
24.509
23.029
21.637
20.334
19.123
18.003
16.975
16.038
15.192
14.435
13.765
13.179
12.674
12.247
11.893
11.608
11.386
11.223
11.113
11.05
11.028
11.043
11.089
11.16
11.25
11.354
11.466
11.582
11.694
11.798
11.887
11.957
12.002
12.018
12.001
11.945
11.848
11.706
11.515
11.274
10.98
10.63
10.224
9.763
9.247
8.677
8.057
7.39
6.681
5.935
5.159
4.357
3.534
2.697
1.851
1
0.149
-0.7
-1.54
-2.365
-3.166
-3.935
-4.663
-5.341
-5.959
-6.506
-6.972
-7.348
-7.631
-7.816
-7.896
-7.86
-7.697
-7.398
-6.965
-6.397
-5.698
-4.873
-3.933
-2.9
-1.805
-0.679
0.454
1.584
2.711
3.828
4.93
6.01
7.063
8.095
9.119
10.14
11.155
12.168
13.193
14.266
15.443
16.769
18.262
19.915
21.708
23.618
25.611
27.647
29.663
31.579
33.323
34.842
36.098
37.046
37.632
37.771
37.363
36.335
34.647
32.292
29.289
25.664
21.468
16.782
11.726
6.436
1.033
-4.402
-9.808
-15.11
-20.206
-24.968
-29.251
-32.965
-36.088
-38.603
-40.491
-41.789
-42.587
-43.123
-43.802
-44.918
-46.568
-48.768
-51.494
-54.738
-58.493
-62.445
-65.848
-68.072
-68.822
-68.102
-66.146
-63.028
-58.714
-53.603
-48.837
-45.79
-45.473
-48.251
-54.041
-62.945
-75.132
-90.272
-106.121
-118.647
-124.356
-121.038
-109.799
-93.409
-71.946
-42.609
2.717
72.77
170.476
293.053
426.855
553.742
659.894
734.538
777.376
794.776
790.019
766.597
723.836
657.455
567.938
458.044
332.768
200.2
67.042
-61.296
-179.317
-282.662
-368.055
-432.966
-476.823
-500.748
-506.285
-495.727
-472.316
-439.423
-400.656
-359.725
-319.042
-280.175
-244.813
-214.009
-188.214
-167.723
-151.902
-139.486
-129.829
-122.391
-116.192
-110.51
-104.589
-97.531
-89.284
-80.32
-70.886
-61.336
-52.186
-43.773
-36.636
-31.463
-28.398
-27.267
-27.855
-29.757
-32.603
-36.121
-39.88
-43.38
-46.314
-48.475
-49.743
-50.142
-49.675
-48.341
-46.218
-43.398
-39.982
-36.077
-31.774
-27.149
-22.285
-17.265
-12.173
-7.106
-2.148
2.614
7.093
11.236
15.008
18.389
21.387
24.016
26.293
28.255
29.942
31.388
32.63
33.695
34.605
35.393
36.09
36.73
37.353
37.983
38.64
39.338
40.082
40.875
41.72
42.608
43.529
44.474
45.436
46.41
47.393
48.379
49.361
50.33
51.275
52.189
53.062
53.886
54.653
55.354
55.984
56.535
57.004
57.386
57.675
57.866
57.952
57.929
57.791
57.536
57.158
56.656
56.027
55.271
54.389
53.382
52.253
51.004
49.639
48.162
46.58
44.899
43.124
41.264
39.326
37.32
35.254
33.137
30.979
28.79
26.579
24.357
22.134
19.918
17.719
15.547
13.41
11.316
9.273
7.29
5.373
3.528
1.763
0.081
-1.512
-3.012
-4.416
-5.722
-6.927
-8.031
-9.032
-9.933
-10.732
-11.432
-12.036
-12.545
-12.964
-13.296
-13.547
-13.721
-13.824
-13.862
-13.84
-13.765
-13.644
-13.483
-13.289
-13.068
-12.828
-12.575
-12.317
-12.06
-11.809
-11.573
-11.356
-11.165
-11.004
-10.879
-10.794
-10.755
-10.764
-10.825
-10.941
-11.114
-11.346
-11.637
-11.989
-12.4
-12.869
-13.395
-13.976
-14.608
-15.288
-16.012
-16.776
-17.575
-18.404
-19.256
-20.127
-21.008
-21.892
-22.773
-23.643
-24.494
-25.319
-26.11
-26.86
-27.56
-28.203
-28.782
-29.29
-29.72
-30.064
-30.317
-30.471
-30.523
-30.468
-30.301
-30.02
-29.624
-29.11
-28.479
-27.731
-26.868
-25.892
-24.806
-23.616
-22.327
-20.944
-19.477
-17.935
-16.329
-14.672
-12.977
-11.261
-9.538
-7.824
-6.138
-4.494
-2.908
-1.395
0.031
1.355
2.56
3.63
4.549
5.304
5.88
6.265
6.449
6.423
6.185
5.734
5.068
4.185
3.073
1.723
0.128
-1.714
-3.802
-6.128
-8.679
-11.434
-14.355
-17.403
-20.536
-23.714
-26.904
-30.075
-33.186
-36.187
-39.019
-41.619
-43.939
-45.933
-47.562
-48.822
-49.732
-50.339
-50.729
-50.971
-51.135
-51.33
-51.672
-52.25
-53.161
-54.481
-56.319
-58.902
-62.411
-66.866
-72.108
-77.889
-83.972
-89.966
-95.406
-99.725
-102.199
-103.34
-104.174
-104.541
-104.89
-103.973
-100.456
-97.816
-98.358
-103.901
-115.151
-125.63
-130.614
-129.673
-122.901
-113.117
-98.667
-68.529
-11.686
78.153
199.483
336.086
467.675
579.091
659.447
709.794
736.58
742.434
729.755
696.312
637.47
553.61
447.371
323.954
191.543
57.264
-72.689
-192.037
-296.565
-384.124
-452.912
-501.738
-528.306
-529.387
-505.332
-462.181
-411.442
-365.77
-332.775
-311.948
-296.128
-278.403
-256.016
-230.781
-207.854
-190.426
-178.562
-171.028
-165.315
-159.574
-153.144
-145.405
-136.278
-126.184
-115.518
-104.687
-94.185
-84.493
-76.142
-69.825
-65.9
-64.275
-64.701
-66.796
-70.138
-74.404
-79.206
-84.039
-88.533
-92.454
-95.627
-97.985
-99.493
-100.092
-99.788
-98.648
-96.733
-94.124
-90.911
-87.168
-82.995
-78.491
-73.746
-68.851
-63.905
-58.997
-54.224
-49.683
-45.435
-41.523
-37.977
-34.797
-31.979
-29.509
-27.356
-25.483
-23.857
-22.445
-21.221
-20.164
-19.245
-18.435
-17.701
-17.007
-16.327
-15.645
-14.947
-14.228
-13.485
-12.717
-11.932
-11.141
-10.352
-9.571
-8.805
-8.052
-7.319
-6.61
-5.934
-5.299
-4.71
-4.175
-3.699
-3.289
-2.95
-2.687
-2.502
-2.397
-2.375
-2.438
-2.591
-2.835
-3.175
-3.613
-4.149
-4.787
-5.526
-6.368
-7.312
-8.355
-9.496
-10.733
-12.063
-13.483
-14.989
-16.577
-18.243
-19.981
-21.787
-23.655
-25.579
-27.552
-29.567
-31.619
-33.699
-35.801
-37.918
-40.042
-42.166
-44.285
-46.39
-48.477
-50.539
-52.571
-54.566
-56.521
-58.43
-60.289
-62.095
-63.843
-65.532
-67.157
-68.718
-70.212
-71.637
-72.992
-74.276
-75.487
-76.627
-77.693
-78.686
-79.607
-80.457
-81.236
-81.947
-82.591
-83.17
-83.686
-84.141
-84.539
-84.882
-85.173
-85.415
-85.611
-85.764
-85.878
-85.955
-86
-86.014
-86.001
-85.965
-85.908
-85.834
-85.744
-85.644
-85.534
-85.419
-85.3
-85.181
-85.064
-84.952
-84.846
-84.747
-84.659
-84.581
-84.516
-84.462
-84.421
-84.392
-84.375
-84.369
-84.374
-84.387
-84.407
-84.434
-84.463
-84.494
-84.523
-84.547
-84.564
-84.571
-84.563
-84.537
-84.489
-84.415
-84.31
-84.169
-83.99
-83.766
-83.493
-83.167
-82.783
-82.337
-81.824
-81.242
-80.586
-79.854
-79.042
-78.148
-77.172
-76.111
-74.965
-73.734
-72.419
-71.021
-69.541
-67.982
-66.347
-64.64
-62.865
-61.027
-59.134
-57.19
-55.205
-53.189
-51.153
-49.109
-47.07
-45.049
-43.061
-41.12
-39.24
-37.435
-35.716
-34.095
-32.584
-31.195
-29.943
-28.837
-27.89
-27.111
-26.507
-26.085
-25.852
-25.806
-25.945
-26.268
-26.775
-27.473
-28.37
-29.469
-30.771
-32.272
-33.962
-35.826
-37.842
-39.973
-42.179
-44.415
-46.641
-48.823
-50.928
-52.915
-54.736
-56.331
-57.638
-58.605
-59.193
-59.37
-59.131
-58.491
-57.495
-56.221
-54.749
-53.17
-51.59
-50.125
-48.893
-48.017
-47.612
-47.823
-48.875
-50.92
-53.987
-57.947
-62.465
-67.187
-71.785
-75.779
-78.568
-79.695
-78.96
-76.683
-73.691
-70.665
-68.368
-67.793
-69.618
-74.398
-81.437
-87.964
-91.999
-92.324
-88.519
-82.209
-70.473
-46.512
-4.266
62.856
153.585
258.722
369.313
475.142
569.912
652.524
720.016
769.005
796.012
796.544
769.481
716.978
640.591
542.914
426.279
291.76
146.528
1.226
-133.539
-245.41
-330.26
-391.776
-433.508
-461.481
-477.961
-479.758
-466.689
-440.343
-403.911
-362.977
-321.446
-281.139
-243.491
-209.911
-181.344
-157.92
-139.067
-123.602
-110.358
-98.761
-88.237
-77.647
-65.97
-52.862
-38.502
-23.57
-8.856
5.186
18.16
29.377
38.098
43.94
46.9
47.304
45.645
42.347
37.783
32.434
26.868
21.553
16.812
12.865
9.824
7.767
6.765
6.832
7.906
9.922
12.801
16.446
20.772
25.671
31.015
36.688
42.577
48.552
54.5
60.303
65.84
71.037
75.849
80.249
84.235
87.821
91.023
93.879
96.436
98.738
100.826
102.738
104.504
106.163
107.754
109.317
110.897
112.522
114.208
115.967
117.802
119.713
121.695
123.738
125.824
127.94
130.077
132.225
134.379
136.531
138.669
140.781
142.858
144.886
146.859
148.765
150.596
152.343
154
155.559
157.018
158.37
159.61
160.731
161.727
162.594
163.327
163.922
164.377
164.688
164.857
164.882
164.766
164.51
164.118
163.592
162.938
162.158
161.258
160.243
159.119
157.893
156.569
155.155
153.658
152.086
150.445
148.743
146.988
145.188
143.35
141.482
139.591
137.685
135.77
133.854
131.943
130.042
128.158
126.295
124.459
122.655
120.885
119.155
117.466
115.823
114.227
112.681
111.187
109.748
108.366
107.042
105.779
104.578
103.44
102.368
101.361
100.42
99.547
98.74
97.999
97.324
96.715
96.17
95.688
95.27
94.912
94.614
94.374
94.191
94.064
93.989
93.965
93.99
94.06
94.173
94.326
94.514
94.735
94.983
95.256
95.546
95.851
96.164
96.479
96.792
97.096
97.388
97.661
97.913
98.139
98.338
98.508
98.646
98.752
98.824
98.861
98.862
98.824
98.746
98.625
98.461
98.252
98.001
97.71
97.382
97.021
96.634
96.225
95.805
95.379
94.952
94.531
94.122
93.737
93.389
93.09
92.845
92.657
92.527
92.451
92.425
92.438
92.465
92.486
92.481
92.432
92.337
92.196
92.005
91.761
91.459
91.103
90.715
90.324
89.951
89.626
89.376
89.235
89.271
89.536
90.067
90.892
92.005
93.388
95.023
96.885
98.933
101.113
103.335
105.498
107.515
109.304
110.783
111.866
112.429
112.372
111.628
110.154
107.953
105.05
101.465
97.241
92.445
87.175
81.563
75.756
69.88
64.043
58.348
52.922
47.914
43.435
39.548
36.26
33.504
31.271
29.572
28.288
27.283
26.362
25.267
23.914
22.31
20.265
17.534
14.112
10.004
5.501
1.198
-2.752
-6.295
-9.011
-10.429
-10.357
-8.728
-6.162
-3.889
-2.422
-2.167
-3.998
-8.677
-16.67
-27.157
-37.377
-44.209
-45.744
-42.672
-37.003
-28.084
-12.254
17.638
70.175
148.578
249.98
366.651
484.955
591.145
675.863
732.013
759.01
761.501
742.187
704.177
648.12
571.209
473.942
358.857
230.557
96.579
-36.546
-163.41
-278.997
-379.496
-461.951
-524.13
-565.258
-586.025
-587.881
-573.03
-544.352
-504.967
-458.033
-406.798
-354.171
-302.353
-253.302
-208.606
-169.244
-135.906
-108.957
-88.042
-72.448
-61.492
-54.205
-49.497
-46.445
-44.015
-41.221
-37.716
-33.52
-28.729
-23.729
-18.983
-14.863
-11.914
-10.679
-11.243
-13.428
-16.947
-21.304
-26.04
-30.759
-34.958
-38.185
-40.219
-40.974
-40.486
-38.893
-36.303
-32.821
-28.605
-23.817
-18.611
-13.123
-7.456
-1.715
3.979
9.5
14.718
19.542
23.926
27.846
31.3
34.306
36.882
39.066
40.912
42.468
43.782
44.898
45.853
46.688
47.453
48.194
48.962
49.791
50.702
51.707
52.813
54.016
55.314
56.697
58.146
59.648
61.192
62.765
64.361
65.968
67.571
69.154
70.704
72.204
73.641
75.001
76.272
77.442
78.497
79.428
80.227
80.883
81.386
81.725
81.89
81.872
81.664
81.258
80.647
79.827
78.795
77.55
76.09
74.418
72.536
70.446
68.154
65.665
62.988
60.13
57.101
53.912
50.574
47.1
43.503
39.797
35.996
32.116
28.172
24.179
20.152
16.108
12.059
8.023
4.013
0.042
-3.875
-7.726
-11.5
-15.184
-18.769
-22.244
-25.602
-28.834
-31.934
-34.895
-37.712
-40.381
-42.899
-45.264
-47.473
-49.527
-51.425
-53.17
-54.762
-56.206
-57.504
-58.662
-59.684
-60.576
-61.345
-61.998
-62.541
-62.983
-63.33
-63.591
-63.773
-63.885
-63.934
-63.929
-63.877
-63.786
-63.664
-63.518
-63.356
-63.185
-63.012
-62.844
-62.688
-62.55
-62.437
-62.354
-62.307
-62.301
-62.341
-62.431
-62.576
-62.777
-63.038
-63.36
-63.745
-64.192
-64.702
-65.274
-65.907
-66.6
-67.35
-68.155
-69.012
-69.919
-70.871
-71.866
-72.898
-73.964
-75.058
-76.176
-77.311
-78.458
-79.611
-80.763
-81.909
-83.042
-84.154
-85.237
-86.286
-87.291
-88.245
-89.141
-89.971
-90.729
-91.409
-92.005
-92.512
-92.927
-93.245
-93.463
-93.58
-93.592
-93.499
-93.299
-92.994
-92.585
-92.073
-91.462
-90.758
-89.966
-89.095
-88.153
-87.149
-86.092
-84.995
-83.87
-82.733
-81.598
-80.479
-79.392
-78.352
-77.375
-76.478
-75.675
-74.978
-74.396
-73.938
-73.616
-73.441
-73.422
-73.557
-73.843
-74.277
-74.856
-75.585
-76.467
-77.497
-78.671
-79.982
-81.425
-82.999
-84.696
-86.491
-88.353
-90.241
-92.123
-93.987
-95.824
-97.638
-99.411
-101.105
-102.673
-104.073
-105.263
-106.227
-106.929
-107.307
-107.39
-107.291
-107.21
-107.461
-108.311
-109.906
-112.355
-115.701
-119.8
-124.411
-129.094
-133.136
-135.874
-136.728
-135.338
-131.702
-126.153
-119.228
-111.719
-104.696
-99.363
-97.207
-99.377
-106.324
-117.945
-133.695
-152.641
-173.503
-194.586
-212.27
-222.906
-224.689
-215.407
-195.402
-165.533
-122.092
-63.549
11.031
102.536
204.031
308.471
409.849
500.078
575.636
633.818
670.858
684.91
673.989
636.79
573.885
487.548
381.675
261.079
131.534
-1.032
-131.295
-253.665
-362.876
-455.085
-527.417
-578.349
-608.318
-618.528
-610.683
-587.773
-553.284
-510.752
-464.066
-416.51
-370.293
-327.499
-289.769
-257.884
-232.292
-212.72
-198.023
-187.112
-179.106
-172.807
-167.166
-161.283
-154.142
-145.44
-135.525
-124.79
-113.744
-103.029
-93.147
-84.713
-78.474
-74.669
-73.171
-73.739
-75.939
-79.362
-83.661
-88.353
-92.899
-96.948
-100.279
-102.766
-104.38
-105.083
-104.847
-103.719
-101.789
-99.151
-95.895
-92.095
-87.821
-83.155
-78.194
-73.042
-67.791
-62.527
-57.334
-52.293
-47.488
-42.985
-38.816
-34.988
-31.494
-28.315
-25.432
-22.817
-20.433
-18.243
-16.217
-14.323
-12.54
-10.843
-9.205
-7.595
-5.981
-4.337
-2.653
-0.923
0.853
2.671
4.527
6.411
8.305
10.194
12.068
13.918
15.736
17.515
19.243
20.909
22.5
24.005
25.416
26.723
27.918
28.992
29.939
30.755
31.438
31.984
32.389
32.65
32.765
32.731
32.547
32.213
31.728
31.093
30.312
29.386
28.322
27.124
25.799
24.353
22.794
21.131
19.374
17.531
15.612
13.629
11.592
9.512
7.401
5.271
3.133
1
-1.119
-3.211
-5.265
-7.272
-9.223
-11.108
-12.919
-14.648
-16.289
-17.836
-19.282
-20.625
-21.858
-22.98
-23.988
-24.881
-25.658
-26.32
-26.868
-27.304
-27.63
-27.85
-27.968
-27.987
-27.914
-27.753
-27.511
-27.193
-26.808
-26.361
-25.861
-25.314
-24.729
-24.114
-23.475
-22.82
-22.157
-21.491
-20.831
-20.181
-19.548
-18.939
-18.357
-17.808
-17.297
-16.826
-16.4
-16.021
-15.69
-15.41
-15.181
-15.003
-14.875
-14.798
-14.77
-14.788
-14.851
-14.955
-15.097
-15.274
-15.481
-15.712
-15.964
-16.23
-16.503
-16.779
-17.05
-17.31
-17.552
-17.77
-17.957
-18.107
-18.213
-18.268
-18.266
-18.2
-18.064
-17.852
-17.559
-17.179
-16.71
-16.146
-15.484
-14.722
-13.858
-12.891
-11.818
-10.641
-9.358
-7.971
-6.481
-4.892
-3.207
-1.43
0.431
2.369
4.375
6.437
8.544
10.684
12.847
15.018
17.182
19.324
21.427
23.478
25.462
27.361
29.16
30.84
32.385
33.783
35.024
36.097
36.989
37.69
38.192
38.49
38.583
38.469
38.141
37.593
36.822
35.828
34.616
33.199
31.587
29.797
27.854
25.788
23.632
21.426
19.208
17.007
14.852
12.764
10.762
8.881
7.166
5.664
4.425
3.46
2.739
2.238
1.947
1.796
1.673
1.353
0.485
-1.129
-3.518
-6.667
-10.559
-15.177
-20.471
-26.062
-31.149
-35.1
-37.625
-38.68
-38.384
-36.724
-33.653
-29.598
-25.735
-23.392
-23.507
-26.538
-32.485
-41.314
-52.962
-66.836
-81.219
-93.47
-100.906
-100.953
-91.369
-70.289
-35.824
13.495
77.675
155.171
243.5
339.036
437.57
534.838
625.7
704.573
766.469
807.211
823.733
814.474
779.78
720.72
638.658
537.28
419.477
288.85
153.894
21.654
-99.886
-202.212
-284.576
-348.105
-394.392
-426.288
-443.268
-443.104
-425.891
-396.447
-360.244
-323.811
-293.059
-266.024
-240.68
-216.023
-189.434
-163.344
-140.302
-120.509
-104.866
-92.615
-82.598
-74.376
-67.371
-61.036
-54.683
-47.95
-40.81
-33.193
-25.274
-17.405
-9.848
-3.147
1.993
5.341
6.915
6.814
5.353
2.815
-0.561
-4.348
-8.061
-11.389
-14.134
-16.187
-17.534
-18.137
-17.968
-17.071
-15.534
-13.444
-10.881
-7.904
-4.564
-0.922
2.941
6.939
10.995
15.04
19.003
22.815
26.397
29.689
32.661
35.307
37.636
39.662
41.402
42.88
44.13
45.185
46.074
46.825
47.459
48.001
48.481
48.931
49.386
49.875
50.411
51.004
51.657
52.37
53.141
53.961
54.816
55.695
56.587
57.485
58.385
59.278
60.153
60.999
61.803
62.554
63.24
63.853
64.381
64.815
65.148
65.373
65.487
65.483
65.357
65.104
64.717
64.192
63.526
62.715
61.758
60.652
59.398
57.997
56.453
54.768
52.948
50.996
48.92
46.725
44.418
42.008
39.503
36.911
34.243
31.508
28.718
25.883
23.014
20.123
17.222
14.321
11.432
8.565
5.731
2.94
0.201
-2.476
-5.082
-7.609
-10.049
-12.393
-14.637
-16.772
-18.796
-20.703
-22.489
-24.151
-25.687
-27.095
-28.373
-29.521
-30.538
-31.424
-32.18
-32.808
-33.311
-33.69
-33.949
-34.093
-34.127
-34.056
-33.884
-33.619
-33.267
-32.834
-32.328
-31.755
-31.124
-30.442
-29.717
-28.956
-28.168
-27.36
-26.539
-25.714
-24.89
-24.075
-23.275
-22.496
-21.745
-21.027
-20.348
-19.713
-19.128
-18.595
-18.12
-17.704
-17.352
-17.065
-16.844
-16.689
-16.601
-16.578
-16.619
-16.72
-16.879
-17.091
-17.351
-17.653
-17.991
-18.359
-18.748
-19.152
-19.562
-19.971
-20.371
-20.754
-21.111
-21.435
-21.717
-21.949
-22.125
-22.237
-22.277
-22.24
-22.118
-21.907
-21.601
-21.197
-20.69
-20.077
-19.357
-18.528
-17.592
-16.551
-15.406
-14.165
-12.835
-11.427
-9.951
-8.419
-6.846
-5.244
-3.629
-2.016
-0.423
1.137
2.647
4.093
5.458
6.723
7.87
8.886
9.759
10.478
11.034
11.414
11.612
11.622
11.438
11.058
10.471
9.669
8.645
7.398
5.929
4.251
2.38
0.337
-1.848
-4.143
-6.512
-8.917
-11.32
-13.681
-15.96
-18.117
-20.119
-21.934
-23.526
-24.848
-25.854
-26.532
-26.906
-27.046
-27.022
-26.844
-26.577
-26.392
-26.565
-27.404
-29.089
-31.577
-34.81
-38.936
-44.004
-49.802
-55.731
-60.842
-64.461
-66.475
-66.937
-65.614
-62.354
-57.358
-51.574
-46.777
-44.421
-45.106
-48.961
-56.121
-66.559
-79.724
-93.857
-105.874
-112.661
-111.356
-99.392
-74.608
-34.821
20.546
89.521
170.325
260.907
359.554
466.286
575.236
675.678
757.043
807.342
822.676
807.735
766.995
706.598
629.63
535.07
424.85
302.907
174.961
48.402
-70.622
-177.211
-267.635
-339.729
-392.295
-425.62
-441.124
-440.242
-425.305
-399.509
-366.052
-328.196
-288.895
-250.09
-213.372
-180.722
-153.501
-132.028
-116.058
-104.73
-96.92
-91.831
-88.546
-85.484
-81.142
-74.766
-66.16
-55.679
-43.994
-31.647
-19.226
-7.714
1.853
8.897
13.239
15.061
14.788
12.789
9.426
5.21
0.706
-3.659
-7.603
-10.978
-13.731
-15.778
-17.041
-17.502
-17.188
-16.155
-14.46
-12.155
-9.293
-5.948
-2.215
1.812
6.048
10.411
14.823
19.203
23.467
27.522
31.31
34.79
37.939
40.761
43.264
45.463
47.39
49.082
50.574
51.902
53.094
54.171
55.159
56.086
56.982
57.886
58.821
59.804
60.846
61.948
63.112
64.335
65.607
66.912
68.237
69.572
70.908
72.238
73.556
74.85
76.111
77.324
78.48
79.569
80.582
81.508
82.34
83.069
83.69
84.201
84.596
84.871
85.022
85.045
84.935
84.692
84.312
83.796
83.143
82.353
81.431
80.38
79.204
77.908
76.5
74.985
73.372
71.668
69.882
68.022
66.097
64.118
62.093
60.033
57.947
55.845
53.738
51.634
49.544
47.476
45.439
43.442
41.491
39.594
37.757
35.986
34.286
32.662
31.117
29.656
28.281
26.993
25.794
24.685
23.664
22.731
21.885
21.124
20.445
19.845
19.322
18.871
18.489
18.172
17.915
17.713
17.561
17.454
17.387
17.355
17.352
17.374
17.414
17.469
17.533
17.601
17.669
17.732
17.787
17.828
17.853
17.858
17.84
17.795
17.721
17.617
17.479
17.306
17.097
16.85
16.565
16.242
15.879
15.479
15.042
14.569
14.061
13.522
12.952
12.356
11.735
11.092
10.432
9.759
9.075
8.386
7.697
7.011
6.335
5.673
5.031
4.415
3.829
3.28
2.772
2.311
1.902
1.552
1.264
1.045
0.899
0.831
0.845
0.945
1.134
1.415
1.789
2.259
2.826
3.488
4.246
5.097
6.041
7.073
8.189
9.384
10.651
11.983
13.373
14.813
16.291
17.794
19.307
20.815
22.301
23.75
25.144
26.467
27.703
28.84
29.865
30.767
31.532
32.143
32.584
32.838
32.892
32.74
32.376
31.801
31.015
30.024
28.832
27.44
25.846
24.039
22.011
19.756
17.27
14.566
11.666
8.608
5.434
2.174
-1.155
-4.544
-7.977
-11.415
-14.801
-18.08
-21.201
-24.129
-26.8
-29.106
-30.99
-32.522
-33.896
-35.355
-37.029
-38.838
-40.654
-42.513
-44.43
-46.283
-47.727
-48.295
-47.895
-47.034
-46.417
-46.435
-47.244
-48.87
-51.544
-55.714
-61.277
-67.292
-72.558
-76.356
-78.579
-79.633
-79.973
-79.891
-80.072
-81.821
-85.57
-90.131
-93.875
-95.307
-95.429
-96.879
-99.085
-96.563
-78.448
-33.785
41.466
142.53
256.619
370.333
474.788
565.495
641.932
702.901
744.732
763.346
755.075
718.282
653.921
564.989
456.145
332.667
200.529
66.114
-64.75
-186.295
-293.073
-381.988
-452.316
-502.921
-533.52
-543.873
-531.762
-500.525
-458.072
-411.8
-370.858
-338.371
-310.022
-282.503
-252.498
-219.713
-188.615
-162.134
-141.623
-127.039
-116.56
-109.017
-103.571
-99.508
-96.321
-93.144
-89.516
-85.421
-80.778
-75.725
-70.644
-65.857
-61.921
-59.513
-58.817
-59.72
-62.028
-65.393
-69.452
-73.87
-78.17
-81.815
-84.502
-86.112
-86.626
-86.143
-84.731
-82.437
-79.371
-75.678
-71.493
-66.934
-62.099
-57.044
-51.86
-46.668
-41.593
-36.764
-32.266
-28.142
-24.414
-21.091
-18.175
-15.651
-13.492
-11.652
-10.088
-8.766
-7.652
-6.724
-5.947
-5.278
-4.674
-4.084
-3.476
-2.828
-2.128
-1.363
-0.529
0.375
1.345
2.368
3.434
4.54
5.681
6.857
8.061
9.287
10.526
11.768
13.005
14.229
15.432
16.605
17.739
18.828
19.864
20.843
21.757
22.599
23.362
24.037
24.617
25.095
25.464
25.719
25.854
25.865
25.75
25.505
25.131
24.627
23.992
23.228
22.337
21.322
20.185
18.931
17.565
16.092
14.519
12.852
11.098
9.266
7.365
5.404
3.391
1.336
-0.75
-2.858
-4.977
-7.098
-9.212
-11.308
-13.379
-15.415
-17.408
-19.352
-21.237
-23.06
-24.813
-26.491
-28.09
-29.606
-31.035
-32.376
-33.624
-34.78
-35.842
-36.809
-37.683
-38.462
-39.149
-39.745
-40.252
-40.673
-41.012
-41.271
-41.455
-41.569
-41.619
-41.61
-41.549
-41.44
-41.291
-41.107
-40.895
-40.661
-40.409
-40.145
-39.876
-39.605
-39.339
-39.083
-38.84
-38.615
-38.414
-38.238
-38.093
-37.98
-37.902
-37.862
-37.861
-37.902
-37.985
-38.113
-38.285
-38.502
-38.763
-39.067
-39.412
-39.795
-40.213
-40.662
-41.138
-41.635
-42.147
-42.669
-43.196
-43.723
-44.246
-44.76
-45.26
-45.741
-46.199
-46.63
-47.027
-47.382
-47.687
-47.934
-48.117
-48.228
-48.264
-48.217
-48.082
-47.855
-47.536
-47.121
-46.606
-45.985
-45.243
-44.376
-43.387
-42.286
-41.086
-39.801
-38.439
-37.019
-35.562
-34.083
-32.59
-31.081
-29.535
-27.948
-26.323
-24.677
-23.039
-21.424
-19.831
-18.259
-16.699
-15.141
-13.581
-12
-10.356
-8.642
-6.867
-5.074
-3.344
-1.729
-0.263
1.033
2.159
3.102
3.83
4.317
4.536
4.453
4.037
3.236
1.966
0.196
-2.067
-4.772
-7.804
-11.071
-14.509
-18.051
-21.65
-25.252
-28.782
-32.181
-35.393
-38.343
-40.962
-43.16
-44.824
-45.908
-46.414
-46.398
-45.986
-45.281
-44.375
-43.398
-42.47
-41.713
-41.264
-41.205
-41.658
-42.852
-44.939
-47.999
-52.015
-56.723
-61.826
-67.067
-71.964
-75.892
-78.388
-79.159
-78.302
-76.439
-74.254
-72.461
-72.011
-74.046
-78.553
-84.028
-88.773
-90.502
-90.014
-91.501
-95.465
-99.052
-93.068
-62.269
0.951
95.603
212.513
334.027
447.423
546.607
629.032
696.28
747.193
777.795
784.093
763.271
716.257
644.666
550.733
437.153
305.064
160.81
15.128
-121.858
-238.749
-330.722
-400.901
-452.427
-489.953
-515.646
-527.148
-523.899
-506.683
-477.887
-441.969
-402.29
-361.129
-319.899
-279.357
-240.825
-205.513
-174.18
-147.508
-125.508
-107.739
-94.07
-84.068
-76.683
-70.987
-65.923
-60.324
-53.783
-46.312
-37.88
-28.79
-19.605
-10.816
-3.108
2.774
6.61
8.46
8.478
7.008
4.418
1.07
-2.566
-6.002
-8.938
-11.217
-12.747
-13.503
-13.466
-12.633
-11.063
-8.863
-6.121
-2.903
0.727
4.724
9.02
13.522
18.149
22.836
27.512
32.115
36.578
40.809
44.754
48.393
51.717
54.739
57.478
59.944
62.165
64.176
66.01
67.698
69.266
70.73
72.111
73.437
74.738
76.05
77.396
78.787
80.229
81.722
83.263
84.849
86.468
88.101
89.735
91.358
92.963
94.542
96.089
97.59
99.035
100.41
101.704
102.908
104.013
105.007
105.884
106.635
107.257
107.745
108.096
108.305
108.367
108.278
108.034
107.632
107.07
106.346
105.459
104.409
103.199
101.831
100.309
98.637
96.82
94.865
92.777
90.564
88.232
85.79
83.245
80.606
77.882
75.083
72.217
69.296
66.328
63.325
60.296
57.252
54.202
51.156
48.124
45.116
42.142
39.21
36.33
33.51
30.76
28.086
25.497
22.999
20.6
18.304
16.117
14.044
12.088
10.252
8.541
6.955
5.498
4.17
2.971
1.903
0.964
0.153
-0.53
-1.09
-1.528
-1.847
-2.052
-2.148
-2.139
-2.03
-1.828
-1.54
-1.172
-0.732
-0.227
0.333
0.942
1.589
2.268
2.968
3.682
4.401
5.116
5.819
6.503
7.16
7.783
8.365
8.9
9.383
9.808
10.171
10.468
10.695
10.85
10.93
10.934
10.862
10.714
10.49
10.192
9.823
9.386
8.885
8.326
7.714
7.055
6.355
5.622
4.863
4.087
3.301
2.514
1.735
0.973
0.236
-0.469
-1.131
-1.746
-2.305
-2.802
-3.232
-3.589
-3.87
-4.069
-4.185
-4.214
-4.155
-4.008
-3.774
-3.454
-3.052
-2.573
-2.025
-1.416
-0.755
-0.054
0.678
1.427
2.178
2.917
3.631
4.309
4.936
5.5
5.984
6.374
6.658
6.826
6.869
6.778
6.543
6.155
5.613
4.919
4.076
3.084
1.933
0.617
-0.868
-2.52
-4.332
-6.295
-8.404
-10.643
-12.985
-15.395
-17.831
-20.254
-22.626
-24.922
-27.118
-29.182
-31.076
-32.746
-34.125
-35.174
-35.87
-36.202
-36.203
-35.89
-35.239
-34.355
-33.45
-32.722
-32.43
-32.695
-33.387
-34.57
-36.527
-39.275
-42.653
-46.346
-49.644
-52.22
-54.348
-55.92
-56.492
-55.939
-54.246
-51.884
-50.242
-50.224
-51.83
-55.371
-61.475
-70.329
-81.894
-95.447
-107.798
-115.806
-118.397
-113.323
-100.035
-78.559
-44.19
5.555
72.303
157.693
255.584
359.21
461.931
555.118
634.967
698.105
740.07
758.475
750.308
714.365
653.073
568.58
463.658
341.194
202.67
54.789
-91.924
-227.01
-338.499
-422.209
-482.12
-522.03
-548.107
-563.112
-563.931
-550.296
-523.5
-485.933
-442.815
-398.088
-353.429
-310.307
-270.223
-234.173
-203.05
-177.5
-157.055
-140.859
-128.594
-119.711
-113.104
-107.882
-103.011
-97.4
-90.878
-83.703
-75.95
-67.929
-60.148
-53.009
-47.15
-43.276
-41.532
-41.764
-43.734
-47.031
-51.258
-56.057
-60.932
-65.359
-69.003
-71.666
-73.274
-73.874
-73.5
-72.197
-70.057
-67.195
-63.732
-59.776
-55.423
-50.749
-45.836
-40.782
-35.693
-30.674
-25.825
-21.243
-16.986
-13.089
-9.573
-6.426
-3.632
-1.169
1.003
2.927
4.645
6.194
7.608
8.913
10.147
11.346
12.549
13.796
15.116
16.522
18.026
19.631
21.335
23.134
25.017
26.968
28.974
31.025
33.109
35.222
37.353
39.49
41.62
43.728
45.8
47.826
49.793
51.687
53.497
55.212
56.822
58.319
59.694
60.937
62.038
62.986
63.774
64.393
64.837
65.098
65.173
65.056
64.746
64.243
63.546
62.657
61.577
60.309
58.858
57.228
55.426
53.457
51.33
49.052
46.633
44.082
41.41
38.628
35.748
32.781
29.74
26.638
23.488
20.302
17.094
13.876
10.663
7.466
4.299
1.172
-1.902
-4.912
-7.849
-10.702
-13.463
-16.124
-18.676
-21.113
-23.428
-25.615
-27.67
-29.588
-31.365
-32.998
-34.484
-35.822
-37.012
-38.052
-38.942
-39.684
-40.279
-40.728
-41.036
-41.205
-41.24
-41.145
-40.927
-40.592
-40.145
-39.595
-38.949
-38.214
-37.398
-36.508
-35.553
-34.539
-33.475
-32.368
-31.228
-30.06
-28.875
-27.679
-26.48
-25.286
-24.103
-22.94
-21.8
-20.692
-19.621
-18.592
-17.611
-16.682
-15.811
-15.001
-14.255
-13.576
-12.966
-12.425
-11.952
-11.546
-11.207
-10.93
-10.711
-10.548
-10.435
-10.37
-10.348
-10.365
-10.417
-10.498
-10.604
-10.729
-10.867
-11.008
-11.141
-11.259
-11.351
-11.411
-11.43
-11.403
-11.319
-11.173
-10.964
-10.683
-10.327
-9.884
-9.338
-8.683
-7.918
-7.05
-6.092
-5.054
-3.944
-2.777
-1.574
-0.349
0.888
2.141
3.43
4.759
6.123
7.507
8.879
10.226
11.551
12.858
14.156
15.456
16.759
18.085
19.475
20.94
22.467
24.017
25.51
26.895
28.147
29.249
30.201
30.987
31.563
31.894
31.955
31.714
31.144
30.198
28.804
26.941
24.641
21.973
19.057
15.983
12.806
9.579
6.357
3.206
0.214
-2.543
-5.018
-7.152
-8.889
-10.176
-10.952
-11.227
-11.08
-10.607
-9.947
-9.233
-8.568
-8.071
-7.874
-8.08
-8.847
-10.393
-12.851
-16.274
-20.618
-25.62
-30.956
-36.301
-41.106
-44.677
-46.508
-46.351
-44.318
-41.07
-37.517
-34.57
-33.405
-35.442
-40.735
-47.872
-55.391
-60.713
-63.582
-66.972
-70.272
-71.115
-62.685
-31.574
29.977
124.93
249.701
389.055
527.593
649.904
742.975
803.858
833.774
837.686
821.408
785.926
729.629
649.95
546.869
424.38
289.432
150.486
14.314
-113.45
-227.579
-324.259
-400.683
-455.109
-488.085
-501.461
-496.971
-477.443
-446.522
-407.608
-364.318
-320.005
-276.553
-235.306
-198.013
-165.568
-138.26
-116.378
-99.261
-85.849
-75.765
-68.465
-62.864
-58.22
-53.733
-48.464
-42.354
-35.734
-28.687
-21.527
-14.747
-8.68
-3.891
-1.028
-0.184
-1.181
-3.775
-7.556
-12.147
-17.222
-22.312
-26.912
-30.703
-33.494
-35.223
-35.939
-35.677
-34.481
-32.438
-29.672
-26.31
-22.47
-18.257
-13.751
-9.034
-4.202
0.638
5.386
9.945
14.223
18.167
21.744
24.932
27.739
30.182
32.28
34.072
35.601
36.906
38.023
38.985
39.816
40.55
41.221
41.865
42.52
43.21
43.95
44.752
45.62
46.553
47.551
48.606
49.704
50.836
51.994
53.172
54.366
55.572
56.78
57.981
59.165
60.323
61.447
62.528
63.557
64.526
65.427
66.253
67
67.66
68.228
68.696
69.058
69.307
69.44
69.451
69.337
69.094
68.721
68.217
67.583
66.821
65.933
64.922
63.791
62.544
61.188
59.728
58.169
56.518
54.783
52.971
51.091
49.151
47.161
45.13
43.068
40.986
38.894
36.801
34.719
32.657
30.624
28.629
26.683
24.792
22.965
21.209
19.531
17.937
16.432
15.019
13.704
12.488
11.373
10.361
9.453
8.649
7.949
7.353
6.859
6.466
6.172
5.974
5.869
5.854
5.923
6.073
6.299
6.594
6.954
7.372
7.842
8.358
8.914
9.503
10.119
10.755
11.405
12.064
12.724
13.381
14.029
14.663
15.279
15.872
16.439
16.977
17.481
17.949
18.378
18.766
19.111
19.411
19.664
19.869
20.026
20.135
20.196
20.21
20.178
20.102
19.983
19.823
19.625
19.391
19.125
18.829
18.507
18.163
17.8
17.422
17.034
16.641
16.246
15.854
15.47
15.097
14.739
14.402
14.09
13.806
13.555
13.341
13.169
13.044
12.968
12.946
12.981
13.077
13.237
13.461
13.754
14.117
14.55
15.055
15.632
16.282
17.004
17.797
18.658
19.586
20.576
21.624
22.726
23.874
25.06
26.277
27.513
28.76
30.005
31.237
32.445
33.618
34.745
35.816
36.821
37.749
38.586
39.322
39.945
40.442
40.805
41.023
41.089
40.999
40.752
40.348
39.784
39.052
38.143
37.051
35.77
34.297
32.635
30.792
28.789
26.656
24.429
22.147
19.844
17.551
15.299
13.12
11.05
9.139
7.436
5.985
4.833
4.015
3.548
3.42
3.583
3.955
4.452
4.996
5.491
5.845
5.956
5.713
5.018
3.77
1.803
-1.099
-5.065
-10.127
-16.143
-22.756
-29.558
-36.095
-41.751
-45.819
-47.833
-47.592
-45.305
-41.866
-38.368
-35.887
-35.85
-38.626
-43.009
-48.037
-52.05
-55.756
-62.846
-72.782
-82.064
-80.884
-53.929
5.175
96.448
212.391
337.289
462.729
581.536
685.659
771.667
831.275
859.605
858.76
829.891
777.369
703.96
608.987
495.021
366.32
229.117
91.836
-38.47
-156.046
-256.183
-336.048
-394.076
-430.315
-446.339
-444.346
-427.439
-399.447
-364.243
-325.614
-286.805
-249.773
-215.955
-186.761
-162.874
-144.367
-130.739
-120.791
-113.321
-107.706
-103.243
-98.901
-93.799
-87.139
-78.681
-68.916
-58.43
-47.647
-37.051
-27.21
-18.737
-12.352
-8.376
-6.65
-6.893
-8.744
-11.818
-15.801
-20.299
-24.808
-28.976
-32.601
-35.533
-37.721
-39.132
-39.708
-39.457
-38.447
-36.738
-34.405
-31.532
-28.184
-24.451
-20.428
-16.2
-11.856
-7.493
-3.196
0.941
4.822
8.387
11.592
14.409
16.839
18.885
20.563
21.903
22.94
23.709
24.244
24.573
24.719
24.714
24.59
24.384
24.136
23.874
23.618
23.384
23.18
23.01
22.878
22.776
22.697
22.631
22.575
22.525
22.479
22.435
22.385
22.322
22.24
22.129
21.985
21.799
21.564
21.275
20.924
20.508
20.023
19.464
18.827
18.105
17.293
16.384
15.376
14.262
13.039
11.703
10.252
8.686
7.004
5.208
3.3
1.28
-0.846
-3.076
-5.404
-7.825
-10.334
-12.925
-15.59
-18.322
-21.115
-23.958
-26.845
-29.766
-32.713
-35.677
-38.648
-41.618
-44.577
-47.517
-50.43
-53.306
-56.138
-58.919
-61.64
-64.294
-66.876
-69.379
-71.797
-74.127
-76.363
-78.504
-80.546
-82.488
-84.329
-86.067
-87.704
-89.241
-90.678
-92.017
-93.261
-94.411
-95.473
-96.448
-97.34
-98.155
-98.896
-99.568
-100.177
-100.728
-101.226
-101.677
-102.086
-102.459
-102.803
-103.123
-103.425
-103.714
-103.997
-104.28
-104.569
-104.87
-105.187
-105.525
-105.891
-106.287
-106.719
-107.189
-107.699
-108.253
-108.852
-109.498
-110.193
-110.938
-111.734
-112.581
-113.48
-114.43
-115.432
-116.484
-117.584
-118.731
-119.923
-121.159
-122.435
-123.75
-125.101
-126.483
-127.895
-129.333
-130.791
-132.265
-133.75
-135.24
-136.729
-138.21
-139.678
-141.124
-142.545
-143.935
-145.29
-146.604
-147.874
-149.094
-150.262
-151.372
-152.418
-153.395
-154.293
-155.108
-155.834
-156.468
-157.007
-157.446
-157.782
-158.013
-158.143
-158.17
-158.092
-157.902
-157.591
-157.159
-156.615
-155.974
-155.247
-154.444
-153.577
-152.664
-151.728
-150.789
-149.851
-148.909
-147.952
-146.985
-146.021
-145.086
-144.203
-143.38
-142.612
-141.893
-141.223
-140.608
-140.045
-139.511
-138.978
-138.437
-137.914
-137.463
-137.134
-136.953
-136.931
-137.067
-137.374
-137.88
-138.617
-139.611
-140.872
-142.406
-144.231
-146.382
-148.889
-151.744
-154.891
-158.233
-161.687
-165.193
-168.698
-172.152
-175.477
-178.587
-181.412
-183.894
-185.996
-187.703
-188.995
-189.858
-190.306
-190.374
-190.149
-189.776
-189.397
-189.151
-189.171
-189.569
-190.516
-192.264
-194.979
-198.704
-203.296
-208.397
-213.648
-218.742
-223.243
-226.594
-228.368
-228.388
-227.042
-225.257
-223.852
-223.685
-225.722
-230.592
-238.729
-249.233
-259.172
-266.323
-269.099
-266.853
-261.007
-248.556
-223.129
-179.161
-110.634
-19.416
85.24
194.501
298.367
390.882
471.196
536.842
585.235
613.506
617.729
596.197
549.075
477.662
384.889
275.369
155.205
30.58
-93.385
-214.692
-332.92
-445.876
-548.998
-631.859
-683.424
-698.626
-677.606
-632.072
-578.954
-530.053
-494.037
-469.386
-447.582
-424.166
-396.214
-365.501
-337.996
-316.138
-300.585
-290.559
-283.517
-278.027
-273.11
-267.7
-261.196
-253.333
-244.268
-234.434
-224.18
-213.918
-204.179
-195.606
-189
-184.749
-182.744
-182.738
-184.345
-187.164
-190.884
-195.079
-199.174
-202.774
-205.634
-207.579
-208.602
-208.703
-207.839
-206.052
-203.424
-200.028
-195.967
-191.339
-186.211
-180.682
-174.849
-168.799
-162.657
-156.534
-150.537
-144.779
-139.331
-134.235
-129.527
-125.219
-121.304
-117.774
-114.6
-111.741
-109.165
-106.84
-104.735
-102.828
-101.082
-99.46
-97.924
-96.435
-94.962
-93.491
-92.006
-90.498
-88.966
-87.408
-85.831
-84.247
-82.664
-81.084
-79.513
-77.95
-76.4
-74.868
-73.359
-71.88
-70.436
-69.032
-67.672
-66.362
-65.106
-63.907
-62.769
-61.692
-60.679
-59.734
-58.861
-58.065
-57.349
-56.717
-56.172
-55.717
-55.354
-55.085
-54.91
-54.828
-54.838
-54.939
-55.129
-55.406
-55.766
-56.207
-56.724
-57.314
-57.972
-58.693
-59.473
-60.306
-61.186
-62.108
-63.064
-64.048
-65.054
-66.074
-67.101
-68.127
-69.147
-70.151
-71.133
-72.086
-73.004
-73.878
-74.704
-75.474
-76.183
-76.825
-77.396
-77.889
-78.302
-78.63
-78.87
-79.017
-79.07
-79.025
-78.881
-78.634
-78.284
-77.83
-77.269
-76.602
-75.829
-74.95
-73.966
-72.878
-71.688
-70.399
-69.012
-67.532
-65.961
-64.303
-62.563
-60.745
-58.854
-56.894
-54.87
-52.789
-50.656
-48.477
-46.257
-44.003
-41.721
-39.416
-37.096
-34.767
-32.434
-30.104
-27.784
-25.478
-23.194
-20.937
-18.712
-16.525
-14.379
-12.279
-10.23
-8.234
-6.294
-4.412
-2.59
-0.829
0.869
2.505
4.079
5.592
7.045
8.44
9.779
11.065
12.303
13.495
14.647
15.762
16.846
17.906
18.947
19.975
20.998
22.024
23.06
24.115
25.198
26.316
27.48
28.696
29.974
31.322
32.748
34.26
35.866
37.572
39.385
41.313
43.361
45.536
47.841
50.28
52.858
55.577
58.44
61.447
64.598
67.894
71.333
74.914
78.632
82.485
86.467
90.57
94.788
99.11
103.524
108.018
112.577
117.185
121.827
126.485
131.142
135.781
140.386
144.941
149.429
153.835
158.141
162.329
166.381
170.282
174.014
177.564
180.917
184.063
186.997
189.714
192.211
194.48
196.51
198.292
199.821
201.093
202.11
202.881
203.424
203.768
203.961
204.05
204.087
204.12
204.189
204.337
204.613
205.071
205.773
206.78
208.143
209.911
212.13
214.814
217.945
221.47
225.289
229.301
233.418
237.539
241.545
245.319
248.733
251.652
253.969
255.535
256.133
255.647
254.08
251.565
248.459
245.2
242.208
240.034
239.365
240.631
243.947
249.131
255.551
262.306
268.53
273.407
275.964
276.458
276.699
277.587
280.126
284.804
290.104
299.106
318.702
355.004
414.898
498.491
598.183
706.246
813.911
914.688
1005.479
1083.216
1145.458
1190.173
1217.161
1224.622
1208.214
1164.644
1088.257
978.445
843.539
692.776
540.836
400.951
277.287
174.331
92.062
29.832
-6.617
-17.76
-9.322
5.293
2.615
-32.099
-99.388
