Name,John Breau
Date of Birth,"Dec 20, 1971"
Recorded Date,2023-07-14 08:46:13 -0500
Classification,Sinus Rhythm
Symptoms,
Software Version,1.90
Device,"Watch6,3"
Sample Rate,512 hertz


Lead,Lead I
Unit,µV

51.113
48.166
44.986
41.573
37.91
33.99
29.803
25.359
20.706
15.862
10.809
5.588
0.294
-4.995
-10.194
-15.272
-20.306
-25.304
-30.139
-34.894
-39.921
-45.282
-50.843
-56.631
-62.228
-68.339
-77.279
-88.568
-100.029
-108.154
-106.288
-94.707
-80.087
-69.042
-70.977
-86.641
-107.088
-125.393
-134.128
-131.865
-125.272
-118.485
-114.28
-113.554
-113.594
-113.14
-112.294
-110.963
-109.558
-108.198
-106.521
-104.422
-101.972
-99.172
-96.014
-92.524
-88.728
-84.67
-80.427
-76.031
-71.464
-66.731
-61.849
-56.829
-51.689
-46.442
-41.093
-35.653
-30.14
-24.571
-18.958
-13.317
-7.659
-1.995
3.66
9.294
14.895
20.45
25.946
31.373
36.717
41.967
47.111
52.139
57.041
61.807
66.428
70.895
75.201
79.337
83.297
87.074
90.663
94.057
97.252
100.242
103.026
105.6
107.96
110.103
112.027
113.729
115.206
116.456
117.472
118.25
118.788
119.086
119.141
118.954
118.524
117.854
116.949
115.818
114.461
112.879
111.071
109.037
106.775
104.283
101.557
98.59
95.377
91.918
88.22
84.288
80.123
75.718
71.065
66.163
61.024
55.662
50.092
44.331
38.405
32.359
26.256
20.153
14.09
8.081
2.124
-3.775
-9.609
-15.373
-21.057
-26.683
-32.279
-37.858
-43.428
-49.013
-54.654
-60.43
-66.46
-72.828
-79.577
-86.71
-94.192
-101.987
-110.046
-118.293
-126.643
-134.98
-143.19
-151.195
-158.923
-166.266
-173.099
-179.243
-184.47
-188.597
-191.484
-193.014
-193.141
-191.845
-189.132
-185.054
-179.679
-173.082
-165.327
-156.449
-146.478
-135.475
-123.533
-110.785
-97.438
-83.687
-69.714
-55.721
-41.838
-28.141
-14.709
-1.597
11.133
23.386
35.042
45.98
56.069
65.156
73.104
79.792
85.134
89.089
91.649
92.799
92.41
90.398
86.869
82.127
76.738
71.335
66.417
62.511
60.296
60.18
61.973
64.89
67.429
67.946
65.429
59.113
48.223
32.886
14.49
-4.441
-19.963
-27.741
-24.601
-7.843
25.344
76.295
144.48
227.708
321.335
419.565
517.531
610.134
691.204
755.467
798.893
818.675
814.74
788.35
740.192
672.085
587.743
491.364
387.77
281.929
177.229
76.903
-14.835
-94.532
-159.876
-209.711
-244.67
-266.187
-275.352
-274.064
-265.311
-252.267
-238.229
-225.424
-214.538
-205.834
-199.499
-195.236
-192.388
-189.865
-186.168
-180.635
-173.472
-165.04
-155.881
-146.475
-137.151
-128.481
-121.199
-115.638
-111.812
-109.548
-108.465
-108.284
-108.832
-109.843
-111.022
-112.069
-112.695
-112.74
-112.155
-110.903
-108.974
-106.355
-103.036
-99.079
-94.586
-89.658
-84.4
-78.895
-73.214
-67.45
-61.708
-56.1
-50.743
-45.714
-41.059
-36.816
-33.005
-29.642
-26.737
-24.27
-22.207
-20.521
-19.188
-18.191
-17.516
-17.141
-17.035
-17.171
-17.522
-18.065
-18.779
-19.643
-20.634
-21.735
-22.929
-24.204
-25.55
-26.953
-28.399
-29.876
-31.369
-32.865
-34.35
-35.809
-37.229
-38.597
-39.9
-41.123
-42.257
-43.292
-44.224
-45.052
-45.779
-46.404
-46.932
-47.372
-47.731
-48.018
-48.239
-48.39
-48.474
-48.492
-48.454
-48.376
-48.267
-48.122
-47.937
-47.706
-47.42
-47.064
-46.606
-45.994
-45.177
-44.125
-42.826
-41.289
-39.519
-37.517
-35.281
-32.812
-30.135
-27.284
-24.291
-21.171
-17.941
-14.639
-11.331
-8.137
-5.165
-2.475
-0.085
2.019
3.849
5.422
6.756
7.909
8.994
10.117
11.38
12.86
14.625
16.781
19.481
22.938
27.363
32.908
39.663
47.687
57.03
67.727
79.815
93.243
107.873
123.582
140.233
157.696
175.852
194.531
213.489
232.429
251.038
269.013
286.127
302.169
316.931
330.229
341.859
351.707
359.754
365.978
370.383
372.984
373.792
372.864
370.346
366.415
361.285
355.202
348.349
340.896
333.024
324.891
316.685
308.543
300.536
292.721
285.146
277.845
270.862
264.218
257.868
251.754
245.796
239.879
233.936
227.92
221.776
215.468
208.95
202.192
195.203
188.01
180.638
173.116
165.469
157.722
149.938
142.182
134.53
127.068
119.858
112.952
106.399
100.239
94.507
89.234
84.433
80.106
76.258
72.896
70.027
67.659
65.785
64.396
63.48
63.022
63.01
63.432
64.273
65.517
67.15
69.156
71.524
74.238
77.279
80.623
84.246
88.117
92.207
96.481
100.903
105.433
110.031
114.659
119.278
123.849
128.334
132.697
136.907
140.932
144.741
148.302
151.583
154.555
157.195
159.479
161.386
162.898
163.999
164.684
164.955
164.81
164.244
163.245
161.797
159.893
157.537
154.735
151.503
147.865
143.854
139.52
134.935
130.163
125.265
120.29
115.274
110.283
105.393
100.687
96.251
92.148
88.423
85.126
82.279
79.868
77.852
76.153
74.678
73.342
72.058
70.726
69.23
67.412
65.118
62.142
58.246
53.389
47.627
41.172
34.533
28.21
22.587
18.287
15.951
15.604
17.093
19.766
21.941
22.531
21.199
16.982
10.529
3.5
-4.304
-10.733
-14.868
-17.251
-12.155
4.847
39.392
97.396
173.341
260.582
351.853
438.44
520.287
596.914
664.614
721.176
761.868
782.792
783.467
763.282
721.549
658.603
575.843
475.906
362.647
240.749
114.761
-10.786
-130.272
-237.902
-328.927
-399.692
-448.199
-474.601
-479.892
-465.405
-434.418
-391.612
-341.887
-290.407
-241.445
-197.401
-160.149
-131.558
-111.885
-100.003
-94.052
-91.193
-88.852
-85.771
-80.961
-73.252
-62.289
-48.454
-32.66
-16.659
-2.205
9.914
19.31
25.611
28.824
29.163
27.013
23.281
19.034
14.852
11.034
7.771
5.064
3.017
1.818
1.46
1.836
2.881
4.513
6.701
9.465
12.707
16.247
19.879
23.356
26.523
29.316
31.678
33.572
34.957
35.775
36.018
35.725
34.925
33.649
31.923
29.759
27.219
24.396
21.395
18.331
15.292
12.331
9.503
6.852
4.419
2.239
0.336
-1.29
-2.625
-3.652
-4.35
-4.698
-4.686
-4.317
-3.598
-2.534
-1.135
0.592
2.635
4.978
7.609
10.511
13.67
17.071
20.693
24.51
28.494
32.613
36.834
41.124
45.448
49.769
54.053
58.264
62.369
66.336
70.133
73.73
77.095
80.201
83.021
85.529
87.7
89.512
90.947
91.985
92.612
92.815
92.583
91.91
90.789
89.219
87.2
84.734
81.826
78.486
74.722
70.549
65.982
61.039
55.739
50.104
44.157
37.921
31.422
24.685
17.734
10.597
3.3
-4.131
-11.668
-19.285
-26.956
-34.654
-42.352
-50.026
-57.649
-65.198
-72.649
-79.98
-87.168
-94.193
-101.035
-107.675
-114.097
-120.283
-126.221
-131.897
-137.299
-142.418
-147.247
-151.777
-156.005
-159.926
-163.537
-166.837
-169.825
-172.502
-174.868
-176.928
-178.683
-180.139
-181.302
-182.178
-182.775
-183.102
-183.168
-182.984
-182.56
-181.909
-181.043
-179.974
-178.716
-177.283
-175.691
-173.953
-172.085
-170.102
-168.019
-165.852
-163.615
-161.323
-158.991
-156.631
-154.258
-151.885
-149.524
-147.189
-144.89
-142.639
-140.445
-138.32
-136.272
-134.309
-132.435
-130.658
-128.979
-127.401
-125.926
-124.553
-123.279
-122.101
-121.015
-120.016
-119.097
-118.25
-117.466
-116.734
-116.043
-115.381
-114.736
-114.094
-113.441
-112.763
-112.047
-111.278
-110.443
-109.529
-108.52
-107.405
-106.169
-104.802
-103.293
-101.631
-99.807
-97.814
-95.647
-93.302
-90.78
-88.081
-85.211
-82.177
-78.992
-75.667
-72.218
-68.663
-65.018
-61.305
-57.544
-53.752
-49.951
-46.163
-42.412
-38.727
-35.138
-31.67
-28.351
-25.207
-22.265
-19.55
-17.085
-14.882
-12.955
-11.327
-10.027
-9.097
-8.572
-8.472
-8.813
-9.601
-10.836
-12.512
-14.603
-17.059
-19.831
-22.875
-26.157
-29.663
-33.366
-37.212
-41.129
-45.024
-48.82
-52.475
-55.961
-59.258
-62.366
-65.315
-68.17
-71.043
-74.066
-77.337
-80.932
-84.937
-89.448
-94.594
-100.599
-107.726
-116.075
-125.605
-136.12
-147.174
-158.294
-169.057
-178.817
-186.789
-192.631
-196.389
-198.456
-200.235
-203.286
-208.309
-216.247
-226.954
-238.11
-249.171
-259.84
-269.874
-281.681
-291.619
-290.89
-270.344
-219.038
-136.847
-34.079
78.378
187.572
288.056
381.769
466.688
540.013
597.5
632.303
642.003
627.217
587.771
525.097
442.511
343.578
233.422
118.379
3.048
-108.631
-211.519
-301.442
-375.602
-431.805
-470.214
-492.811
-501.07
-497.016
-484.023
-465.206
-443.706
-422.596
-403.106
-385.4
-369.817
-356.16
-343.701
-331.781
-319.316
-305.214
-289.464
-272.51
-254.799
-236.974
-219.583
-203.11
-188.299
-175.911
-166.263
-159.346
-154.924
-152.603
-152.074
-153.034
-155.07
-157.655
-160.248
-162.463
-164.084
-165.012
-165.18
-164.474
-162.753
-159.906
-155.913
-150.803
-144.642
-137.504
-129.451
-120.61
-111.168
-101.376
-91.522
-81.813
-72.378
-63.303
-54.65
-46.484
-38.881
-31.889
-25.51
-19.745
-14.594
-10.061
-6.157
-2.858
-0.108
2.178
4.096
5.718
7.09
8.252
9.239
10.082
10.813
11.451
11.999
12.473
12.896
13.295
13.701
14.14
14.626
15.169
15.779
16.466
17.243
18.12
19.102
20.195
21.407
22.746
24.221
25.843
27.603
29.492
31.513
33.665
35.943
38.344
40.838
43.386
45.984
48.628
51.255
53.812
56.25
58.507
60.588
62.532
64.278
65.74
67.057
68.399
69.629
70.739
71.747
72.221
73.266
75.961
78.74
81.126
80.257
72.711
62.273
51.471
44.066
45.228
50.401
55.731
58.581
54.588
46.905
38.728
30.788
25.043
20.397
15.432
10.45
5.294
0.089
-4.844
-9.671
-14.518
-19.309
-24.009
-28.612
-33.092
-37.418
-41.567
-45.493
-49.15
-52.538
-55.661
-58.506
-61.069
-63.346
-65.333
-67.036
-68.461
-69.613
-70.496
-71.122
-71.5
-71.644
-71.57
-71.294
-70.835
-70.21
-69.44
-68.545
-67.546
-66.461
-65.311
-64.116
-62.891
-61.656
-60.424
-59.212
-58.031
-56.892
-55.805
-54.776
-53.811
-52.912
-52.08
-51.315
-50.611
-49.966
-49.37
-48.818
-48.297
-47.796
-47.303
-46.802
-46.279
-45.715
-45.094
-44.394
-43.596
-42.679
-41.622
-40.403
-39.003
-37.399
-35.575
-33.51
-31.189
-28.598
-25.723
-22.552
-19.075
-15.284
-11.178
-6.755
-2.018
3.031
8.385
14.041
19.982
26.189
32.659
39.386
46.358
53.567
60.978
68.544
76.259
84.112
92.028
99.945
107.8
115.52
123.1
130.569
137.851
144.84
151.673
158.52
165.22
171.749
178.112
183.829
190.083
198.026
205.948
213.313
217.006
213.305
206.294
198.689
194.543
199.43
208.4
217.266
223.164
221.354
215.228
208.217
201.089
195.96
191.639
186.592
181.151
175.153
168.76
162.375
155.878
149.191
142.442
135.691
128.974
122.365
115.952
109.829
104.087
98.78
93.897
89.441
85.424
81.827
78.575
75.518
72.485
69.349
66.016
62.429
58.542
54.29
49.585
44.345
38.504
32.029
24.974
17.394
9.256
0.634
-8.2
-16.735
-24.202
-29.798
-32.98
-33.469
-30.853
-24.781
-15.428
-3.463
10.082
23.659
36.948
51.636
67.395
83.096
96.796
103.791
106.368
112.936
132.026
174.051
239.767
319.448
403.929
483.035
552.213
614.078
667.904
711.734
742.653
755.702
749.191
723.641
679.267
616.933
538.643
447.174
346.48
240.981
134.019
28.399
-72.34
-163.869
-242.233
-304.531
-349.683
-377.972
-389.796
-385.698
-367.006
-336.55
-298.406
-256.742
-214.75
-174.908
-139.119
-109.007
-86.239
-71.239
-62.796
-59.127
-58.364
-58.598
-58.751
-57.991
-54.962
-49.047
-40.549
-30.1
-18.884
-8.202
1.497
10.026
16.974
22.327
26.236
28.94
31.118
33.487
36.362
39.885
44.102
48.925
54.352
60.402
66.969
73.885
80.959
88.047
95.078
102.011
108.783
115.295
121.423
127.088
132.274
136.989
141.26
145.1
148.496
151.448
153.969
156.089
157.862
159.329
160.513
161.443
162.149
162.669
163.058
163.349
163.548
163.66
163.687
163.634
163.517
163.344
163.113
162.825
162.477
162.069
161.603
161.078
160.488
159.825
159.079
158.244
157.314
156.286
155.15
153.899
152.523
151.014
149.366
147.573
145.625
143.516
141.24
138.793
136.175
133.384
130.423
127.293
124.001
120.552
116.956
113.223
109.364
105.393
101.324
97.174
92.96
88.7
84.412
80.114
75.827
71.568
67.357
63.211
59.149
55.188
51.344
47.633
44.069
40.665
37.433
34.383
31.523
28.86
26.399
24.143
22.091
20.241
18.591
17.134
15.861
14.763
13.828
13.04
12.384
11.844
11.401
11.035
10.726
10.453
10.196
9.935
9.648
9.317
8.923
8.449
7.878
7.196
6.39
5.448
4.36
3.117
1.713
0.143
-1.597
-3.508
-5.589
-7.84
-10.255
-12.83
-15.557
-18.429
-21.434
-24.561
-27.798
-31.131
-34.546
-38.025
-41.553
-45.114
-48.691
-52.266
-55.824
-59.348
-62.823
-66.236
-69.574
-72.825
-75.98
-79.029
-81.966
-84.786
-87.484
-90.058
-92.507
-94.829
-97.027
-99.102
-101.058
-102.898
-104.626
-106.247
-107.766
-109.189
-110.524
-111.774
-112.948
-114.05
-115.088
-116.067
-116.993
-117.871
-118.703
-119.495
-120.249
-120.967
-121.651
-122.299
-122.911
-123.483
-124.013
-124.495
-124.923
-125.289
-125.584
-125.8
-125.928
-125.958
-125.881
-125.685
-125.362
-124.905
-124.305
-123.557
-122.655
-121.593
-120.37
-118.983
-117.433
-115.721
-113.85
-111.826
-109.656
-107.352
-104.929
-102.401
-99.782
-97.092
-94.349
-91.573
-88.783
-85.997
-83.233
-80.512
-77.857
-75.296
-72.854
-70.552
-68.415
-66.464
-64.722
-63.211
-61.942
-60.921
-60.156
-59.658
-59.447
-59.547
-59.975
-60.734
-61.827
-63.247
-64.984
-67.022
-69.326
-71.842
-74.52
-77.316
-80.199
-83.139
-86.094
-89.003
-91.796
-94.4
-96.765
-98.846
-100.607
-102.035
-103.14
-103.958
-104.554
-104.99
-105.334
-105.678
-106.114
-106.731
-107.639
-108.93
-110.768
-113.418
-116.967
-121.293
-126.167
-131.163
-135.837
-139.897
-142.855
-143.932
-142.805
-139.838
-135.693
-131.373
-128.07
-126.548
-127.42
-132.056
-139.928
-147.553
-153.2
-155.668
-154.926
-154.976
-152.648
-137.717
-102.228
-38.79
50.082
151.946
259.65
368.803
476.192
578.002
660.327
707.621
711.781
674.467
609.32
530.4
445.83
358.323
264.578
163.171
56.79
-50.536
-152.97
-245.329
-325.062
-390.846
-441.869
-478.207
-500.3
-508.724
-504.76
-490.665
-468.656
-440.841
-410.014
-378.54
-347.839
-318.932
-292.424
-268.324
-246.764
-227.998
-211.106
-194.809
-178.658
-162.588
-146.736
-131.55
-117.12
-103.094
-90.02
-79.008
-70.567
-64.941
-62.081
-61.513
-62.996
-66.644
-72.101
-78.429
-84.846
-90.906
-96.249
-100.746
-104.644
-106.543
-105.207
-102.275
-98.256
-96.2
-99.792
-105.159
-109.596
-109.088
-98.501
-82.815
-66.228
-52.114
-44.127
-38.032
-32.123
-26.193
-21.034
-21.18
-24.458
-28.097
-28.614
-20.86
-8.93
3.239
12.958
16.079
15.727
15.043
14.777
16.856
20.219
23.507
27.027
30.585
34.25
38.291
42.5
46.718
50.983
55.287
59.588
63.878
68.152
72.393
76.61
80.8
84.906
88.908
92.804
96.529
100.031
103.274
106.204
108.825
111.169
113.174
114.742
116.02
117.201
118.163
118.904
119.458
119.408
119.877
121.975
124.146
125.895
124.349
116.064
104.821
93.168
84.88
85.136
89.382
93.728
95.522
90.411
81.524
72.028
62.613
55.171
48.604
41.566
34.411
27.041
19.609
12.417
5.306
-1.836
-8.909
-15.833
-22.579
-29.132
-35.426
-41.381
-46.888
-51.803
-56.118
-59.923
-63.268
-66.202
-68.757
-70.914
-72.695
-74.145
-75.29
-76.153
-76.747
-77.062
-77.133
-77.031
-76.828
-76.615
-76.419
-76.192
-75.91
-75.562
-75.142
-74.675
-74.162
-73.581
-72.938
-72.263
-71.583
-70.937
-70.336
-69.763
-69.207
-68.651
-68.104
-67.605
-67.181
-66.847
-66.621
-66.51
-66.53
-66.706
-67.042
-67.525
-68.141
-68.874
-69.715
-70.665
-71.718
-72.863
-74.088
-75.373
-76.702
-78.058
-79.424
-80.779
-82.1
-83.364
-84.552
-85.65
-86.644
-87.519
-88.262
-88.858
-89.293
-89.558
-89.643
-89.537
-89.23
-88.713
-87.98
-87.027
-85.852
-84.453
-82.832
-80.992
-78.936
-76.674
-74.213
-71.564
-68.739
-65.751
-62.615
-59.349
-55.971
-52.499
-48.957
-45.365
-41.748
-38.129
-34.533
-30.985
-27.507
-24.124
-20.857
-17.73
-14.763
-11.977
-9.392
-7.03
-4.911
-3.059
-1.495
-0.235
0.703
1.304
1.556
1.451
0.985
0.159
-1.024
-2.564
-4.457
-6.697
-9.275
-12.176
-15.386
-18.889
-22.662
-26.684
-30.926
-35.356
-39.949
-44.687
-49.555
-54.551
-59.663
-64.865
-70.135
-75.449
-80.773
-86.075
-91.304
-96.385
-101.256
-105.857
-110.128
-114.022
-117.477
-120.418
-122.779
-124.483
-125.472
-125.739
-125.28
-124.098
-122.221
-119.662
-116.49
-112.869
-108.974
-105.002
-101.163
-97.604
-94.543
-92.313
-91.08
-90.845
-91.399
-92.197
-92.719
-92.673
-91.673
-89.219
-85.194
-79.902
-74.233
-69.819
-68.149
-70.011
-75.962
-86.492
-101.201
-118.498
-135.656
-148.646
-153.359
-146.937
-126.985
-90.979
-37.836
31.586
114.829
207.18
303.054
398.055
487.483
565.419
626.885
668.045
686.152
681.127
653.943
604.744
534.9
447.753
347.261
238.442
126.616
15.576
-90.884
-188.077
-271.863
-339.027
-387.789
-418.481
-432.472
-431.149
-416.5
-391.22
-358.912
-323.831
-289.308
-257.508
-229.743
-206.6
-188.646
-176.461
-169.294
-165.39
-163.109
-160.727
-157.228
-152.427
-145.72
-136.191
-123.739
-108.787
-92.108
-74.987
-58.052
-41.25
-24.727
-8.674
6.947
22.293
37.891
54.614
72.947
93.027
114.897
138.464
163.674
190.515
218.833
248.35
278.794
309.895
341.426
373.182
404.866
436.092
466.396
495.302
522.439
547.522
570.343
590.74
608.559
623.677
636.026
645.582
652.379
656.486
657.974
656.957
653.62
648.234
641.168
632.821
623.513
613.495
602.946
592
580.793
569.434
557.984
546.47
534.878
523.183
511.387
499.476
487.391
475.008
462.116
448.48
433.935
418.393
401.844
384.326
365.883
346.599
326.616
306.121
285.344
264.494
243.729
223.187
203.024
183.436
164.685
147.057
130.769
115.967
102.731
91.094
81.081
72.659
65.728
60.122
55.624
52.052
49.28
47.21
45.739
44.737
44.029
43.421
42.769
41.965
40.929
39.598
37.912
35.85
33.445
30.785
27.992
25.148
22.296
19.45
16.625
13.845
11.151
8.582
6.146
3.85
1.698
-0.303
-2.14
-3.82
-5.377
-6.868
-8.36
-9.9
-11.513
-13.21
-15.002
-16.896
-18.9
-21.009
-23.206
-25.477
-27.818
-30.224
-32.697
-35.231
-37.813
-40.425
-43.05
-45.675
-48.291
-50.89
-53.464
-56.007
-58.515
-60.99
-63.437
-65.855
-68.245
-70.604
-72.928
-75.217
-77.467
-79.677
-81.844
-83.964
-86.037
-88.061
-90.036
-91.962
-93.836
-95.656
-97.422
-99.129
-100.777
-102.36
-103.876
-105.32
-106.687
-107.972
-109.171
-110.278
-111.286
-112.192
-112.987
-113.668
-114.229
-114.665
-114.972
-115.146
-115.185
-115.086
-114.849
-114.473
-113.956
-113.3
-112.505
-111.572
-110.503
-109.301
-107.969
-106.509
-104.927
-103.227
-101.417
-99.502
-97.489
-95.387
-93.206
-90.953
-88.639
-86.277
-83.878
-81.453
-79.017
-76.581
-74.159
-71.764
-69.407
-67.1
-64.853
-62.675
-60.577
-58.566
-56.651
-54.841
-53.145
-51.575
-50.143
-48.858
-47.731
-46.77
-45.986
-45.384
-44.967
-44.736
-44.69
-44.828
-45.151
-45.663
-46.359
-47.237
-48.291
-49.514
-50.899
-52.438
-54.113
-55.907
-57.804
-59.795
-61.884
-64.086
-66.412
-68.861
-71.429
-74.108
-76.885
-79.747
-82.657
-85.557
-88.39
-91.099
-93.642
-95.992
-98.104
-99.92
-101.367
-102.361
-102.835
-102.762
-102.135
-100.952
-99.246
-97.052
-94.442
-91.576
-88.638
-85.833
-83.369
-81.423
-80.155
-79.796
-80.676
-82.988
-86.733
-91.671
-97.247
-102.932
-108.369
-113.115
-116.537
-118.32
-118.593
-118.023
-118.206
-120.663
-126.214
-135.567
-149.195
-166.606
-186.415
-206.109
-221.413
-227.971
-222.384
-201.41
-162.604
-104.841
-28.409
64.129
167.958
276.183
381.97
480.004
564.095
631.366
680.127
703.909
700.136
665.552
596.768
502.499
391.535
272.412
156.375
45.496
-59.3
-154.126
-237.636
-307.028
-359.747
-396.691
-419.775
-430.562
-430.804
-422.873
-408.673
-389.763
-368.049
-344.568
-319.62
-294.192
-269.539
-246.16
-224.74
-206.2
-190.647
-178.139
-168.92
-162.389
-157.299
-152.897
-148.347
-142.517
-135.083
-126.032
-115.256
-103.33
-91.434
-80.297
-70.252
-61.837
-55.111
-49.527
-46.189
-45.754
-45.917
-45.873
-42.302
-31.365
-17.309
-2.961
7.524
8.33
4.292
-0.463
-3.057
1.334
9.296
17.337
24.589
28.802
31.198
33.417
35
35.971
36.374
35.912
34.81
33.719
31.509
27.116
22.168
17.171
15.029
19.229
25.972
32.728
35.775
29.966
19.929
9.594
1.658
0.554
3.147
6.255
9.177
9.972
9.784
10.076
10.577
11.477
12.677
13.88
15.271
16.995
18.989
21.227
23.709
26.413
29.308
32.365
35.534
38.757
42.021
45.315
48.607
51.871
55.082
58.211
61.236
64.138
66.889
69.467
71.851
74.021
75.959
77.651
79.082
80.242
81.119
81.706
81.997
81.987
81.674
81.057
80.137
78.918
77.403
75.599
73.515
71.16
68.545
65.683
62.587
59.271
55.751
52.042
48.162
44.126
39.953
35.66
31.265
26.786
22.24
17.647
13.023
8.387
3.754
-0.859
-5.434
-9.958
-14.415
-18.791
-23.071
-27.243
-31.294
-35.212
-38.984
-42.601
-46.052
-49.328
-52.421
-55.324
-58.029
-60.532
-62.828
-64.915
-66.789
-68.449
-69.895
-71.128
-72.147
-72.956
-73.558
-73.957
-74.158
-74.166
-73.988
-73.633
-73.107
-72.421
-71.584
-70.605
-69.495
-68.265
-66.926
-65.49
-63.969
-62.375
-60.72
-59.017
-57.278
-55.516
-53.743
-51.968
-50.203
-48.456
-46.738
-45.056
-43.416
-41.826
-40.291
-38.815
-37.404
-36.06
-34.786
-33.582
-32.448
-31.383
-30.386
-29.453
-28.579
-27.76
-26.989
-26.263
-25.575
-24.917
-24.283
-23.667
-23.06
-22.455
-21.846
-21.223
-20.581
-19.912
-19.212
-18.477
-17.703
-16.89
-16.035
-15.141
-14.209
-13.243
-12.248
-11.227
-10.187
-9.134
-8.077
-7.027
-5.996
-4.996
-4.044
-3.16
-2.364
-1.677
-1.119
-0.713
-0.477
-0.431
-0.592
-0.975
-1.595
-2.467
-3.608
-5.033
-6.756
-8.787
-11.136
-13.811
-16.813
-20.147
-23.805
-27.778
-32.063
-36.659
-41.571
-46.814
-52.392
-58.298
-64.524
-71.059
-77.879
-84.953
-92.229
-99.632
-107.092
-114.544
-121.922
-129.172
-136.213
-142.953
-149.311
-155.185
-160.506
-165.244
-169.35
-172.79
-175.569
-177.697
-179.25
-180.396
-181.282
-182.068
-182.948
-184.077
-185.699
-188.156
-191.636
-196.185
-201.653
-207.616
-213.709
-219.708
-225.207
-229.61
-232.513
-233.866
-234.265
-235.023
-237.248
-241.501
-248.142
-257.612
-270.129
-284.908
-299.946
-311.872
-316.753
-311.67
-294.622
-263.11
-216.181
-154.299
-77.028
12.676
113.031
223.2
334.913
440.708
530.452
593.116
630.187
644.02
637.95
617.708
579.821
522.07
446.98
356.185
255.484
151.302
46.58
-55.232
-149.971
-234.502
-305.951
-361.779
-401.439
-425.864
-435.664
-432.046
-417.278
-393.495
-363.636
-331.538
-299.848
-269.857
-242.685
-218.967
-199.111
-183.808
-172.598
-163.651
-155.368
-146.995
-138.228
-129.148
-119.601
-108.93
-97.171
-85.392
-74.907
-66.598
-60.738
-57.12
-55.587
-56.3
-59.199
-63.754
-69.093
-74.396
-79.213
-83.409
-86.955
-89.726
-91.52
-92.174
-91.679
-90.109
-87.525
-83.969
-79.43
-73.922
-67.567
-60.555
-53.117
-45.479
-37.783
-30.109
-22.525
-15.09
-7.866
-0.928
5.699
12.019
18.024
23.712
29.067
34.075
38.759
43.178
47.4
51.501
55.525
59.495
63.429
67.34
71.238
75.13
79.007
82.852
86.655
90.416
94.138
97.827
101.481
105.088
108.639
112.121
115.528
118.855
122.097
125.247
128.305
131.271
134.149
136.942
139.655
142.284
144.828
147.284
149.647
151.914
154.08
156.137
158.081
159.904
161.603
163.171
164.602
165.891
167.03
168.014
168.834
169.485
169.958
170.246
170.343
170.24
169.93
169.408
168.665
167.697
166.497
165.06
163.38
161.454
159.277
156.846
154.158
151.211
148.004
144.538
140.814
136.834
132.601
128.122
123.402
118.449
113.272
107.88
102.284
96.498
90.535
84.409
78.136
71.733
65.217
58.606
51.921
45.181
38.407
31.62
24.843
18.096
11.402
4.782
-1.741
-8.145
-14.411
-20.515
-26.438
-32.16
-37.661
-42.921
-47.924
-52.653
-57.091
-61.226
-65.044
-68.536
-71.692
-74.506
-76.973
-79.09
-80.856
-82.271
-83.338
-84.062
-84.448
-84.504
-84.241
-83.67
-82.804
-81.659
-80.249
-78.592
-76.706
-74.611
-72.325
-69.87
-67.265
-64.532
-61.694
-58.773
-55.793
-52.775
-49.743
-46.72
-43.727
-40.785
-37.914
-35.134
-32.46
-29.909
-27.494
-25.227
-23.119
-21.177
-19.407
-17.813
-16.397
-15.159
-14.096
-13.202
-12.471
-11.895
-11.463
-11.163
-10.982
-10.904
-10.914
-10.994
-11.128
-11.296
-11.477
-11.65
-11.794
-11.888
-11.91
-11.839
-11.652
-11.329
-10.851
-10.201
-9.362
-8.318
-7.058
-5.571
-3.853
-1.901
0.285
2.703
5.347
8.21
11.283
14.553
18.011
21.645
25.442
29.383
33.445
37.604
41.836
46.116
50.419
54.715
58.975
63.175
67.297
71.322
75.224
78.97
82.511
85.809
88.834
91.562
93.97
96.051
97.803
99.24
100.404
101.332
102.05
102.58
102.921
103.092
103.131
103.091
103.036
103.013
103.04
103.14
103.338
103.603
103.875
104.047
103.966
103.54
102.708
101.381
99.48
96.882
93.417
88.985
83.447
76.59
68.409
59.031
48.735
38.208
28.161
19.119
11.807
6.931
4.514
4.258
5.347
6.042
5.022
1.603
-5.149
-15.729
-29.291
-44.277
-57.854
-65.571
-63.938
-50.425
-22.105
22.959
84.908
162.657
252.72
349.132
446.68
540.601
624.959
694.467
744.856
772.66
777.047
759.636
721.736
664.662
591.347
505.13
409.903
310.226
209.412
109.573
13.418
-75.509
-154.188
-220.06
-271.364
-307.712
-328.754
-333.71
-322.652
-297.513
-261.098
-216.706
-167.99
-117.779
-68.83
-24.697
11.611
38.802
56.674
66.076
68.838
66.456
60.631
53.995
48.802
46.314
47.167
51.082
57.134
64.667
72.85
80.393
86.421
90.488
92.412
92.517
91.313
89.161
86.521
83.968
81.843
80.347
79.598
79.559
80.182
81.419
83.143
85.17
87.325
89.476
91.524
93.392
95.01
96.313
97.266
97.875
98.167
98.164
97.873
97.286
96.4
95.24
93.844
92.266
90.576
88.835
87.101
85.444
83.923
82.582
81.459
80.569
79.917
79.51
79.36
79.477
79.874
80.557
81.526
82.779
84.31
86.109
88.161
90.449
92.949
95.642
98.504
101.514
104.653
107.897
111.22
114.594
117.99
121.376
124.719
127.986
131.141
134.15
136.979
139.596
141.972
144.078
145.886
147.37
148.509
149.281
149.668
149.654
149.226
148.372
147.085
145.361
143.196
140.593
137.555
134.09
130.208
125.92
121.243
116.194
110.793
105.062
99.023
92.704
86.13
79.332
72.338
65.18
57.891
50.502
43.045
35.552
28.055
20.583
13.167
5.833
-1.39
-8.479
-15.408
-22.155
-28.7
-35.023
-41.109
-46.941
-52.508
-57.8
-62.807
-67.523
-71.945
-76.069
-79.896
-83.427
-86.664
-89.615
-92.284
-94.681
-96.816
-98.7
-100.346
-101.768
-102.981
-104
-104.84
-105.518
-106.049
-106.448
-106.732
-106.916
-107.015
-107.042
-107.011
-106.937
-106.83
-106.703
-106.566
-106.429
-106.299
-106.186
-106.094
-106.031
-106.001
-106.006
-106.051
-106.136
-106.263
-106.43
-106.635
-106.876
-107.15
-107.451
-107.775
-108.114
-108.462
-108.813
-109.158
-109.49
-109.802
-110.084
-110.329
-110.53
-110.679
-110.769
-110.795
-110.749
-110.626
-110.42
-110.129
-109.747
-109.271
-108.697
-108.022
-107.244
-106.361
-105.372
-104.277
-103.076
-101.771
-100.363
-98.856
-97.253
-95.559
-93.779
-91.92
-89.988
-87.99
-85.936
-83.834
-81.694
-79.528
-77.345
-75.158
-72.98
-70.822
-68.695
-66.613
-64.585
-62.626
-60.745
-58.954
-57.267
-55.696
-54.256
-52.963
-51.834
-50.882
-50.122
-49.568
-49.232
-49.122
-49.246
-49.606
-50.207
-51.052
-52.144
-53.487
-55.078
-56.915
-58.997
-61.315
-63.86
-66.62
-69.577
-72.712
-76.012
-79.465
-83.064
-86.814
-90.712
-94.743
-98.892
-103.141
-107.461
-111.822
-116.179
-120.468
-124.637
-128.631
-132.396
-135.891
-139.062
-141.851
-144.206
-146.054
-147.338
-148.05
-148.18
-147.738
-146.748
-145.213
-143.196
-140.82
-138.199
-135.487
-132.838
-130.371
-128.298
-126.874
-126.188
-126.282
-127.076
-128.164
-129.142
-129.689
-129.298
-127.487
-124.199
-119.514
-113.738
-108.134
-104.18
-102.635
-104.521
-109.594
-115.143
-120.517
-125.903
-131.831
-142.043
-153.526
-156.691
-141.688
-96.598
-20.982
73.545
175.447
271.5
356.364
433.469
502.056
560.356
605.115
629.645
631.465
611.015
567.699
502.603
418.554
318.559
207.452
91.332
-25.328
-138.513
-243.076
-334.639
-409.907
-466.237
-503.49
-523.134
-526.067
-513.722
-488.648
-453.547
-411.743
-366.927
-321.34
-276.759
-235.505
-199.265
-169.284
-146.407
-130.253
-119.691
-113.924
-111.69
-111.122
-110.857
-109.603
-106.408
-101.266
-94.585
-86.794
-78.774
-71.718
-66.367
-63.323
-62.852
-64.643
-68.249
-73.17
-78.729
-84.185
-89.024
-92.844
-95.402
-96.689
-96.706
-95.48
-93.111
-89.723
-85.423
-80.323
-74.553
-68.241
-61.57
-54.744
-47.92
-41.223
-34.758
-28.606
-22.835
-17.487
-12.572
-8.077
-3.994
-0.316
2.967
5.874
8.448
10.746
12.834
14.789
16.668
18.516
20.371
22.258
24.191
26.179
28.218
30.292
32.398
34.532
36.695
38.887
41.103
43.334
45.57
47.799
50.008
52.187
54.324
56.412
58.442
60.408
62.305
64.13
65.876
67.536
69.1
70.555
71.892
73.098
74.162
75.072
75.817
76.388
76.777
76.977
76.983
76.79
76.394
75.792
74.983
73.965
72.739
71.307
69.671
67.835
65.803
63.583
61.181
58.606
55.867
52.974
49.939
46.771
43.484
40.09
36.601
33.032
29.395
25.705
21.977
18.224
14.46
10.701
6.958
3.244
-0.428
-4.049
-7.608
-11.098
-14.51
-17.838
-21.076
-24.219
-27.264
-30.207
-33.045
-35.778
-38.404
-40.924
-43.339
-45.649
-47.857
-49.965
-51.974
-53.887
-55.706
-57.434
-59.073
-60.625
-62.093
-63.477
-64.781
-66.005
-67.152
-68.221
-69.213
-70.127
-70.962
-71.717
-72.388
-72.971
-73.463
-73.858
-74.152
-74.338
-74.41
-74.362
-74.187
-73.878
-73.43
-72.834
-72.086
-71.179
-70.107
-68.868
-67.456
-65.87
-64.107
-62.167
-60.05
-57.759
-55.296
-52.665
-49.87
-46.917
-43.814
-40.567
-37.188
-33.685
-30.072
-26.361
-22.567
-18.707
-14.796
-10.853
-6.896
-2.943
0.986
4.872
8.696
12.44
16.086
19.614
23.007
26.249
29.324
32.218
34.918
37.413
39.692
41.747
43.573
45.164
46.517
47.63
48.501
49.132
49.524
49.682
49.61
49.315
48.804
48.087
47.176
46.084
44.825
43.412
41.862
40.19
38.412
36.543
34.596
32.583
30.515
28.405
26.264
24.102
21.929
19.755
17.594
15.457
13.354
11.293
9.275
7.304
5.382
3.512
1.695
-0.066
-1.775
-3.427
-5.011
-6.524
-7.968
-9.355
-10.713
-12.065
-13.424
-14.802
-16.206
-17.632
-19.079
-20.523
-21.919
-23.228
-24.411
-25.441
-26.313
-26.998
-27.454
-27.632
-27.459
-26.886
-25.896
-24.47
-22.617
-20.387
-17.846
-15.107
-12.324
-9.632
-7.193
-5.16
-3.648
-2.825
-2.837
-3.876
-6.263
-10.116
-15.355
-21.8
-29.006
-36.492
-43.921
-50.649
-55.803
-59.132
-60.777
-61.246
-61.724
-63.102
-65.978
-71.383
-80.185
-90.98
-100.656
-105.951
-103.704
-95.69
-86.542
-77.439
-65.491
-39.755
13.792
104.076
231.169
380.303
528.716
652.117
731.392
764.48
761.126
736.806
706.615
674.488
635.501
582.235
510.08
420.371
319.769
217.225
118.522
26.354
-60.303
-145.139
-229.37
-309.74
-374.496
-409.517
-406.07
-363.59
-298.933
-235.365
-189.41
-171.419
-174.731
-183.706
-188.823
-182.357
-164.695
-143.03
-120.064
-97.896
-77.412
-56.304
-34.311
-12.4
8.817
27.95
43.854
56.387
65.619
71.663
74.899
75.629
73.99
70.274
64.887
58.166
50.481
42.172
33.449
24.588
15.943
7.825
0.528
-5.748
-10.933
-14.972
-17.826
-19.494
-19.986
-19.372
-17.787
-15.364
-12.23
-8.516
-4.332
0.172
4.805
9.413
13.868
18.084
22.031
25.676
28.989
31.968
34.63
37.01
39.16
41.122
42.923
44.605
46.211
47.797
49.437
51.183
53.066
55.111
57.328
59.722
62.301
65.057
67.968
71.014
74.178
77.443
80.8
84.234
87.723
91.245
94.775
98.294
101.784
105.227
108.606
111.905
115.108
118.203
121.18
124.027
126.73
129.273
131.641
133.821
135.798
137.558
139.088
140.374
141.407
142.176
142.676
142.899
142.841
142.498
141.87
140.958
139.764
138.294
136.551
134.545
132.284
129.781
127.045
124.091
120.931
117.579
114.052
110.363
106.53
102.567
98.491
94.318
90.064
85.746
81.381
76.984
72.571
68.16
63.766
59.406
55.095
50.848
46.678
42.598
38.621
34.757
31.015
27.402
23.925
20.59
17.399
14.354
11.458
8.709
6.107
3.652
1.338
-0.84
-2.887
-4.81
-6.613
-8.294
-9.867
-11.342
-12.713
-13.975
-15.126
-16.159
-17.092
-17.953
-18.73
-19.412
-20.048
-20.678
-21.332
-22.058
-22.826
-23.576
-24.349
-25.214
-25.999
-26.5
-26.841
-27.011
-26.97
-27.161
-26.384
-23.469
-20.081
-16.722
-16.452
-22.934
-32.107
-41.267
-46.385
-41.93
-32.792
-23.121
-15.757
-15.399
-18.691
-22.231
-25.266
-25.725
-24.814
-24.087
-23.253
-22.515
-21.774
-20.724
-19.576
-18.503
-17.459
-16.441
-15.479
-14.579
-13.741
-12.97
-12.248
-11.552
-10.909
-10.344
-9.863
-9.479
-9.202
-9.04
-9.006
-9.113
-9.365
-9.769
-10.328
-11.048
-11.932
-12.981
-14.197
-15.579
-17.128
-18.84
-20.714
-22.745
-24.928
-27.257
-29.726
-32.327
-35.05
-37.885
-40.821
-43.845
-46.946
-50.11
-53.323
-56.574
-59.851
-63.144
-66.441
-69.734
-73.012
-76.265
-79.484
-82.659
-85.778
-88.829
-91.802
-94.69
-97.487
-100.194
-102.805
-105.318
-107.734
-110.05
-112.268
-114.386
-116.395
-118.289
-120.069
-121.745
-123.338
-124.869
-126.347
-127.78
-129.175
-130.525
-131.82
-133.037
-134.126
-135.043
-135.749
-136.215
-136.43
-136.382
-136.029
-135.325
-134.211
-132.634
-130.581
-128.045
-125.022
-121.553
-117.707
-113.603
-109.417
-105.302
-101.385
-97.808
-94.694
-92.189
-90.494
-89.77
-90.215
-92.087
-95.427
-100.116
-105.914
-112.283
-118.671
-124.657
-129.558
-132.579
-133.533
-132.633
-130.571
-128.673
-127.786
-128.123
-130.177
-134.467
-140.529
-147.075
-151.639
-150.618
-141.268
-121.965
-90.988
-46.545
12.057
84.222
167.413
257.038
348.65
438.571
522.804
596.572
655.431
695.745
715.364
714.433
693.876
654.351
596.9
523.863
438.225
343.41
243.251
140.616
37.779
-62.221
-155.844
-240.077
-312.007
-369.399
-411.804
-439.137
-451.214
-449.158
-435.091
-411.448
-381.977
-350.41
-318.659
-288.148
-260.288
-235.491
-213.928
-195.606
-178.845
-161.864
-144.25
-125.829
-106.708
-87.537
-68.51
-49.772
-32.578
-18.077
-6.679
1.339
6.196
8.368
7.911
4.922
0.021
-6.201
-13.254
-20.658
-28.223
-35.783
-42.956
-49.396
-54.889
-59.283
-62.552
-64.716
-65.74
-65.624
-64.424
-62.24
-59.221
-55.515
-51.241
-46.509
-41.432
-36.152
-30.848
-25.67
-20.721
-16.065
-11.721
-7.705
-4.034
-0.695
2.348
5.149
7.767
10.253
12.639
14.964
17.277
19.635
22.11
24.753
27.594
30.652
33.937
37.452
41.202
45.174
49.343
53.685
58.175
62.797
67.536
72.373
77.281
82.233
87.2
92.154
97.073
101.932
106.704
111.366
115.894
120.268
124.471
128.483
132.282
135.847
139.156
142.187
144.923
147.345
149.433
151.173
152.552
153.558
154.183
154.421
154.266
153.715
152.766
151.422
149.684
147.557
145.047
142.163
138.915
135.316
131.378
127.116
122.546
117.685
112.551
107.164
101.541
95.705
89.675
83.473
77.121
70.642
64.058
57.392
50.666
43.905
37.13
30.365
23.63
16.948
10.337
3.819
-2.587
-8.863
-14.992
-20.957
-26.742
-32.332
-37.713
-42.873
-47.8
-52.482
-56.911
-61.078
-64.976
-68.597
-71.936
-74.988
-77.749
-80.216
-82.388
-84.263
-85.841
-87.124
-88.114
-88.815
-89.231
-89.368
-89.233
-88.834
-88.179
-87.28
-86.146
-84.79
-83.225
-81.466
-79.525
-77.421
-75.167
-72.781
-70.28
-67.681
-65.002
-62.26
-59.474
-56.661
-53.839
-51.028
-48.244
-45.507
-42.833
-40.24
-37.745
-35.365
-33.115
-31.01
-29.063
-27.289
-25.698
-24.302
-23.108
-22.125
-21.358
-20.812
-20.487
-20.386
-20.505
-20.842
-21.392
-22.147
-23.1
-24.24
-25.557
-27.037
-28.667
-30.431
-32.312
-34.293
-36.355
-38.479
-40.643
-42.825
-45.004
-47.157
-49.261
-51.294
-53.231
-55.051
-56.73
-58.246
-59.579
-60.708
-61.614
-62.279
-62.689
-62.829
-62.689
-62.258
-61.529
-60.498
-59.162
-57.52
-55.576
-53.334
-50.799
-47.981
-44.891
-41.541
-37.948
-34.128
-30.102
-25.893
-21.529
-17.038
-12.449
-7.796
-3.11
1.576
6.227
10.812
15.302
19.667
23.875
27.895
31.694
35.243
38.517
41.49
44.142
46.452
48.403
49.988
51.206
52.05
52.513
52.578
52.223
51.434
50.21
48.557
46.48
43.997
41.127
37.911
34.412
30.688
26.794
22.776
18.665
14.522
10.426
6.467
2.75
-0.644
-3.673
-6.291
-8.457
-10.163
-11.411
-12.235
-12.747
-13.048
-13.237
-13.431
-13.723
-14.243
-15.203
-16.889
-19.499
-23.033
-27.281
-31.837
-36.286
-40.305
-43.493
-45.198
-44.967
-42.97
-39.922
-37.179
-36.207
-37.785
-42.446
-50.945
-63.371
-78.567
-94.438
-107.631
-113.951
-110.132
-93.73
-61.829
-13.634
48.596
123.891
210.498
306.571
413.817
526.965
634.156
723.572
781.558
804.706
800.402
776.289
740.939
695.859
636.091
560.598
469.646
367.931
265.242
165.364
69.8
-20.769
-110.577
-195.769
-266.667
-315.711
-333.057
-319.886
-289.185
-252.734
-223.309
-205.965
-195.505
-188.233
-181.119
-173.259
-167.22
-163.203
-159.568
-154.773
-147.531
-137.836
-126.556
-114.43
-101.998
-89.834
-78.646
-69.126
-61.59
-55.979
-52.01
-49.31
-47.614
-46.714
-46.357
-46.254
-46.148
-45.818
-45.093
-43.89
-42.155
-39.845
-36.952
-33.49
-29.5
-25.068
-20.297
-15.287
-10.131
-4.905
0.329
5.473
10.423
15.083
19.352
23.183
26.568
29.465
31.849
33.767
35.267
36.408
37.275
37.87
38.159
38.206
38.104
37.707
36.844
35.672
34.212
32.456
30.876
28.299
23.582
18.417
13.332
11.409
16.333
24.062
31.907
35.86
30.404
20.454
10.177
2.433
1.937
5.34
9.244
12.898
14.228
14.442
15.089
15.872
16.984
18.314
19.541
20.86
22.425
24.168
26.062
28.112
30.295
32.58
34.942
37.33
39.689
42.01
44.286
46.488
48.595
50.583
52.427
54.107
55.605
56.896
57.956
58.766
59.304
59.553
59.497
59.122
58.416
57.368
55.97
54.216
52.102
49.627
46.792
43.598
40.052
36.16
31.933
27.382
22.52
17.365
11.932
6.241
0.313
-5.829
-12.164
-18.665
-25.306
-32.061
-38.899
-45.793
-52.71
-59.621
-66.493
-73.297
-80
-86.572
-92.983
-99.204
-105.206
-110.962
-116.446
-121.634
-126.504
-131.033
-135.203
-138.998
-142.403
-145.406
-147.996
-150.165
-151.909
-153.222
-154.103
-154.553
-154.575
-154.172
-153.353
-152.127
-150.504
-148.5
-146.129
-143.409
-140.361
-137.004
-133.359
-129.449
-125.298
-120.93
-116.368
-111.639
-106.767
-101.779
-96.7
-91.557
-86.375
-81.18
-75.994
-70.841
-65.743
-60.722
-55.797
-50.988
-46.312
-41.787
-37.43
-33.255
-29.275
-25.502
-21.944
-18.609
-15.5
-12.621
-9.97
-7.544
-5.338
-3.348
-1.569
0.006
1.383
2.57
3.57
4.391
5.041
5.531
5.876
6.093
6.2
6.213
6.156
6.048
5.908
5.754
5.599
5.453
5.33
5.248
5.226
5.294
5.471
5.765
6.188
6.738
7.405
8.168
8.987
9.814
10.621
11.391
12.122
12.835
13.542
14.263
15.021
15.816
16.655
17.552
18.504
19.52
20.635
21.898
23.393
25.225
27.442
30.064
33.082
36.423
40.015
43.761
47.522
51.198
54.701
57.939
60.862
63.413
65.496
67.006
67.801
67.703
66.608
64.455
61.208
56.916
51.647
45.506
38.663
31.254
23.379
15.147
6.622
-2.14
-11.033
-19.948
-28.741
-37.212
-45.208
-52.608
-59.293
-65.215
-70.336
-74.661
-78.273
-81.217
-83.512
-85.198
-86.259
-86.702
-86.602
-85.94
-84.685
-82.948
-80.852
-78.593
-76.506
-74.752
-73.395
-72.831
-73.512
-75.441
-78.29
-81.501
-84.076
-86.538
-90.801
-95.797
-99.522
-98.726
-87.575
-68.556
-49.791
-38.714
-45.791
-71.785
-106.764
-142.184
-167.556
-177.111
-173.891
-159.228
-132.767
-93.193
-37.576
34.4
119.283
211.34
305.301
396.401
478.938
547.742
598.336
626.72
631.733
614.394
574.944
514.414
435.716
342.104
238.235
129.873
21.131
-84.555
-182.725
-269.403
-341.203
-395.15
-430.596
-448.464
-449.466
-434.888
-406.864
-367.999
-322.163
-273.599
-225.249
-179.495
-138.211
-102.597
-73.889
-52.5
-37.222
-26.31
-18.064
-10.588
-2.839
5.781
16.273
28.899
43.045
57.897
72.234
84.675
94.638
101.836
105.823
106.609
104.441
99.651
92.941
85.059
76.414
67.317
58.097
49.005
40.342
32.348
25.076
18.521
12.689
7.604
3.302
-0.22
-3.025
-5.203
-6.827
-7.935
-8.549
-8.721
-8.536
-8.127
-7.64
-7.161
-6.741
-6.417
-6.199
-6.095
-6.101
-6.168
-6.232
-6.237
-6.137
-5.901
-5.514
-4.944
-4.15
-3.085
-1.693
0.06
2.189
4.71
7.624
10.924
14.598
18.616
22.932
27.511
32.317
37.319
42.488
47.791
53.187
58.643
64.117
69.572
74.973
80.283
85.466
90.488
95.321
99.935
104.307
108.416
112.236
115.747
118.927
121.758
124.225
126.314
128.012
129.313
130.209
130.698
130.783
130.465
129.752
128.65
127.172
125.33
123.139
120.616
117.78
114.65
111.249
107.597
103.718
99.636
95.376
90.961
86.418
81.77
77.042
72.258
67.44
62.612
57.792
53.002
48.258
43.578
38.977
34.468
30.065
25.778
21.616
17.588
13.698
9.951
6.352
2.903
-0.398
-3.548
-6.551
-9.409
-12.124
-14.7
-17.144
-19.459
-21.651
-23.727
-25.692
-27.554
-29.32
-30.995
-32.587
-34.102
-35.546
-36.926
-38.245
-39.509
-40.721
-41.883
-42.998
-44.068
-45.094
-46.076
-47.014
-47.909
-48.761
-49.569
-50.333
-51.052
-51.726
-52.353
-52.933
-53.464
-53.946
-54.379
-54.761
-55.092
-55.373
-55.602
-55.78
-55.908
-55.984
-56.011
-55.987
-55.913
-55.791
-55.621
-55.405
-55.146
-54.846
-54.509
-54.139
-53.74
-53.316
-52.872
-52.411
-51.937
-51.454
-50.964
-50.471
-49.976
-49.482
-48.99
-48.502
-48.02
-47.543
-47.072
-46.606
-46.144
-45.686
-45.229
-44.771
-44.31
-43.844
-43.371
-42.888
-42.394
-41.888
-41.365
-40.822
-40.258
-39.668
-39.048
-38.395
-37.703
-36.969
-36.19
-35.362
-34.484
-33.555
-32.571
-31.532
-30.439
-29.292
-28.093
-26.845
-25.55
-24.21
-22.832
-21.421
-19.986
-18.534
-17.072
-15.607
-14.153
-12.724
-11.337
-10.006
-8.744
-7.565
-6.484
-5.514
-4.666
-3.944
-3.35
-2.888
-2.565
-2.396
-2.39
-2.545
-2.871
-3.386
-4.098
-5.015
-6.124
-7.389
-8.8
-10.396
-12.163
-14.033
-15.955
-17.876
-19.796
-21.805
-23.906
-25.941
-27.964
-30.337
-33.142
-36.276
-39.777
-43.153
-47.067
-53.836
-62.866
-71.93
-77.357
-72.151
-56.656
-37.869
-22.935
-21.972
-35.865
-55.301
-72.962
-81.236
-78.757
-72.244
-65.499
-60.651
-58.203
-55.647
-52.264
-48.448
-44.407
-40.871
-38.435
-37.797
-39.786
-44.889
-53.203
-64.821
-79.834
-98.032
-119.021
-141.91
-163.455
-180.149
-190.644
-192.169
-185.423
-172.155
-146.298
-104.338
-42.768
42.235
141.861
246.838
349.674
441.099
519.795
584.927
633.675
665.569
678.658
672.338
648.208
607.38
551.613
483.295
404.764
318.933
228.865
136.758
44.679
-44.442
-127.282
-200.592
-261.604
-309.178
-343.447
-364.454
-372.566
-369.362
-357.017
-338.215
-315.822
-291.077
-264.3
-236.162
-207.29
-178.075
-149.197
-121.144
-94.067
-69.209
-48.022
-31.334
-19.714
-13.131
-10.653
-11.073
-13.457
-16.52
-19.136
-20.645
-20.498
-18.611
-15.568
-12.235
-9.221
-6.978
-5.681
-5.232
-5.582
-6.603
-7.932
-9.055
-9.573
-9.221
-7.921
-5.78
-2.888
0.693
4.86
9.468
14.355
19.334
24.246
29.018
33.61
37.989
42.13
45.994
49.546
52.776
55.697
58.318
60.646
62.696
64.464
65.952
67.198
68.25
69.168
70.043
70.936
71.86
72.88
74.099
75.558
77.321
79.424
81.75
84.196
86.812
89.441
91.711
93.632
95.33
96.64
98.029
99.148
97.83
94.41
90.981
90.517
100.069
121.608
148.309
171.619
179.052
163.363
133.254
102.007
83.298
87.739
109.846
136.763
158.903
168.076
165.321
158.448
151.511
147.324
146.436
146.043
145.203
144.126
142.643
141.161
139.816
138.23
136.273
133.983
131.296
128.185
124.7
120.876
116.753
112.407
107.866
103.117
98.172
93.05
87.761
82.321
76.743
71.034
65.208
59.288
53.288
47.221
41.103
34.944
28.765
22.586
16.417
10.269
4.167
-1.87
-7.817
-13.64
-19.353
-24.977
-30.492
-35.885
-41.175
-46.364
-51.489
-56.601
-61.614
-66.422
-71.026
-75.444
-79.534
-83.161
-86.402
-89.166
-91.601
-94.363
-96.14
-95.801
-95.016
-93.791
-96.422
-107.757
-122.019
-136.017
-142.488
-132.044
-113.878
-94.985
-82.524
-87.099
-100.117
-113.75
-124.175
-124.266
-118.858
-113.17
-107.744
-105.037
-103.647
-101.593
-99.408
-97.047
-94.582
-92.353
-90.169
-87.859
-85.483
-83.061
-80.555
-77.95
-75.284
-72.592
-69.913
-67.298
-64.745
-62.246
-59.823
-57.488
-55.249
-53.116
-51.092
-49.177
-47.38
-45.706
-44.16
-42.743
-41.457
-40.301
-39.275
-38.375
-37.6
-36.943
-36.399
-35.96
-35.619
-35.366
-35.19
-35.08
-35.024
-35.012
-35.03
-35.064
-35.101
-35.127
-35.128
-35.091
-35.001
-34.845
-34.61
-34.284
-33.856
-33.317
-32.657
-31.868
-30.945
-29.882
-28.676
-27.326
-25.83
-24.19
-22.409
-20.491
-18.443
-16.275
-13.997
-11.622
-9.17
-6.658
-4.106
-1.536
1.029
3.567
6.052
8.462
10.778
12.977
15.037
16.937
18.65
20.152
21.422
22.439
23.186
23.645
23.8
23.64
23.164
22.37
21.254
19.805
18.002
15.829
13.286
10.374
7.101
3.482
-0.465
-4.705
-9.182
-13.84
-18.624
-23.487
-28.398
-33.313
-38.173
-42.904
-47.419
-51.641
-55.521
-59.021
-62.109
-64.769
-67.013
-68.886
-70.464
-71.838
-73.102
-74.348
-75.685
-77.24
-79.134
-81.536
-84.679
-88.694
-93.552
-99.064
-104.826
-110.383
-115.357
-119.286
-121.569
-121.816
-120.048
-116.833
-113.29
-110.648
-109.906
-111.707
-116.648
-125.178
-136.705
-149.399
-160.835
-166.492
-161.827
-145.19
-113.686
-68.525
-14.26
50.822
127.174
219.005
333.806
465.2
599.213
715.025
789.432
814.684
795.827
746.642
682.16
608.819
527.089
433.99
328.827
215.909
101.087
-8.478
-106.562
-189.478
-254.982
-302.624
-333.564
-349.485
-352.019
-343.614
-327.633
-307.593
-287.03
-268.2
-251.718
-237.716
-226.241
-216.917
-209.001
-201.33
-192.359
-181.369
-168.585
-154.484
-139.687
-124.743
-110.044
-96.175
-83.897
-73.593
-65.277
-58.765
-53.665
-49.646
-46.501
-43.97
-41.732
-39.512
-37.054
-34.16
-30.759
-26.811
-22.286
-17.182
-11.508
-5.302
1.347
8.328
15.534
22.862
30.222
37.531
44.693
51.606
58.173
64.304
69.945
75.068
79.656
83.705
87.22
90.218
92.733
94.81
96.49
97.804
98.784
99.459
99.861
100.03
100.001
99.809
99.484
99.054
98.546
97.984
97.391
96.787
96.188
95.607
95.06
94.563
94.13
93.776
93.514
93.352
93.298
93.36
93.54
93.839
94.254
94.782
95.414
96.145
96.964
97.86
98.822
99.836
100.889
101.966
103.051
104.129
105.185
106.202
107.164
108.054
108.858
109.56
110.145
110.6
110.91
111.065
111.052
110.863
110.489
109.922
109.157
108.189
107.016
105.635
104.047
102.254
100.26
98.071
95.694
93.136
90.407
87.519
84.481
81.306
78.006
74.593
71.082
67.485
63.815
60.085
56.31
52.503
48.677
44.844
41.018
37.21
33.432
29.696
26.012
22.388
18.836
15.363
11.977
8.686
5.496
2.412
-0.56
-3.417
-6.156
-8.775
-11.273
-13.65
-15.906
-18.042
-20.059
-21.96
-23.746
-25.421
-26.985
-28.443
-29.797
-31.051
-32.208
-33.272
-34.246
-35.136
-35.944
-36.676
-37.334
-37.924
-38.451
-38.917
-39.33
-39.693
-40.012
-40.292
-40.54
-40.76
-40.957
-41.139
-41.308
-41.472
-41.634
-41.799
-41.972
-42.159
-42.363
-42.591
-42.846
-43.135
-43.463
-43.834
-44.253
-44.725
-45.255
-45.847
-46.505
-47.235
-48.038
-48.92
-49.882
-50.928
-52.059
-53.276
-54.579
-55.968
-57.439
-58.992
-60.622
-62.326
-64.098
-65.934
-67.826
-69.77
-71.757
-73.78
-75.829
-77.892
-79.96
-82.027
-84.086
-86.127
-88.137
-90.099
-92.001
-93.847
-95.616
-97.273
-98.786
-100.12
-101.262
-102.237
-103.041
-103.624
-104.001
-104.249
-104.427
-104.604
-104.786
-104.861
-104.791
-104.69
-104.452
-103.661
-102.211
-100.239
-97.697
-95.018
-91.467
-84.428
-74.314
-63.615
-56.167
-59.427
-73.408
-90.555
-103.496
-101.732
-84.008
-60.424
-38.833
-27.522
-28.442
-34.115
-39.805
-42.471
-40.992
-38.424
-36.284
-34.455
-33.077
-31.718
-30.238
-29.052
-28.303
-27.925
-27.94
-28.395
-29.287
-30.601
-32.3
-34.305
-36.572
-39.111
-41.89
-44.837
-47.892
-50.989
-54.079
-57.137
-60.105
-62.905
-65.459
-67.671
-69.479
-70.848
-71.743
-72.153
-72.108
-71.66
-70.907
-69.988
-69.031
-68.182
-67.597
-67.421
-67.843
-69.029
-71.178
-74.56
-79.238
-85.104
-91.919
-99.199
-106.457
-113.368
-119.354
-123.643
-126.024
-126.659
-126.138
-125.687
-126.038
-127.314
-129.988
-134.641
-140.912
-147.64
-152.529
-152.123
-143.897
-126.385
-97.64
-55.531
0.959
71.516
153.652
242.755
334.745
426.307
512.892
588.915
649.072
688.82
705.969
700.882
673.751
624.534
555.005
468.629
370.144
265.174
158.083
51.847
-49.75
-142.451
-222.975
-288.969
-339.867
-376.592
-399.614
-409.458
-407.838
-397.157
-379.987
-358.945
-335.598
-310.936
-286.465
-263.185
-241.455
-221.419
-202.928
-185.821
-170.234
-155.951
-142.174
-128.608
-115.249
-102.057
-89.073
-76.081
-62.927
-50.105
-38.565
-28.89
-21.284
-15.762
-12.223
-10.755
-11.361
-13.612
-16.74
-20.056
-23.156
-25.859
-28.124
-29.841
-30.827
-30.962
-30.265
-28.813
-26.672
-23.881
-20.426
-16.317
-11.665
-6.638
-1.44
3.726
8.744
13.551
18.092
22.331
26.229
29.74
32.862
35.623
38.036
40.118
41.88
43.323
44.49
45.455
46.298
47.108
47.944
48.838
49.82
50.913
52.134
53.497
54.999
56.623
58.363
60.22
62.192
64.286
66.493
68.796
71.178
73.619
76.1
78.605
81.117
83.617
86.088
88.517
90.892
93.203
95.438
97.579
99.612
101.517
103.28
104.884
106.313
107.552
108.587
109.408
110.005
110.371
110.502
110.392
110.038
109.439
108.594
107.504
106.172
104.6
102.793
100.757
98.5
96.031
93.361
90.5
87.461
84.256
80.9
77.405
73.787
70.059
66.238
62.338
58.377
54.369
50.332
46.282
42.234
38.203
34.204
30.25
26.352
22.522
18.77
15.105
11.535
8.067
4.708
1.463
-1.663
-4.667
-7.546
-10.299
-12.925
-15.424
-17.798
-20.048
-22.177
-24.188
-26.086
-27.873
-29.555
-31.138
-32.628
-34.031
-35.353
-36.604
-37.789
-38.917
-39.996
-41.033
-42.035
-43.01
-43.963
-44.9
-45.827
-46.749
-47.671
-48.596
-49.529
-50.472
-51.426
-52.395
-53.379
-54.378
-55.391
-56.418
-57.457
-58.506
-59.563
-60.624
-61.686
-62.747
-63.801
-64.845
-65.873
-66.882
-67.864
-68.815
-69.728
-70.598
-71.418
-72.183
-72.886
-73.523
-74.087
-74.575
-74.982
-75.303
-75.535
-75.673
-75.715
-75.659
-75.501
-75.241
-74.877
-74.409
-73.837
-73.161
-72.382
-71.503
-70.524
-69.447
-68.275
-67.009
-65.652
-64.206
-62.673
-61.055
-59.355
-57.577
-55.724
-53.799
-51.804
-49.744
-47.621
-45.438
-43.2
-40.909
-38.568
-36.18
-33.749
-31.278
-28.771
-26.231
-23.662
-21.068
-18.451
-15.816
-13.167
-10.506
-7.838
-5.165
-2.492
0.176
2.835
5.479
8.101
10.692
13.241
15.736
18.166
20.519
22.783
24.946
26.996
28.924
30.725
32.392
33.919
35.294
36.509
37.555
38.426
39.118
39.625
39.941
40.063
39.993
39.737
39.298
38.671
37.842
36.789
35.496
33.96
32.186
30.177
27.947
25.513
22.914
20.209
17.458
14.709
12.003
9.369
6.855
4.523
2.448
0.7
-0.671
-1.639
-2.202
-2.365
-2.167
-1.668
-0.957
-0.183
0.491
0.903
0.886
0.283
-1.049
-3.31
-6.771
-11.561
-17.637
-24.764
-32.456
-40.227
-47.719
-54.465
-59.818
-63.408
-65.333
-66.199
-67.254
-69.697
-74.107
-80.911
-90.646
-103.2
-117.442
-131.268
-141.314
-143.981
-136.832
-117.816
-84.569
-35.779
28.318
106.118
193.699
285.895
378.638
467.751
547.391
612.11
657.61
680.015
679.428
659.25
619.148
558.438
476.939
371.282
247.048
117.37
-6.15
-109.26
-187.128
-246.922
-295.039
-338.694
-379.337
-410.695
-428.912
-432.077
-421.935
-403.426
-379.186
-351.259
-321.169
-289.486
-257.944
-228.07
-200.046
-174.6
-152.781
-134.544
-119.941
-108.598
-99.013
-90.379
-82.545
-74.864
-66.655
-57.835
-48.338
-38.637
-29.94
-22.795
-17.327
-13.779
-12.187
-12.4
-14.192
-16.979
-19.918
-22.511
-24.49
-25.64
-25.859
-25.03
-23.063
-20.004
-16.002
-11.177
-5.596
0.678
7.567
14.93
22.563
30.258
37.874
45.317
52.511
59.398
65.912
72.002
77.666
82.923
87.784
92.262
96.364
100.101
103.518
106.673
109.635
112.482
115.273
118.045
120.831
123.655
126.532
129.474
132.478
135.529
138.622
141.755
144.927
148.142
151.392
154.662
157.941
161.212
164.458
167.666
170.819
173.904
176.907
179.816
182.621
185.312
187.878
190.303
192.574
194.672
196.581
198.287
199.774
201.025
202.028
202.77
203.241
203.431
203.334
202.942
202.249
201.253
199.951
198.341
196.425
194.203
191.681
188.863
185.755
182.365
178.703
174.778
170.604
166.193
161.558
156.714
151.678
146.464
141.092
135.577
129.939
124.194
118.362
112.46
106.507
100.52
94.516
88.512
82.524
76.566
70.655
64.802
59.022
53.326
47.726
42.233
36.855
31.602
26.481
21.5
16.665
11.981
7.454
3.087
-1.116
-5.154
-9.024
-12.725
-16.257
-19.62
-22.815
-25.842
-28.703
-31.399
-33.934
-36.308
-38.524
-40.585
-42.495
-44.256
-45.873
-47.348
-48.688
-49.896
-50.978
-51.938
-52.783
-53.517
-54.147
-54.679
-55.119
-55.473
-55.749
-55.952
-56.089
-56.168
-56.196
-56.178
-56.123
-56.037
-55.926
-55.799
-55.661
-55.52
-55.381
-55.253
-55.141
-55.051
-54.988
-54.959
-54.968
-55.019
-55.115
-55.259
-55.452
-55.696
-55.991
-56.335
-56.727
-57.163
-57.641
-58.155
-58.702
-59.274
-59.867
-60.474
-61.087
-61.699
-62.302
-62.887
-63.447
-63.972
-64.453
-64.88
-65.244
-65.536
-65.747
-65.868
-65.892
-65.81
-65.617
-65.306
-64.873
-64.312
-63.622
-62.801
-61.848
-60.766
-59.556
-58.223
-56.774
-55.215
-53.555
-51.806
-49.979
-48.086
-46.14
-44.156
-42.149
-40.136
-38.133
-36.157
-34.227
-32.361
-30.58
-28.907
-27.364
-25.971
-24.749
-23.721
-22.904
-22.316
-21.971
-21.877
-22.045
-22.482
-23.196
-24.193
-25.478
-27.055
-28.925
-31.088
-33.538
-36.266
-39.26
-42.497
-45.959
-49.628
-53.489
-57.535
-61.758
-66.137
-70.65
-75.27
-79.952
-84.647
-89.295
-93.814
-98.139
-102.201
-105.938
-109.31
-112.268
-114.765
-116.765
-118.214
-119.055
-119.272
-118.852
-117.807
-116.21
-114.132
-111.67
-108.972
-106.143
-103.306
-100.611
-98.17
-96.102
-94.508
-93.412
-92.907
-93.157
-94.137
-95.687
-97.453
-98.82
-99.372
-98.79
-96.515
-92.064
-85.296
-76.38
-66.165
-55.827
-45.879
-37.004
-30.312
-26.095
-24.264
-22.853
-17.395
-5.725
12.417
35.665
60.039
88.097
126.744
181.587
258.649
352.554
448.952
536.189
604.342
652.347
686.407
706.855
705.535
670.102
588.6
459.245
297.497
126.756
-28.683
-150.467
-234.677
-287.439
-321.121
-347.223
-370.101
-388.644
-397.007
-391.599
-374.322
-349.17
-321.216
-293.637
-266.868
-240.951
-216.361
-193.477
-172.307
-153.009
-136.014
-121.729
-110.555
-102.278
-95.789
-90.319
-85.684
-81.531
-77.386
-72.943
-67.931
-62.622
-57.981
-54.59
-52.563
-51.996
-52.805
-54.759
-57.713
-61.288
-64.811
-67.872
-70.24
-71.707
-72.218
-71.748
-70.245
-67.777
-64.493
-60.486
-55.872
-50.788
-45.377
-39.852
-34.386
-29.084
-24.028
-19.263
-14.83
-10.782
-7.149
-3.918
-1.078
1.379
3.461
5.167
6.523
7.587
8.436
9.161
9.834
10.505
11.221
12.019
12.93
13.982
15.191
16.555
18.085
19.798
21.713
23.852
26.232
28.859
31.735
34.862
38.238
41.864
45.737
49.852
54.204
58.789
63.605
68.649
73.913
79.386
85.053
90.895
96.893
103.025
109.266
115.59
121.97
128.377
134.784
141.163
147.482
153.712
159.821
165.779
171.553
177.111
182.423
187.456
192.18
196.566
200.586
204.213
207.424
210.195
212.509
214.346
215.694
216.539
216.871
216.682
215.968
214.727
212.959
210.668
207.86
204.543
200.728
196.431
191.665
186.45
180.805
174.751
168.313
161.514
154.383
146.948
139.239
131.286
123.122
114.781
106.296
97.701
89.029
80.314
71.589
62.887
54.238
45.673
37.221
28.909
20.764
12.81
5.07
-2.436
-9.687
-16.668
-23.361
-29.755
-35.836
-41.594
-47.023
-52.114
-56.864
-61.271
-65.332
-69.05
-72.426
-75.466
-78.176
-80.564
-82.639
-84.411
-85.892
-87.094
-88.031
-88.717
-89.167
-89.396
-89.419
-89.253
-88.912
-88.414
-87.773
-87.005
-86.124
-85.147
-84.086
-82.956
-81.77
-80.543
-79.285
-78.011
-76.732
-75.458
-74.201
-72.968
-71.769
-70.612
-69.501
-68.443
-67.442
-66.503
-65.627
-64.817
-64.075
-63.401
-62.796
-62.258
-61.785
-61.376
-61.027
-60.734
-60.492
-60.296
-60.142
-60.023
-59.934
-59.868
-59.82
-59.78
-59.743
-59.7
-59.643
-59.564
-59.454
-59.305
-59.11
-58.863
-58.558
-58.19
-57.753
-57.246
-56.665
-56.009
-55.277
-54.468
-53.582
-52.62
-51.585
-50.48
-49.311
-48.082
-46.804
-45.487
-44.145
-42.789
-41.434
-40.093
-38.781
-37.513
-36.302
-35.16
-34.099
-33.133
-32.277
-31.55
-30.97
-30.55
-30.305
-30.246
-30.385
-30.731
-31.285
-32.043
-33.006
-34.175
-35.562
-37.187
-39.061
-41.185
-43.558
-46.17
-49.002
-52.031
-55.217
-58.496
-61.818
-65.129
-68.39
-71.575
-74.636
-77.511
-80.134
-82.423
-84.319
-85.788
-86.788
-87.309
-87.377
-87.036
-86.368
-85.487
-84.486
-83.478
-82.602
-81.97
-81.728
-82.007
-82.97
-84.867
-87.794
-91.668
-96.239
-101.061
-105.721
-109.934
-113.203
-114.844
-114.638
-112.789
-110.055
-107.659
-106.136
-105.77
-107.326
-111.299
-117.69
-124.719
-127.691
-123.345
-110.913
-91.83
-71.632
-50.219
-20.839
24.102
97.106
202.351
329.48
463.37
579.738
657.722
693.721
693.469
671.872
643.975
612.77
573.728
519.884
447.382
358.682
260.049
157.775
55.683
-42.873
-134.005
-214.362
-280.941
-332.364
-369.229
-392.095
-401.53
-399.347
-388.312
-371.789
-353.251
-334.693
-316.743
-299.9
-284.434
-270.14
-256.378
-241.88
-225.231
-205.935
-184.33
-161.007
-136.726
-112.212
-88.182
-65.617
-45.574
-28.68
-15.146
-4.902
2.315
6.742
8.543
7.969
5.4
1.229
-4.156
-10.409
-17.273
-24.481
-31.701
-38.563
-44.727
-49.948
-54.089
-57.095
-58.928
-59.56
-58.993
-57.27
-54.499
-50.82
-46.371
-41.279
-35.663
-29.65
-23.406
-17.126
-10.974
-5.059
0.556
5.842
10.775
15.329
19.503
23.327
26.845
30.103
33.138
35.972
38.636
41.173
43.635
46.087
48.573
51.116
53.728
56.411
59.167
61.992
64.874
67.786
70.701
73.602
76.473
79.306
82.086
84.795
87.413
89.919
92.299
94.54
96.63
98.557
100.311
101.886
103.277
104.483
105.502
106.33
106.965
107.402
107.639
107.675
107.51
107.144
106.579
105.819
104.868
103.734
102.425
100.947
99.309
97.52
95.588
93.524
91.336
89.034
86.627
84.127
81.544
78.888
76.17
73.4
70.587
67.741
64.871
61.987
59.095
56.203
53.319
50.451
47.605
44.789
42.007
39.267
36.574
33.932
31.347
28.821
26.356
23.956
21.623
19.358
17.163
15.04
12.991
11.017
9.119
7.3
5.561
3.902
2.324
0.829
-0.585
-1.915
-3.162
-4.325
-5.404
-6.399
-7.31
-8.137
-8.882
-9.547
-10.133
-10.643
-11.082
-11.453
-11.76
-12.007
-12.199
-12.342
-12.44
-12.498
-12.523
-12.521
-12.498
-12.463
-12.423
-12.387
-12.361
-12.355
-12.375
-12.431
-12.529
-12.676
-12.881
-13.148
-13.486
-13.899
-14.394
-14.976
-15.648
-16.412
-17.27
-18.223
-19.268
-20.403
-21.623
-22.924
-24.3
-25.743
-27.245
-28.799
-30.394
-32.02
-33.664
-35.316
-36.96
-38.583
-40.17
-41.704
-43.17
-44.552
-45.833
-47
-48.036
-48.927
-49.658
-50.216
-50.586
-50.758
-50.718
-50.458
-49.968
-49.243
-48.277
-47.071
-45.622
-43.935
-42.015
-39.868
-37.505
-34.936
-32.173
-29.231
-26.126
-22.877
-19.503
-16.027
-12.472
-8.865
-5.236
-1.616
1.961
5.464
8.86
12.116
15.2
18.079
20.727
23.119
25.229
27.03
28.496
29.601
30.326
30.653
30.566
30.051
29.101
27.713
25.893
23.648
20.985
17.907
14.412
10.495
6.158
1.415
-3.714
-9.204
-15.018
-21.112
-27.426
-33.88
-40.4
-46.921
-53.378
-59.713
-65.851
-71.709
-77.205
-82.258
-86.796
-90.768
-94.148
-96.92
-99.1
-100.723
-101.839
-102.547
-102.95
-103.162
-103.323
-103.589
-104.117
-105.104
-106.768
-109.197
-112.387
-116.155
-120.043
-123.617
-126.52
-128.248
-128.32
-126.541
-122.818
-117.853
-113.21
-109.815
-108.314
-108.559
-108.766
-108.788
-109.541
-111.884
-118.737
-127.45
-129.655
-116.995
-78.123
-10.891
75.14
170.568
263.561
348.101
427.76
502.886
571.091
628.782
669.271
688.591
686.716
663.468
618.463
552.468
467.784
368.223
258.899
145.064
30.529
-80.576
-182.7
-270.776
-341.082
-391.71
-423.001
-436.502
-433.275
-414.934
-385.136
-348.422
-309.537
-272.328
-238.676
-209.391
-185.647
-168.62
-158.047
-152.484
-149.531
-146.742
-143.036
-138.178
-131.71
-122.877
-111.453
-97.913
-83.565
-70.188
-58.772
-49.551
-42.649
-38.209
-36.254
-36.62
-38.699
-41.463
-44.196
-46.574
-48.429
-49.752
-50.505
-50.554
-49.867
-48.509
-46.494
-43.831
-40.523
-36.514
-31.835
-26.6
-20.962
-15.146
-9.35
-3.691
1.755
6.949
11.879
16.517
20.847
24.88
28.607
32.021
35.119
37.878
40.308
42.443
44.338
46.08
47.749
49.395
51.053
52.748
54.487
56.282
58.133
60.027
61.955
63.917
65.914
67.955
70.042
72.17
74.328
76.502
78.673
80.827
82.95
85.027
87.046
88.996
90.869
92.662
94.368
95.981
97.491
98.889
100.163
101.305
102.306
103.156
103.846
104.372
104.727
104.909
104.916
104.747
104.402
103.881
103.187
102.324
101.293
100.101
98.752
97.252
95.609
93.832
91.928
89.908
87.783
85.562
83.257
80.879
78.441
75.952
73.422
70.864
68.287
65.7
63.115
60.54
57.984
55.456
52.963
50.512
48.109
45.759
43.466
41.235
39.067
36.967
34.935
32.973
31.083
29.263
27.515
25.838
24.231
22.691
21.216
19.804
18.451
17.155
15.91
14.713
13.559
12.443
11.362
10.309
9.279
8.269
7.273
6.286
5.306
4.326
3.344
2.356
1.358
0.347
-0.681
-1.727
-2.795
-3.888
-5.009
-6.161
-7.344
-8.561
-9.815
-11.106
-12.436
-13.804
-15.211
-16.656
-18.138
-19.656
-21.206
-22.785
-24.389
-26.013
-27.653
-29.301
-30.952
-32.598
-34.233
-35.847
-37.434
-38.985
-40.492
-41.945
-43.336
-44.654
-45.892
-47.039
-48.086
-49.022
-49.838
-50.524
-51.071
-51.47
-51.71
-51.783
-51.681
-51.396
-50.921
-50.253
-49.385
-48.313
-47.038
-45.557
-43.872
-41.985
-39.9
-37.622
-35.156
-32.512
-29.7
-26.729
-23.611
-20.359
-16.99
-13.519
-9.963
-6.342
-2.672
1.025
4.729
8.416
12.065
15.653
19.155
22.546
25.798
28.882
31.773
34.444
36.868
39.023
40.884
42.43
43.649
44.525
45.045
45.194
44.957
44.326
43.295
41.861
40.02
37.774
35.125
32.088
28.682
24.925
20.831
16.407
11.655
6.587
1.227
-4.398
-10.257
-16.31
-22.518
-28.82
-35.138
-41.403
-47.554
-53.541
-59.328
-64.855
-70.05
-74.836
-79.132
-82.889
-86.074
-88.649
-90.605
-91.961
-92.758
-93.076
-93.005
-92.624
-92.028
-91.327
-90.638
-90.112
-89.873
-90.089
-91.001
-92.672
-95.023
-97.826
-100.593
-102.896
-104.473
-104.916
-103.689
-100.577
-95.727
-89.831
-84.182
-79.67
-76.568
-75.051
-75.384
-77.678
-81.314
-84.418
-84.026
-77.517
-63.302
-40.394
-7.53
36.976
93.823
161.839
237.927
318.155
399.335
478.913
553.141
616.75
664.578
692.544
698.781
683.354
645.937
585.78
504.013
404.022
290.93
170.952
49.039
-71.287
-185.667
-289.001
-376.966
-446.47
-496.902
-529.809
-546.296
-547.019
-533.477
-507.957
-473.788
-434.79
-393.126
-349.764
-306.106
-263.842
-224.992
-191.395
-163.282
-139.927
-121.242
-107.206
-97.526
-91.536
-87.444
-83.44
-78.888
-73.704
-67.864
-61.529
-54.766
-47.936
-42.211
-38.547
-37.254
-38.316
-41.332
-45.825
-51.462
-57.705
-63.755
-68.976
-72.969
-75.545
-76.762
-76.69
-75.343
-72.805
-69.21
-64.711
-59.462
-53.585
-47.181
-40.364
-33.28
-26.117
-19.043
-12.189
-5.652
0.522
6.308
11.682
16.64
21.204
25.397
29.264
32.844
36.163
39.259
42.176
44.966
47.698
50.427
53.183
55.99
58.855
61.777
64.757
67.785
70.839
73.899
76.947
79.968
82.954
85.896
88.775
91.576
94.277
96.863
99.324
101.647
103.822
105.84
107.694
109.379
110.893
112.235
113.398
114.378
115.169
115.767
116.17
116.374
116.377
116.179
115.781
115.185
114.398
113.424
112.269
110.939
109.441
107.784
105.975
104.023
101.937
99.724
97.395
94.959
92.425
89.803
87.102
84.331
81.499
78.617
75.692
72.733
69.75
66.75
63.741
60.734
57.734
54.75
51.79
48.859
45.966
43.115
40.312
37.561
34.866
32.231
29.659
27.152
24.712
22.343
20.046
17.823
15.677
13.608
11.621
9.715
7.893
6.156
4.505
2.942
1.467
0.081
-1.217
-2.426
-3.546
-4.58
-5.528
-6.393
-7.178
-7.885
-8.518
-9.082
-9.581
-10.02
-10.404
-10.738
-11.028
-11.279
-11.498
-11.689
-11.861
-12.019
-12.171
-12.323
-12.483
-12.658
-12.856
-13.083
-13.347
-13.654
-14.009
-14.42
-14.891
-15.426
-16.031
-16.708
-17.46
-18.288
-19.193
-20.174
-21.23
-22.358
-23.553
-24.811
-26.126
-27.491
-28.901
-30.346
-31.818
-33.308
-34.806
-36.304
-37.789
-39.25
-40.674
-42.05
-43.364
-44.605
-45.76
-46.817
-47.764
-48.59
-49.284
-49.837
-50.238
-50.48
-50.555
-50.454
-50.174
-49.71
-49.06
-48.222
-47.198
-45.991
-44.604
-43.046
-41.322
-39.442
-37.413
-35.247
-32.956
-30.553
-28.052
-25.469
-22.822
-20.132
-17.421
-14.713
-12.031
-9.399
-6.838
-4.372
-2.021
0.196
2.264
4.167
5.886
7.406
8.711
9.791
10.635
11.235
11.584
11.681
11.527
11.124
10.476
9.585
8.449
7.062
5.417
3.51
1.347
-1.068
-3.727
-6.611
-9.697
-12.947
-16.308
-19.733
-23.173
-26.568
-29.861
-32.979
-35.851
-38.412
-40.597
-42.359
-43.653
-44.446
-44.712
-44.438
-43.637
-42.367
-40.738
-38.873
-36.928
-35.059
-33.473
-32.468
-32.23
-32.787
-33.984
-35.428
-36.763
-37.775
-38.183
-37.547
-35.65
-32.705
-29.506
-27.53
-28.037
-31.628
-38.605
-49.222
-63.456
-80.423
-97.893
-112.26
-119.874
-118.092
-105.187
-79.716
-40.154
14.003
81.396
158.684
241.389
325.4
407.591
484.856
553.001
607.935
646.484
666.85
669.072
653.658
620.374
569.091
501.307
419.757
328.307
231.246
131.829
33.021
-61.301
-146.525
-218.519
-274.4
-313.264
-335.595
-342.007
-333.302
-311.048
-278.299
-239.209
-197.783
-156.997
-119.06
-85.576
-57.948
-37.591
-24.702
-18.048
-15.949
-16.632
-18.318
-20.005
-20.915
-19.906
-16.535
-11.164
-4.443
2.546
8.574
13.155
16.127
17.191
16.464
14.256
10.886
6.988
3.253
-0.006
-2.638
-4.511
-5.659
-6.043
-5.556
-4.267
-2.285
0.358
3.589
7.323
11.482
15.887
20.32
24.706
29.03
33.083
36.658
39.867
42.698
45.11
47.499
48.721
47.659
45.876
43.86
44.518
51.346
60.591
69.77
75.151
71.574
63.652
55.284
49.135
49.597
53.516
57.698
61.438
62.8
62.919
63.248
63.512
63.889
64.278
64.378
64.372
64.408
64.431
64.427
64.417
64.4
64.368
64.317
64.219
64.041
63.792
63.484
63.107
62.658
62.129
61.516
60.816
60.032
59.157
58.185
57.114
55.939
54.658
53.27
51.773
50.166
48.446
46.615
44.672
42.619
40.455
38.183
35.804
33.32
30.733
28.046
25.261
22.38
19.405
16.339
13.184
9.944
6.621
3.219
-0.256
-3.8
-7.406
-11.068
-14.778
-18.53
-22.314
-26.123
-29.949
-33.781
-37.613
-41.434
-45.237
-49.012
-52.751
-56.446
-60.089
-63.67
-67.182
-70.617
-73.966
-77.221
-80.374
-83.417
-86.342
-89.141
-91.805
-94.327
-96.699
-98.914
-100.964
-102.844
-104.547
-106.069
-107.406
-108.555
-109.515
-110.285
-110.865
-111.258
-111.466
-111.491
-111.339
-111.013
-110.518
-109.861
-109.047
-108.083
-106.977
-105.737
-104.372
-102.891
-101.303
-99.617
-97.845
-95.996
-94.082
-92.112
-90.099
-88.053
-85.987
-83.912
-81.84
-79.783
-77.751
-75.754
-73.801
-71.901
-70.061
-68.287
-66.584
-64.955
-63.404
-61.934
-60.546
-59.24
-58.017
-56.875
-55.813
-54.826
-53.912
-53.065
-52.278
-51.547
-50.862
-50.219
-49.609
-49.023
-48.453
-47.891
-47.327
-46.75
-46.153
-45.525
-44.857
-44.14
-43.365
-42.523
-41.607
-40.61
-39.528
-38.357
-37.096
-35.743
-34.298
-32.763
-31.143
-29.444
-27.669
-25.823
-23.912
-21.946
-19.943
-17.923
-15.902
-13.896
-11.923
-10.002
-8.157
-6.413
-4.773
-3.257
-1.901
-0.733
0.207
0.893
1.324
1.492
1.387
1.052
0.596
0.097
-0.426
-0.972
-1.61
-2.426
-3.413
-4.741
-6.968
-10.242
-14.198
-18.8
-23.584
-28.971
-37.209
-47.838
-58.447
-65.164
-61.403
-46.706
-26.389
-8.933
-6.44
-22.665
-54.64
-93.93
-125.825
-144.086
-145.438
-130.874
-109.913
-84.84
-60.54
-44.121
-35.605
-40.007
-56.71
-76.867
-95.892
-107.42
-109.495
-108.224
-106.856
-107.662
-111.56
-115.352
-117.287
-117.518
-116.259
-114.912
-115.075
-117.09
-120.895
-126.723
-134.636
-144.126
-154.117
-162.064
-164.283
-158.38
-143.012
-117.1
-79.95
-30.847
30.184
100.934
177.612
256.952
336.149
412.807
484.343
546.728
596.068
629.838
646.421
644.867
624.367
583.648
522.469
442.986
348.529
243.322
132.258
19.632
-89.825
-190.347
-276.839
-345.729
-395.162
-425.456
-438.267
-435.336
-419.395
-394.345
-364.292
-333.218
-303.826
-277.198
-253.686
-233.38
-215.844
-200.173
-185.143
-169.355
-152.247
-134.038
-115.186
-96.356
-78.222
-61.469
-46.917
-35.383
-27.246
-22.462
-20.767
-21.72
-24.914
-29.94
-36.28
-43.34
-50.549
-57.517
-63.993
-69.806
-74.799
-78.752
-81.485
-82.906
-83.002
-81.81
-79.392
-75.81
-71.146
-65.565
-59.274
-52.513
-45.548
-38.552
-31.641
-24.917
-18.454
-12.337
-6.639
-1.378
3.462
7.894
11.929
15.574
18.837
21.768
24.438
26.921
29.302
31.636
33.952
36.282
38.644
41.048
43.502
45.994
48.499
51.005
53.502
55.987
58.456
60.901
63.3
65.63
67.872
70.005
72.015
73.893
75.62
77.174
78.553
79.775
80.854
81.806
82.623
83.26
83.709
83.999
84.094
83.909
83.378
82.428
81.056
79.37
77.396
75.03
72.404
69.925
67.668
65.531
63.581
61.373
59.804
61.356
65.35
69.6
70.243
60.232
40.451
17.892
-0.324
-4.115
6.576
22.367
36.051
39.662
32.292
21.015
10.023
2.354
-1.265
-3.716
-6.207
-8.672
-11.197
-13.348
-15.033
-16.615
-18.219
-19.801
-21.335
-22.807
-24.18
-25.405
-26.483
-27.421
-28.174
-28.711
-29.226
-29.933
-30.716
-31.591
-32.608
-33.332
-34.986
-38.754
-42.951
-47.069
-48.009
-42.062
-33.342
-24.591
-19.89
-24.845
-34.498
-44.646
-52.406
-53.017
-49.877
-46.43
-43.436
-42.991
-43.868
-44.491
-45.152
-45.643
-46.061
-46.716
-47.39
-47.91
-48.322
-48.63
-48.808
-48.854
-48.773
-48.569
-48.266
-47.897
-47.446
-46.897
-46.253
-45.514
-44.679
-43.752
-42.732
-41.616
-40.408
-39.116
-37.744
-36.299
-34.785
-33.21
-31.579
-29.9
-28.18
-26.426
-24.644
-22.843
-21.029
-19.208
-17.39
-15.582
-13.789
-12.018
-10.274
-8.564
-6.89
-5.257
-3.668
-2.124
-0.628
0.82
2.216
3.56
4.852
6.092
7.279
8.414
9.497
10.529
11.512
12.447
13.335
14.176
14.97
15.718
16.417
17.067
17.662
18.197
18.668
19.069
19.395
19.641
19.8
19.868
19.84
19.715
19.487
19.153
18.701
18.124
17.415
16.566
15.574
14.431
13.131
11.673
10.065
8.313
6.419
4.38
2.178
-0.196
-2.737
-5.442
-8.302
-11.299
-14.411
-17.602
-20.811
-23.988
-27.084
-30.067
-32.928
-35.639
-38.158
-40.432
-42.39
-43.987
-45.211
-46.033
-46.426
-46.41
-46.02
-45.35
-44.543
-43.675
-42.809
-42.018
-41.363
-40.962
-40.956
-41.448
-42.582
-44.544
-47.378
-51.025
-55.268
-59.575
-63.379
-66.187
-67.387
-66.361
-62.853
-57.076
-49.782
-42.338
-36.11
-31.962
-30.632
-32.94
-38.985
-47.664
-56.789
-62.961
-62.496
-52.839
-31.75
3.535
54.513
120.859
201.028
290.998
385.513
480.822
571.288
649.826
712.58
755.461
777.793
782.271
765.582
725.079
658.127
562.814
448.09
323.367
197.4
79.257
-29.945
-128.284
-212.206
-280.876
-331.704
-363.677
-378.953
-379.32
-367.399
-347.007
-321.484
-293.762
-266.379
-240.998
-218.182
-197.966
-180.255
-164.482
-149.982
-136.444
-123.277
-109.602
-95.285
-80.658
-65.918
-51.444
-37.466
-23.745
-10.618
0.955
10.528
17.962
23.23
26.651
28.367
28.232
26.548
23.997
21.1
18.346
16.018
14.092
12.663
11.899
11.88
12.661
14.247
16.557
19.557
23.246
27.583
32.513
37.914
43.596
49.387
55.12
60.682
66.023
71.096
75.865
80.303
84.373
88.064
91.395
94.377
97.017
99.333
101.328
103.042
104.549
105.919
107.226
108.524
109.839
111.193
112.606
114.09
115.654
117.297
119.003
120.764
122.582
124.453
126.381
128.356
130.362
132.381
134.393
136.381
138.33
140.226
142.053
143.798
145.453
147.011
148.467
149.815
151.046
152.151
153.122
153.95
154.627
155.149
155.507
155.697
155.716
155.566
155.247
154.761
154.113
153.307
152.348
151.243
149.999
148.625
147.128
145.519
143.808
142.007
140.127
138.181
136.183
134.143
132.074
129.989
127.897
125.81
123.737
121.688
119.671
117.696
115.771
113.903
112.099
110.365
108.708
107.13
105.636
104.228
102.906
101.672
100.526
99.466
98.493
97.605
96.801
96.08
95.44
94.878
94.394
93.984
93.646
93.377
93.177
93.042
92.97
92.961
93.013
93.124
93.294
93.522
93.805
94.143
94.534
94.976
95.468
96.007
96.591
97.22
97.889
98.598
99.344
100.125
100.936
101.774
102.636
103.516
104.409
105.309
106.211
107.107
107.99
108.852
109.688
110.487
111.242
111.945
112.586
113.159
113.654
114.064
114.382
114.6
114.713
114.717
114.607
114.381
114.036
113.572
112.99
112.29
111.476
110.549
109.515
108.378
107.145
105.823
104.421
102.949
101.416
99.836
98.22
96.582
94.936
93.297
91.678
90.096
88.565
87.099
85.714
84.423
83.24
82.178
81.247
80.459
79.822
79.342
79.025
78.874
78.889
79.069
79.411
79.908
80.553
81.339
82.255
83.289
84.427
85.654
86.954
88.308
89.696
91.093
92.475
93.813
95.083
96.255
97.303
98.198
98.915
99.431
99.727
99.781
99.571
99.078
98.284
97.174
95.736
93.961
91.84
89.37
86.554
83.4
79.919
76.119
72.003
67.573
62.828
57.769
52.413
46.771
40.86
34.704
28.336
21.803
15.173
8.503
1.849
-4.732
-11.183
-17.429
-23.391
-28.998
-34.169
-38.842
-42.978
-46.533
-49.486
-51.84
-53.591
-54.789
-55.545
-55.976
-56.233
-56.486
-56.868
-57.593
-58.95
-61.099
-64.058
-67.668
-71.53
-75.267
-78.634
-81.278
-82.702
-82.644
-81.253
-79.224
-77.855
-78.386
-81.481
-87.585
-97.295
-110.722
-126.936
-143.937
-158.377
-166.536
-165.816
-154.084
-128.747
-87.937
-31.243
40.334
123.307
212.812
304.967
395.6
479.015
549.634
602.32
632.625
638.871
620.945
578.151
511.091
422.702
317.136
200.129
78.263
-43.343
-159.771
-265.191
-354.738
-425.135
-474.912
-505.04
-517.865
-515.59
-501.241
-479.008
-453.069
-427.29
-404.093
-384.091
-367.203
-353.267
-341.657
-331.211
-320.498
-307.96
-292.968
-275.943
-257.509
-238.361
-219.203
-200.66
-183.54
-168.803
-156.973
-148.104
-142.094
-138.645
-137.257
-137.517
-139.191
-141.82
-144.904
-148.366
-150.773
-150.895
-150.159
-148.919
-149.879
-156.27
-164.234
-171.254
-173.636
-166.322
-153.875
-140.163
-127.906
-121.603
-118.385
-115.374
-112.053
-106.616
-100.234
-94.382
-88.838
-83.843
-79.337
-75.023
-71.078
-67.648
-64.678
-62.161
-60.085
-58.388
-56.975
-55.749
-54.618
-53.51
-52.413
-51.32
-50.211
-49.076
-47.916
-46.744
-45.576
-44.416
-43.263
-42.108
-40.956
-39.818
-38.712
-37.657
-36.668
-35.758
-34.942
-34.233
-33.646
-33.19
-32.872
-32.696
-32.672
-32.809
-33.119
-33.615
-34.309
-35.212
-36.336
-37.692
-39.288
-41.131
-43.227
-45.576
-48.181
-51.04
-54.151
-57.51
-61.112
-64.948
-69.011
-73.291
-77.776
-82.454
-87.311
-92.332
-97.501
-102.801
-108.213
-113.72
-119.301
-124.938
-130.61
-136.299
-141.983
-147.642
-153.255
-158.802
-164.262
-169.616
-174.843
-179.925
-184.843
-189.581
-194.125
-198.461
-202.577
-206.464
-210.112
-213.515
-216.668
-219.57
-222.217
-224.61
-226.751
-228.644
-230.292
-231.703
-232.884
-233.841
-234.586
-235.127
-235.477
-235.646
-235.647
-235.494
-235.199
-234.778
-234.246
-233.616
-232.906
-232.131
-231.307
-230.448
-229.572
-228.693
-227.825
-226.983
-226.18
-225.428
-224.737
-224.118
-223.579
-223.126
-222.765
-222.5
-222.334
-222.267
-222.299
-222.429
-222.653
-222.969
-223.371
-223.853
-224.41
-225.033
-225.714
-226.445
-227.215
-228.014
-228.831
-229.655
-230.473
-231.274
-232.045
-232.773
-233.445
-234.049
-234.573
-235.004
-235.33
-235.541
-235.626
-235.577
-235.386
-235.046
-234.554
-233.905
-233.098
-232.134
-231.015
-229.743
-228.323
-226.76
-225.063
-223.238
-221.294
-219.241
-217.09
-214.852
-212.539
-210.164
-207.74
-205.282
-202.803
-200.319
-197.843
-195.39
-192.974
-190.61
-188.313
-186.094
-183.969
-181.949
-180.046
-178.272
-176.634
-175.141
-173.798
-172.61
-171.577
-170.7
-169.975
-169.398
-168.965
-168.667
-168.496
-168.443
-168.501
-168.66
-168.911
-169.242
-169.64
-170.093
-170.583
-171.093
-171.603
-172.091
-172.535
-172.914
-173.205
-173.388
-173.44
-173.339
-173.063
-172.59
-171.894
-170.957
-169.759
-168.278
-166.503
-164.424
-162.042
-159.371
-156.419
-153.191
-149.692
-145.925
-141.89
-137.583
-132.987
-128.068
-122.797
-117.138
-111.064
-104.565
-97.618
-90.204
-82.305
-73.892
-64.97
-55.571
-45.73
-35.478
-24.858
-13.941
-2.854
8.21
19.06
29.493
39.312
48.284
56.105
62.61
67.761
71.604
74.386
76.403
77.878
79.194
80.889
83.088
85.657
88.407
90.483
90.829
88.822
83.562
75.264
66.292
58.489
52.467
45.963
34.272
16.838
0.153
-1.871
25.72
88.199
178.733
280.694
376.635
457.575
522.736
575.228
616.71
645.285
657.105
649.112
621.311
574.64
510.161
430.559
338.846
238.664
134.618
30.191
-72.037
-168.439
-254.801
-327.69
-384.336
-423.773
-446.922
-454.657
-448.037
-429.407
-401.984
-369.368
-335.212
-301.753
-269.836
-240.141
-212.969
-187.992
-164.523
-141.37
-117.189
-91.54
-64.669
-37
-9.216
17.956
43.781
67.318
87.676
104.433
117.534
127.15
133.605
137.174
138.141
136.882
133.839
129.429
123.965
117.692
110.854
103.741
96.727
90.178
84.341
79.356
75.304
72.223
70.125
68.977
68.658
69.001
69.819
70.919
72.139
73.311
74.243
74.749
74.627
73.698
71.883
69.163
65.539
61.041
55.739
49.755
43.292
36.592
29.869
23.339
17.232
11.814
7.368
4.131
2.288
1.966
3.213
6.055
10.514
16.579
24.188
33.236
43.547
54.932
67.26
80.37
94.047
108.012
121.937
135.554
148.68
161.184
172.982
183.981
194.077
203.2
211.328
218.45
224.588
229.744
233.844
236.87
238.872
239.965
240.34
240.132
239.403
238.191
236.523
234.438
231.992
229.21
226.073
222.587
218.761
214.644
210.351
205.949
201.451
196.835
192.026
186.984
181.72
176.246
170.572
164.716
158.689
152.535
146.333
140.142
133.999
127.925
121.904
115.951
110.107
104.423
98.972
93.812
88.982
84.525
80.491
76.915
73.825
71.232
69.125
67.499
66.359
65.709
65.558
65.905
66.737
68.036
69.783
71.954
74.523
77.459
80.725
84.283
88.102
92.148
96.393
100.804
105.347
109.985
114.686
119.412
124.13
128.803
133.394
137.87
142.198
146.348
150.292
154.002
157.454
160.624
163.491
166.038
168.246
170.102
171.594
172.712
173.45
173.805
173.776
173.366
172.579
171.423
169.909
168.05
165.861
163.359
160.562
157.492
154.172
150.625
146.876
142.953
138.882
134.692
130.413
126.075
121.705
117.334
112.989
108.7
104.495
100.401
96.444
92.649
89.042
85.647
82.488
79.585
76.957
74.623
72.596
70.892
69.521
68.492
67.812
67.485
67.512
67.894
68.627
69.707
71.123
72.865
74.92
77.273
79.905
82.797
85.925
89.266
92.796
96.489
100.317
104.252
108.262
112.319
116.389
120.441
124.439
128.346
132.125
135.738
139.15
142.325
145.226
147.821
150.079
151.974
153.483
154.583
155.251
155.464
155.203
154.456
153.21
151.456
149.189
146.407
143.116
139.334
135.072
130.344
125.156
119.504
113.395
106.844
99.873
92.509
84.793
76.763
68.482
60.035
51.499
42.951
34.458
26.067
17.838
9.86
2.222
-4.98
-11.661
-17.771
-23.283
-28.167
-32.427
-36.15
-39.451
-42.458
-45.314
-48.129
-50.968
-53.966
-57.302
-60.904
-64.728
-69.142
-74.233
-79.891
-86.333
-92.059
-95.588
-98.148
-99.643
-102.055
-108.411
-115.153
-120.291
-121.165
-113.598
-102.648
-93.117
-88.785
-92.778
-98.755
-100.566
-95.21
-83.759
-73.226
-65.91
-55.651
-28.116
31.225
127.978
254.683
389.384
511.651
606.533
666.409
699.27
711.228
705.217
685.07
645.065
582.004
499.039
398.709
287.768
173.894
61.076
-46.797
-145.135
-230.784
-301.322
-354.674
-390.874
-411.4
-417.506
-411.083
-395.013
-371.522
-342.838
-311.764
-280.303
-249.958
-221.913
-196.549
-173.812
-154.106
-137.833
-124.647
-113.86
-104.419
-95.608
-87.368
-79.82
-72.845
-66.058
-59.43
-53.386
-48.729
-46.013
-45.252
-46.221
-48.658
-52.409
-57.197
-62.544
-67.797
-72.397
-76.073
-78.653
-80.013
-80.039
-78.633
-75.802
-71.671
-66.381
-60.037
-52.783
-44.782
-36.248
-27.462
-18.62
-9.852
-1.269
7.07
15.091
22.705
29.89
36.637
42.894
48.638
53.845
58.443
62.455
65.943
68.916
71.49
73.86
76.145
78.429
80.949
83.845
86.923
90.239
93.755
96.662
99.763
104.086
108.149
111.899
111.662
101.591
84.407
64.111
50.487
57.486
84.487
123.417
158.86
171.793
158.69
127.47
93.191
71.579
67.408
76.435
89.665
99.689
104.265
104.597
103.642
102.862
102.123
101.189
99.729
97.843
95.944
94.146
92.423
90.817
89.322
87.897
86.495
85.031
83.441
81.722
79.9
77.984
75.971
73.862
71.656
69.364
66.995
64.55
62.029
59.433
56.764
54.029
51.234
48.385
45.489
42.552
39.58
36.58
33.559
30.524
27.482
24.441
21.41
18.395
15.405
12.448
9.533
6.668
3.86
1.119
-1.547
-4.132
-6.627
-9.024
-11.316
-13.497
-15.559
-17.496
-19.302
-20.973
-22.506
-23.895
-25.136
-26.225
-27.159
-27.938
-28.565
-29.035
-29.342
-29.498
-29.513
-29.396
-29.161
-28.8
-28.297
-27.671
-26.944
-26.081
-25.055
-23.848
-22.43
-20.834
-19.127
-17.282
-15.243
-13.177
-11.277
-9.437
-7.677
-6.036
-4.119
-3.02
-3.808
-4.973
-6.061
-4.295
3.651
14.086
24.544
31.361
29.505
23.418
16.868
12.433
14.38
19.653
25.157
30.202
32.899
34.339
35.929
37.397
38.92
40.403
41.557
42.569
43.586
44.56
45.48
46.363
47.207
48
48.739
49.397
49.944
50.395
50.763
51.047
51.251
51.378
51.428
51.409
51.327
51.185
50.985
50.732
50.429
50.079
49.689
49.264
48.809
48.332
47.84
47.338
46.835
46.337
45.852
45.391
44.958
44.554
44.18
43.836
43.521
43.238
42.989
42.773
42.594
42.458
42.374
42.353
42.406
42.537
42.751
43.044
43.423
43.899
44.489
45.211
46.08
47.104
48.294
49.655
51.183
52.863
54.665
56.553
58.498
60.474
62.479
64.534
66.646
68.83
71.076
73.337
75.616
77.948
80.376
82.979
85.806
88.834
92.134
95.851
99.997
104.551
109.254
113.539
117.129
120.024
122.236
123.911
125.188
126.045
127.077
129.511
134.044
140.915
149.837
159.797
170.083
180.409
189.662
195.935
197.473
192.663
181.01
163.314
140.229
112.156
80.112
46.07
13.142
-14.724
-34.262
-43.139
-39.474
-21.488
12.813
64.287
131.542
211.414
299.679
391.674
483.381
570.414
646.831
707.207
747.628
765.561
760.726
733.926
685.392
616.437
530.55
432.037
325.872
217.144
109.45
6.32
-87.729
-168.765
-234.015
-282.132
-313.639
-329.913
-332.078
-322.069
-302.992
-278.296
-251.54
-225.142
-199.985
-176.465
-154.885
-135.059
-116.281
-97.387
-76.874
-54.08
-29.304
-3.06
23.971
51.066
77.538
102.447
124.669
143.559
158.947
170.877
179.642
185.493
188.572
189.19
187.79
184.779
180.557
175.439
169.617
163.36
157.012
150.881
145.263
140.351
136.207
132.883
130.41
128.778
127.961
127.873
128.36
129.274
130.474
131.821
133.197
134.45
135.385
135.847
135.706
134.878
133.337
131.058
128.021
124.237
119.737
114.573
108.819
102.538
95.779
88.605
81.081
73.289
65.326
57.269
49.176
41.097
33.067
25.121
17.296
9.61
2.073
-5.305
-12.512
-19.532
-26.343
-32.928
-39.279
-45.386
-51.245
-56.847
-62.18
-67.237
-72.01
-76.491
-80.675
-84.555
-88.121
-91.372
-94.309
-96.935
-99.258
-101.285
-103.025
-104.491
-105.696
-106.652
-107.376
-107.88
-108.181
-108.294
-108.238
-108.032
-107.694
-107.245
-106.704
-106.093
-105.434
-104.746
-104.051
-103.369
-102.719
-102.124
-101.601
-101.17
-100.848
-100.653
-100.598
-100.699
-100.968
-101.414
-102.047
-102.872
-103.896
-105.121
-106.55
-108.183
-110.018
-112.053
-114.283
-116.702
-119.303
-122.078
-125.016
-128.104
-131.329
-134.676
-138.131
-141.675
-145.29
-148.959
-152.661
-156.376
-160.085
-163.766
-167.399
-170.963
-174.437
-177.804
-181.043
-184.139
-187.074
-189.833
-192.405
-194.776
-196.936
-198.876
-200.589
-202.068
-203.308
-204.307
-205.063
-205.577
-205.851
-205.89
-205.699
-205.286
-204.66
-203.833
-202.817
-201.625
-200.271
-198.77
-197.14
-195.401
-193.572
-191.673
-189.723
-187.737
-185.74
-183.756
-181.793
-179.857
-177.959
-176.102
-174.311
-172.62
-171.025
-169.519
-168.152
-166.966
-165.99
-165.269
-164.777
-164.452
-164.331
-164.477
-164.721
-164.866
-165.023
-165.172
-165.267
-165.719
-165.388
-163.166
-160.607
-158.172
-158.724
-165.692
-175.25
-184.842
-190.669
-187.519
-179.977
-171.927
-166.029
-166.686
-170.733
-174.965
-178.664
-179.877
-179.73
-179.677
-179.437
-179.199
-178.865
-178.147
-177.243
-176.316
-175.325
-174.274
-173.199
-172.114
-171.029
-169.96
-168.903
-167.848
-166.834
-165.897
-165.053
-164.326
-163.738
-163.311
-163.076
-163.062
-163.286
-163.767
-164.523
-165.572
-166.929
-168.604
-170.595
-172.908
-175.549
-178.534
-181.89
-185.631
-189.757
-194.267
-199.151
-204.393
-209.973
-215.848
-221.954
-228.233
-234.628
-241.096
-247.616
-254.137
-260.591
-266.897
-272.955
-278.697
-284.09
-289.091
-293.678
-297.859
-301.657
-305.146
-308.446
-311.649
-314.854
-318.163
-321.657
-325.472
-329.751
-334.678
-340.526
-347.402
-355.224
-363.758
-372.53
-381.053
-388.992
-395.859
-400.96
-403.949
-404.918
-404.561
-404.305
-405.284
-407.996
-412.739
-419.77
-429.133
-440.094
-450.545
-457.108
-456.521
-446.437
-425.443
-392.425
-345.946
-285.649
-213.046
-131.308
-44.811
42.353
127.192
206.403
275.356
329.799
366.308
382.593
378.456
353.845
307.733
239.868
153.099
52.647
-55.728
-166.232
-279.073
-398.981
-525.041
-653.266
-771.63
-858.486
-903.106
-903.238
-865.939
-815.413
-768.317
-733.341
-714.577
-700.33
-682.623
-659.432
-629.133
-598.304
-571.242
-548.263
-530.233
-515.003
-501.142
-488.702
-476.467
-463.942
-450.87
-436.209
-419.731
-401.544
-381.512
-360.161
-338.448
-316.915
-296.138
-276.8
-259.094
-243.104
-228.881
-216.047
-204.132
-192.923
-182.282
-172.167
-162.703
-153.969
-146.024
-139.017
-133.062
-128.194
-124.349
-121.34
-118.951
-116.987
-115.33
-113.924
-112.715
-111.644
-110.652
-109.684
-108.691
-107.635
-106.466
-105.123
-103.573
-101.796
-99.828
-97.755
-95.674
-93.699
-91.905
-90.325
-88.976
-87.859
-86.963
-86.27
-85.75
-85.358
-85.063
-84.844
-84.679
-84.549
-84.416
-84.226
-83.916
-83.415
-82.666
-81.631
-80.279
-78.593
-76.562
-74.184
-71.466
-68.427
-65.079
-61.431
-57.489
-53.253
-48.733
-43.94
-38.889
-33.599
-28.088
-22.373
-16.474
-10.411
-4.204
2.128
8.568
15.098
21.7
28.352
35.03
41.709
48.363
54.968
61.494
67.916
74.204
80.333
86.277
92.011
97.512
102.754
107.715
112.37
116.697
120.674
124.279
127.491
130.287
132.649
134.557
135.995
136.947
137.4
137.342
136.764
135.659
134.022
131.853
129.152
125.924
122.176
117.917
113.162
107.928
102.233
96.101
89.558
82.631
75.351
67.752
59.869
51.738
43.4
34.894
26.263
17.552
8.805
0.07
-8.607
-17.179
-25.596
-33.812
-41.778
-49.448
-56.776
-63.718
-70.231
-76.274
-81.81
-86.802
-91.218
-95.03
-98.211
-100.74
-102.598
-103.771
-104.248
-104.024
-103.095
-101.463
-99.134
-96.115
-92.42
-88.064
-83.067
-77.452
-71.243
-64.47
-57.164
-49.357
-41.086
-32.387
-23.301
-13.866
-4.126
5.878
16.103
26.505
37.041
47.67
58.348
69.035
79.691
90.28
100.765
111.114
121.295
131.279
141.042
150.559
159.812
168.782
177.454
185.815
193.857
201.574
208.962
216.017
222.738
229.126
235.186
240.92
246.341
251.459
256.28
260.828
265.128
269.192
273.05
276.717
280.18
283.448
286.537
289.398
292.013
294.404
296.549
298.452
300.216
301.889
303.471
305.202
307.291
309.51
311.839
314.425
316.711
319.465
323.746
328.04
331.793
332.445
325.582
312.677
296.954
284.595
284.799
299.862
325.148
350.823
365.215
361.537
342.673
318.82
299.288
290.842
293.192
299.53
305.359
307.791
306.31
303.646
300.966
298.279
295.73
292.891
289.7
286.61
283.803
281.317
279.279
277.744
276.716
276.215
276.218
276.658
277.517
278.751
280.238
281.842
283.415
284.807
285.891
286.473
286.262
285.049
282.795
279.675
276.119
272.564
269.31
266.722
265.326
265.455
266.97
269.134
270.492
269.543
265.424
257.572
245.407
228.937
209.267
188.702
171.018
160.459
160.182
172.651
200.339
244.927
306.542
383.591
472.24
567.118
663.495
757.077
842.748
915.269
970.125
1003.731
1014.377
1002.464
968.323
912.133
835.677
742.017
635.243
520.569
402.889
285.848
173.611
70.971
-18.116
-90.493
-144.683
-181.344
-201.544
-206.041
-196.512
-175.464
-145.956
-111.684
-75.366
-38.39
-2.338
30.941
60.045
83.774
101.938
115.559
125.36
131.742
135.679
138.436
141.209
145.306
151.266
158.686
167.153
176.206
185.05
192.789
198.685
202.08
202.744
200.958
197.133
191.754
185.444
178.873
172.538
166.807
161.932
158.001
155.064
153.151
152.219
152.183
152.981
154.55
156.814
159.696
163.053
166.724
170.552
174.365
178.033
181.469
184.585
187.308
189.599
191.42
192.757
193.62
194.013
193.943
193.435
192.516
191.236
189.653
187.831
185.841
183.74
181.564
179.345
177.104
174.855
172.611
170.375
168.141
165.907
163.677
161.455
159.245
157.048
154.86
152.674
150.483
148.282
146.066
143.835
141.587
139.322
137.041
134.746
132.443
130.134
127.819
125.497
123.167
120.825
118.471
116.103
113.717
111.314
108.891
106.451
103.994
101.522
99.038
96.542
94.037
91.526
89.011
86.493
83.977
81.464
78.958
76.461
73.978
71.512
69.067
66.646
64.254
61.893
59.567
57.278
55.029
52.823
50.661
48.545
46.476
44.455
42.481
40.555
38.675
36.838
35.043
33.286
31.562
29.866
28.194
26.54
24.897
23.26
21.622
19.978
18.321
16.645
14.944
13.212
11.443
9.631
7.77
5.856
3.883
1.846
-0.258
-2.433
-4.683
-7.009
-9.412
-11.894
-14.453
-17.088
-19.797
-22.576
-25.419
-28.323
-31.279
-34.279
-37.315
-40.377
-43.455
-46.537
-49.613
-52.669
-55.695
-58.676
-61.602
-64.46
-67.235
-69.917
-72.492
-74.948
-77.274
-79.456
-81.483
-83.345
-85.03
-86.53
-87.834
-88.935
-89.824
-90.495
-90.942
-91.163
-91.152
-90.909
-90.434
-89.729
-88.795
-87.633
-86.249
-84.645
-82.829
-80.814
-78.606
-76.214
-73.659
-70.965
-68.145
-65.223
-62.211
-59.093
-55.876
-52.578
-49.153
-45.575
-41.861
-37.997
-34.005
-29.995
-26.029
-22.099
-18.435
-15.276
-12.432
-9.86
-7.68
-5.327
-3.598
-3.62
-3.911
-3.89
-0.862
9.42
25.014
42.786
56.643
57.534
44.203
20.242
-6.095
-22.089
-21.35
-4.119
23.473
48.928
63.64
64.375
52.326
36.11
22.18
13.583
12.141
13.792
15.454
16.339
14.989
12.603
10.248
7.568
4.784
1.765
-1.775
-5.623
-9.617
-13.771
-18.047
-22.427
-26.938
-31.582
-36.314
-41.089
-45.886
-50.662
-55.417
-60.169
-64.87
-69.438
-73.768
-77.766
-81.407
-84.7
-87.581
-89.894
-91.576
-92.779
-93.947
-95.605
-98.022
-101.099
-104.596
-108.619
-113.356
-118.584
-123.52
-126.955
-127.984
-126.777
-124.213
-120.667
-116.226
-111.359
-107.197
-106.005
-110.12
-120.23
-135.784
-156.254
-181.147
-209.892
-241.087
-271.199
-295.774
-311.376
-315.433
-306.174
-282.164
-241.381
-182.841
-108.226
-20.873
74.91
174.233
273.146
367.498
451.39
519.394
567.546
592.894
594.747
573.762
529.807
463.804
379.04
279.417
169.785
55.793
-58.398
-168.943
-270.816
-359.838
-433.212
-488.959
-527.206
-549.622
-557.5
-552.786
-538.495
-517.294
-491.771
-464.229
-435.538
-405.905
-375.876
-345.703
-315.693
-286.708
-259.317
-234.118
-212.188
-194.368
-181.021
-172.3
-167.564
-165.444
-164.89
-164.896
-164.47
-163.054
-160.288
-155.966
-150.522
-144.816
-139.382
-134.629
-130.761
-127.653
-125.237
-123.422
-121.854
-120.037
-117.607
-114.304
-110.061
-105.002
-99.212
-92.794
-85.908
-78.755
-71.579
-64.579
-57.886
-51.561
-45.631
-40.12
-35.063
-30.492
-26.416
-22.849
-19.784
-17.213
-15.141
-13.552
-12.413
-11.675
-11.26
-11.096
-11.132
-11.328
-11.655
-12.092
-12.615
-13.207
-13.866
-14.586
-15.357
-16.17
-17.007
-17.854
-18.704
-19.554
-20.405
-21.261
-22.122
-22.988
-23.862
-24.742
-25.63
-26.523
-27.416
-28.303
-29.185
-30.062
-30.937
-31.814
-32.696
-33.588
-34.498
-35.43
-36.389
-37.38
-38.407
-39.473
-40.581
-41.734
-42.936
-44.189
-45.494
-46.854
-48.269
-49.741
-51.268
-52.85
-54.486
-56.173
-57.908
-59.69
-61.515
-63.381
-65.284
-67.222
-69.194
-71.196
-73.226
-75.283
-77.362
-79.461
-81.577
-83.706
-85.845
-87.99
-90.138
-92.287
-94.434
-96.576
-98.711
-100.837
-102.95
-105.048
-107.129
-109.189
-111.227
-113.24
-115.226
-117.182
-119.108
-120.999
-122.854
-124.669
-126.441
-128.164
-129.835
-131.447
-132.993
-134.469
-135.866
-137.179
-138.4
-139.522
-140.538
-141.442
-142.226
-142.884
-143.408
-143.794
-144.035
-144.125
-144.061
-143.839
-143.456
-142.909
-142.197
-141.318
-140.274
-139.064
-137.689
-136.152
-134.455
-132.602
-130.597
-128.448
-126.16
-123.742
-121.203
-118.553
-115.803
-112.965
-110.05
-107.072
-104.043
-100.978
-97.887
-94.786
-91.686
-88.602
-85.543
-82.524
-79.553
-76.641
-73.796
-71.027
-68.34
-65.74
-63.232
-60.819
-58.502
-56.282
-54.159
-52.131
-50.194
-48.343
-46.574
-44.879
-43.251
-41.681
-40.159
-38.673
-37.214
-35.77
-34.329
-32.878
-31.404
-29.897
-28.344
-26.733
-25.056
-23.302
-21.462
-19.53
-17.5
-15.369
-13.133
-10.793
-8.347
-5.798
-3.151
-0.413
2.409
5.305
8.266
11.274
14.314
17.366
20.411
23.428
26.396
29.292
32.093
34.779
37.333
39.736
41.969
44.013
45.85
47.459
48.824
49.929
50.758
51.299
51.545
51.492
51.147
50.514
49.596
48.396
46.908
45.13
43.07
40.739
38.152
35.338
32.336
29.196
25.988
22.778
19.618
16.563
13.653
10.929
8.444
6.245
4.38
2.899
1.849
1.263
1.157
1.494
2.216
3.239
4.457
5.79
7.147
8.406
9.479
10.271
10.669
10.63
10.061
8.759
6.705
4.022
0.924
-2.031
-4.26
-5.393
-4.825
-1.853
3.598
11.293
20.755
30.639
39.557
46.705
50.997
51.287
49.213
46.931
44.966
46.452
51.391
58.766
75.61
106.568
155.895
228.235
316.057
410.594
504.691
588.928
660.265
716.328
753.007
768.415
759.952
726.311
668.235
587.401
487.807
374.653
253.717
130.999
11.456
-100.278
-199.584
-282.541
-346.401
-390.139
-414.436
-420.909
-411.342
-387.982
-353.711
-312.243
-267.564
-222.721
-180.094
-141.235
-107.172
-79.011
-57.163
-40.687
-28.035
-17.681
-7.863
2.373
13.464
26.344
41.375
58.057
75.688
93.133
108.968
122.569
133.69
141.886
147.184
149.84
150.143
148.85
146.826
144.56
142.447
140.792
139.708
139.394
140.013
141.535
143.912
147.088
150.994
155.609
160.888
166.708
172.935
179.401
185.939
192.415
198.667
204.562
209.999
214.872
219.119
222.714
225.624
227.843
229.391
230.275
230.525
230.194
229.319
227.954
226.165
224.01
221.563
218.883
216.011
212.984
209.83
206.566
203.213
199.783
196.275
192.696
189.055
185.356
181.611
177.828
174.01
170.158
166.274
162.358
158.415
154.452
150.472
146.482
142.485
138.489
134.501
130.528
126.571
122.63
118.703
114.789
110.887
106.992
103.099
99.206
95.309
91.403
87.487
83.557
79.61
75.641
71.647
67.624
63.568
59.476
55.343
51.167
46.945
42.674
38.355
33.985
29.564
25.092
20.569
15.995
11.374
6.707
1.996
-2.753
-7.536
-12.347
-17.179
-22.025
-26.877
-31.727
-36.564
-41.38
-46.164
-50.908
-55.6
-60.231
-64.789
-69.266
-73.65
-77.93
-82.097
-86.141
-90.052
-93.82
-97.437
-100.896
-104.187
-107.306
-110.245
-113
-115.566
-117.939
-120.117
-122.098
-123.881
-125.468
-126.859
-128.058
-129.068
-129.894
-130.542
-131.019
-131.332
-131.49
-131.5
-131.373
-131.119
-130.746
-130.266
-129.689
-129.026
-128.286
-127.481
-126.62
-125.713
-124.769
-123.796
-122.802
-121.795
-120.782
-119.768
-118.758
-117.757
-116.768
-115.794
-114.836
-113.894
-112.967
-112.055
-111.154
-110.26
-109.369
-108.476
-107.574
-106.656
-105.715
-104.743
-103.732
-102.674
-101.559
-100.38
-99.13
-97.799
-96.382
-94.87
-93.259
-91.542
-89.714
-87.772
-85.71
-83.525
-81.216
-78.78
-76.217
-73.526
-70.71
-67.77
-64.71
-61.535
-58.25
-54.862
-51.377
-47.804
-44.153
-40.435
-36.66
-32.84
-28.988
-25.117
-21.243
-17.379
-13.54
-9.738
-5.989
-2.304
1.301
4.816
8.228
11.525
14.696
17.726
20.599
23.3
25.817
28.136
30.245
32.131
33.785
35.203
36.385
37.329
38.033
38.495
38.712
38.686
38.42
37.917
37.181
36.219
35.04
33.661
32.103
30.379
28.498
26.461
24.258
21.886
19.352
16.664
13.835
10.884
7.836
4.735
1.642
-1.385
-4.298
-7.054
-9.618
-11.94
-13.967
-15.642
-16.905
-17.706
-18.017
-17.838
-17.182
-16.095
-14.632
-12.856
-10.893
-8.896
-7.028
-5.465
-4.383
-3.921
-4.271
-5.713
-8.343
-12.091
-16.725
-21.696
-26.466
-30.703
-33.884
-35.342
-34.985
-33.106
-30.431
-28.558
-28.723
-31.48
-37.729
-48.152
-62.022
-77.795
-92.899
-103.325
-105.656
-97.148
-74.593
-35.308
20.165
88.543
167.203
252.708
344.132
443.784
544.477
633.327
698.355
725.253
712.631
671.038
608.232
533.844
452.616
361.546
261.659
155.776
47.307
-56.879
-150.743
-230.443
-293.133
-337.893
-365.636
-377.834
-375.996
-362.636
-341.164
-315.093
-288.042
-262.434
-239.144
-218.564
-200.843
-185.592
-172.049
-159.074
-145.292
-130.187
-113.996
-97.121
-80.168
-63.698
-48.273
-34.719
-23.892
-16.206
-11.666
-10.017
-10.833
-13.759
-18.451
-24.446
-31.18
-38.079
-44.743
-50.947
-56.548
-61.428
-65.403
-68.249
-69.839
-70.149
-69.198
-67.054
-63.783
-59.44
-54.169
-48.178
-41.71
-35.041
-28.362
-21.777
-15.383
-9.256
-3.476
1.854
6.684
11.018
14.845
18.162
20.959
23.218
24.963
26.257
27.167
27.766
28.102
28.192
28.055
27.702
27.141
26.375
25.397
24.182
22.72
21.01
19.053
16.86
14.428
11.748
8.815
5.624
2.171
-1.539
-5.506
-9.727
-14.195
-18.897
-23.819
-28.944
-34.257
-39.745
-45.396
-51.197
-57.138
-63.205
-69.387
-75.674
-82.053
-88.51
-95.032
-101.606
-108.217
-114.852
-121.499
-128.145
-134.78
-141.393
-147.976
-154.523
-161.024
-167.47
-173.854
-180.169
-186.412
-192.582
-198.668
-204.66
-210.567
-216.395
-222.15
-227.841
-233.457
-238.977
-244.415
-249.787
-255.053
-260.18
-265.143
-269.903
-274.486
-278.953
-283.266
-287.361
-291.394
-295.551
-299.714
-303.887
-308.099
-311.937
-316.488
-322.807
-329.362
-335.679
-338.947
-335.803
-329.943
-323.825
-321.115
-326.854
-336.556
-346.416
-353.823
-354.47
-351.412
-347.745
-344.149
-342.508
-341.711
-340.334
-338.639
-336.439
-333.825
-331.079
-328.013
-324.477
-320.523
-316.164
-311.39
-306.212
-300.652
-294.728
-288.482
-281.962
-275.175
-268.128
-260.847
-253.354
-245.673
-237.834
-229.857
-221.766
-213.592
-205.363
-197.109
-188.859
-180.641
-172.481
-164.408
-156.447
-148.621
-140.955
-133.468
-126.179
-119.106
-112.264
-105.665
-99.322
-93.242
-87.431
-81.894
-76.632
-71.643
-66.923
-62.465
-58.262
-54.301
-50.572
-47.06
-43.748
-40.619
-37.656
-34.839
-32.147
-29.559
-27.052
-24.602
-22.188
-19.786
-17.373
-14.925
-12.422
-9.843
-7.168
-4.382
-1.467
1.591
4.804
8.182
11.734
15.465
19.381
23.483
27.77
32.238
36.882
41.694
46.664
51.779
57.025
62.385
67.842
73.377
78.97
84.6
90.246
95.883
101.487
107.035
112.5
117.857
123.078
128.132
132.992
137.631
142.023
146.142
149.965
153.471
156.642
159.467
161.935
164.032
165.748
167.074
168.004
168.539
168.678
168.423
167.78
166.758
165.373
163.649
161.603
159.249
156.594
153.641
150.4
146.89
143.136
139.165
135.008
130.706
126.314
121.908
117.554
113.308
109.225
105.348
101.735
98.457
95.577
93.156
91.252
89.898
89.101
88.861
89.137
89.878
91.028
92.472
94.079
95.702
97.183
98.397
99.234
99.526
99.042
97.646
95.362
92.433
89.285
86.262
83.621
81.717
81.077
82.101
84.689
88.122
91.336
93.598
94.421
93.225
89.419
82.521
74.222
68.812
68.872
75.495
87.372
99.731
115.361
142.596
188.166
260.197
355.71
460.798
564.446
654.742
724.641
775.801
808.155
821.193
815.066
787.79
738.397
668.493
581.426
481.449
373.365
262.166
151.655
45.298
-52.633
-138.901
-211.383
-268.134
-308.714
-334.013
-344.858
-342.773
-330.379
-309.774
-283.097
-253.237
-222.448
-192.477
-164.717
-139.673
-117.347
-98.222
-82.606
-69.886
-59.209
-49.413
-39.782
-30.432
-21.517
-12.768
-3.91
4.635
12.248
18.104
21.513
22.833
21.439
15.081
4.258
-8.698
-19.654
-20.997
-12.425
-0.435
8.316
4.208
-13.251
-34.666
-52.85
-60.174
-55.389
-45.494
-34.81
-26.293
-20.918
-16.029
-10.527
-4.694
1.373
7.108
12.293
17.2
21.872
26.194
30.144
33.735
36.967
39.836
42.322
44.388
46.036
47.344
48.381
49.211
49.908
50.518
51.075
51.616
52.162
52.721
53.3
53.893
54.492
55.099
55.722
56.37
57.053
57.767
58.504
59.241
59.968
60.716
61.538
62.491
63.601
64.83
66.134
67.519
69.026
70.671
72.34
73.812
75.065
76.3
77.8
79.843
82.289
84.819
87.647
90.959
94.4
97.577
99.527
100.285
102.203
105.546
108.741
108.152
97.468
78.107
57.421
43.486
46.043
63.747
86.903
108.189
119.429
119.717
115.28
108.983
103.635
100.682
97.889
94.6
91.18
87.456
84.045
81.543
79.66
78.004
76.424
74.662
72.617
70.463
68.25
65.934
63.581
61.242
58.931
56.717
54.625
52.609
50.652
48.742
46.87
45.054
43.312
41.645
40.057
38.557
37.151
35.83
34.608
33.513
32.557
31.764
31.148
30.665
30.289
30.046
29.881
29.702
29.468
29.098
28.539
27.92
27.337
26.723
26.25
26.324
26.924
27.898
29.393
30.839
32.663
37.363
44.498
51.647
55.367
47.508
26.136
-0.749
-23.78
-28.921
-8.785
25.969
61.17
81.935
77.286
54.55
27.116
4.863
-3.712
-0.745
5.745
11.932
14.86
14.328
13.197
12.204
11.175
10.27
9.068
7.491
5.929
4.51
3.22
2.152
1.351
0.781
0.424
0.256
0.221
0.31
0.556
0.961
1.52
2.241
3.121
4.163
5.373
6.746
8.275
9.952
11.769
13.718
15.788
17.968
20.246
22.608
25.04
27.525
30.046
32.588
35.133
37.664
40.165
42.617
45.002
47.305
49.508
51.594
53.544
55.34
56.96
58.388
59.606
60.595
61.341
61.828
62.044
61.983
61.639
61.005
60.076
58.845
57.306
55.461
53.309
50.854
48.099
45.052
41.728
38.146
34.326
30.281
26.017
21.532
16.827
11.914
6.809
1.534
-3.882
-9.407
-14.989
-20.563
-26.067
-31.446
-36.655
-41.661
-46.413
-50.85
-54.904
-58.494
-61.565
-64.071
-65.973
-67.287
-68.05
-68.319
-68.195
-67.779
-67.145
-66.412
-65.706
-65.096
-64.714
-64.699
-65.194
-66.461
-68.683
-71.844
-75.708
-79.93
-84.114
-87.647
-89.929
-90.438
-88.562
-85.278
-82.404
-80.228
-79.557
-78.62
-73.975
-67.345
-61.122
-60.142
-71.07
-92.518
-116.584
-130.428
-118.896
-72.329
6.801
106.746
214.44
316.827
409.254
494.476
571.231
637.277
688.709
718.411
723.765
705.687
664.295
601.278
520.004
423.563
316.54
204.954
93.24
-14.893
-114.733
-202.365
-275.033
-330.179
-367.136
-387.389
-392.426
-384.073
-365.362
-339.143
-308.118
-275.791
-244.859
-216.387
-191.079
-169.3
-150.66
-135.065
-122.528
-111.719
-101.179
-90.474
-79.25
-67.395
-55.53
-43.649
-31.279
-19.627
-8.998
1.172
9.146
14.508
15.092
6.64
-9.339
-29.215
-46.092
-50.33
-39.485
-18.005
4.448
16.525
12.035
-5.995
-27.691
-44.031
-48.643
-41.921
-30.41
-18.525
-9.193
-3.127
2.006
7.1
12.027
16.834
21.039
24.505
27.565
30.294
32.661
34.719
36.476
37.908
38.997
39.729
40.093
40.152
40.028
39.794
39.492
39.156
38.803
38.456
38.142
37.869
37.623
37.4
37.203
37.04
36.925
36.865
36.853
36.881
36.939
37.018
37.113
37.217
37.325
37.432
37.535
37.636
37.736
37.836
37.931
38.017
38.085
38.127
38.135
38.1
38.01
37.855
37.626
37.313
36.908
36.403
35.791
35.065
34.219
33.247
32.144
30.906
29.531
28.014
26.355
24.553
22.608
20.52
18.29
15.922
13.417
10.78
8.014
5.122
2.109
-1.02
-4.257
-7.598
-11.033
-14.555
-18.153
-21.819
-25.539
-29.303
-33.1
-36.915
-40.739
-44.557
-48.357
-52.127
-55.854
-59.527
-63.133
-66.661
-70.1
-73.439
-76.667
-79.776
-82.755
-85.596
-88.29
-90.831
-93.209
-95.42
-97.456
-99.312
-100.984
-102.468
-103.761
-104.86
-105.764
-106.473
-106.989
-107.312
-107.447
-107.396
-107.166
-106.762
-106.191
-105.462
-104.583
-103.564
-102.415
-101.145
-99.766
-98.289
-96.726
-95.088
-93.386
-91.633
-89.839
-88.018
-86.181
-84.338
-82.501
-80.681
-78.887
-77.13
-75.419
-73.761
-72.165
-70.637
-69.185
-67.815
-66.529
-65.333
-64.228
-63.217
-62.299
-61.475
-60.742
-60.099
-59.54
-59.064
-58.664
-58.336
-58.075
-57.872
-57.721
-57.616
-57.547
-57.507
-57.486
-57.476
-57.467
-57.452
-57.423
-57.37
-57.288
-57.167
-57.003
-56.788
-56.518
-56.188
-55.792
-55.327
-54.79
-54.181
-53.498
-52.742
-51.914
-51.017
-50.055
-49.032
-47.954
-46.828
-45.659
-44.455
-43.225
-41.979
-40.726
-39.478
-38.247
-37.047
-35.895
-34.809
-33.804
-32.898
-32.105
-31.443
-30.926
-30.567
-30.373
-30.352
-30.513
-30.868
-31.427
-32.201
-33.194
-34.412
-35.86
-37.54
-39.453
-41.59
-43.935
-46.481
-49.22
-52.156
-55.299
-58.652
-62.204
-65.947
-69.86
-73.916
-78.083
-82.309
-86.524
-90.668
-94.687
-98.544
-102.211
-105.64
-108.771
-111.54
-113.88
-115.754
-117.135
-117.997
-118.34
-118.198
-117.638
-116.773
-115.712
-114.527
-113.312
-112.167
-111.221
-110.674
-110.664
-111.318
-112.879
-115.465
-119.025
-123.374
-127.994
-132.235
-135.681
-137.879
-138.076
-135.827
-131.378
-125.645
-120.044
-116.026
-113.392
-110.495
-108.317
-108.569
-113.142
-125.932
-143.216
-155.422
-154.298
-128.569
-74.872
-1.218
84.775
172.985
256.624
337.692
416.767
491.942
558.897
610.299
641.13
650.052
637.957
606.132
555.096
486.391
403.274
309.939
211.26
111.167
12.22
-82.457
-168.959
-244.168
-305.968
-353.453
-387.211
-407.862
-415.69
-411.813
-398.321
-377.529
-351.627
-322.119
-289.822
-255.751
-221.289
-187.764
-155.918
-125.955
-98.193
-73.419
-52.321
-35.163
-21.583
-10.512
-1.252
6.304
12.51
18.006
23.244
28.574
33.844
38.203
41.195
42.871
43.265
42.518
40.847
38.344
35.365
32.59
30.478
29.326
29.335
30.497
32.801
36.261
40.783
46.207
52.384
59.115
66.215
73.521
80.844
88.049
95.037
101.71
107.998
113.834
119.168
123.999
128.345
132.215
135.626
138.588
141.122
143.291
145.163
146.81
148.315
149.733
151.107
152.483
153.893
155.359
156.899
158.512
160.188
161.931
163.745
165.635
167.608
169.66
171.783
173.97
176.209
178.488
180.799
183.128
185.462
187.794
190.113
192.414
194.689
196.93
199.123
201.257
203.315
205.282
207.141
208.875
210.466
211.897
213.151
214.214
215.071
215.71
216.117
216.281
216.191
215.837
215.209
214.3
213.103
211.614
209.83
207.749
205.372
202.702
199.745
196.507
192.995
189.22
185.192
180.922
176.424
171.711
166.801
161.708
156.45
151.048
145.521
139.89
134.177
128.403
122.591
116.763
110.941
105.146
99.4
93.724
88.138
82.663
77.318
72.122
67.093
62.248
57.601
53.166
48.954
44.977
41.243
37.759
34.53
31.562
28.857
26.417
24.243
22.333
20.686
19.297
18.162
17.273
16.623
16.203
16.003
16.01
16.214
16.601
17.157
17.869
18.722
19.701
20.791
21.976
23.241
24.572
25.953
27.37
28.81
30.261
31.711
33.149
34.565
35.951
37.297
38.597
39.843
41.03
42.152
43.205
44.184
45.088
45.912
46.658
47.323
47.908
48.415
48.844
49.198
49.48
49.692
49.84
49.925
49.953
49.928
49.854
49.734
49.571
49.369
49.13
48.854
48.544
48.199
47.818
47.401
46.945
46.449
45.908
45.32
44.681
43.985
43.228
42.404
41.508
40.534
39.475
38.324
37.075
35.72
34.251
32.662
30.943
29.086
27.083
24.923
22.598
20.1
17.42
14.551
11.486
8.22
4.746
1.061
-2.839
-6.957
-11.298
-15.866
-20.664
-25.693
-30.954
-36.447
-42.171
-48.119
-54.284
-60.654
-67.219
-73.97
-80.894
-87.979
-95.212
-102.577
-110.059
-117.641
-125.302
-133.018
-140.762
-148.506
-156.225
-163.898
-171.509
-179.051
-186.513
-193.874
-201.114
-208.213
-215.14
-221.864
-228.34
-234.506
-240.314
-245.712
-250.653
-255.1
-259.004
-262.318
-265.001
-266.992
-268.241
-268.743
-268.49
-267.492
-265.784
-263.374
-260.321
-256.76
-252.831
-248.698
-244.53
-240.451
-236.642
-233.358
-230.742
-228.816
-227.435
-226.205
-224.731
-222.74
-219.867
-215.62
-209.722
-202.311
-194.043
-186.13
-179.828
-175.906
-174.953
-177.791
-184.717
-194.814
-206.055
-215.331
-219.087
-214.46
-199.107
-170.22
-125.476
-65.784
6.435
88.89
176.786
268.591
363.14
450.888
524.033
574.435
593.438
584.763
553.203
501.663
435.754
355.606
261.719
158.262
49.097
-60.695
-166.33
-263.689
-349.07
-419.858
-473.945
-511.098
-532.72
-539.757
-533.512
-516.071
-489.228
-455.639
-418.487
-379.348
-339.175
-299.375
-261.222
-226.409
-196.794
-172.736
-153.84
-140.249
-131.821
-128.065
-128.109
-129.932
-131.534
-132.143
-131.489
-129.358
-125.808
-120.832
-114.806
-108.956
-104.281
-101.082
-99.314
-98.667
-98.806
-99.617
-100.829
-101.827
-102.127
-101.429
-99.614
-96.811
-93.154
-88.688
-83.491
-77.713
-71.514
-65.105
-58.698
-52.391
-46.243
-40.3
-34.59
-29.161
-24.068
-19.336
-14.957
-10.917
-7.206
-3.82
-0.763
1.985
4.471
6.769
8.963
11.109
13.247
15.401
17.596
19.857
22.202
24.637
27.151
29.737
32.398
35.14
37.973
40.899
43.91
46.994
50.138
53.331
56.563
59.823
63.098
66.376
69.649
72.909
76.154
79.377
82.567
85.715
88.806
91.829
94.772
97.621
100.361
102.981
105.468
107.811
110
112.027
113.882
115.557
117.046
118.341
119.436
120.327
121.008
121.476
121.727
121.761
121.577
121.174
120.555
119.721
118.676
117.425
115.97
114.317
112.471
110.438
108.224
105.837
103.283
100.572
97.713
94.714
91.585
88.337
84.979
81.521
77.972
74.342
70.64
66.876
63.059
59.199
55.306
51.388
47.457
43.521
39.59
35.672
31.779
27.917
24.095
20.323
16.608
12.957
9.378
5.878
2.464
-0.858
-4.082
-7.202
-10.214
-13.113
-15.897
-18.561
-21.103
-23.521
-25.813
-27.978
-30.015
-31.924
-33.703
-35.354
-36.878
-38.275
-39.549
-40.701
-41.734
-42.653
-43.462
-44.164
-44.764
-45.269
-45.684
-46.014
-46.266
-46.446
-46.56
-46.614
-46.615
-46.57
-46.484
-46.363
-46.214
-46.041
-45.85
-45.646
-45.434
-45.216
-44.997
-44.78
-44.569
-44.367
-44.175
-43.996
-43.831
-43.682
-43.549
-43.433
-43.331
-43.243
-43.166
-43.097
-43.033
-42.969
-42.899
-42.818
-42.721
-42.6
-42.45
-42.263
-42.032
-41.748
-41.405
-40.994
-40.508
-39.939
-39.279
-38.52
-37.657
-36.682
-35.591
-34.376
-33.033
-31.555
-29.94
-28.182
-26.278
-24.227
-22.025
-19.672
-17.171
-14.524
-11.734
-8.807
-5.751
-2.576
0.706
4.082
7.536
11.054
14.619
18.212
21.818
25.419
28.998
32.538
36.023
39.431
42.74
45.929
48.978
51.865
54.571
57.075
59.359
61.415
63.232
64.797
66.094
67.094
67.774
68.119
68.118
67.766
67.065
66.031
64.694
63.107
61.321
59.382
57.326
55.172
52.946
50.687
48.445
46.284
44.255
42.386
40.703
39.238
37.98
36.868
35.8
34.609
33.163
31.387
29.199
26.516
23.263
19.341
14.642
9.11
2.62
-5.023
-13.805
-23.621
-34.228
-45.024
-55.351
-64.672
-72.224
-77.198
-79.537
-79.373
-76.991
-73.75
-71.004
-69.602
-70.995
-75.071
-78.665
-79.24
-75.839
-70.598
-69.008
-73.338
-76.779
-62.442
-14.523
75.18
201.238
339.003
466.456
568.819
637.469
681.307
707.738
718.488
716.457
696.326
653.651
589.566
506.07
408.771
304.03
196.561
90.271
-11.162
-103.27
-181.858
-243.922
-287.965
-314.522
-325.17
-321.414
-305.798
-282.012
-253.931
-225.471
-199.244
-176.197
-156.723
-140.947
-128.439
-118.33
-109.33
-99.878
-89.251
-77.518
-64.969
-52.135
-39.528
-27.612
-17.087
-8.715
-2.877
0.346
1.093
-0.263
-3.377
-7.903
-13.365
-19.278
-25.217
-30.849
-35.988
-40.531
-44.401
-47.546
-49.934
-51.554
-52.421
-52.523
-51.846
-50.437
-48.377
-45.8
-42.908
-39.899
-36.973
-34.34
-32.175
-30.578
-29.605
-29.245
-29.427
-30.079
-31.102
-32.388
-33.868
-35.457
-37.058
-38.588
-39.934
-40.959
-41.523
-41.445
-40.528
-38.656
-35.756
-31.799
-26.842
-20.958
-14.255
-6.909
0.938
9.172
17.679
26.388
35.231
44.096
52.875
61.434
69.604
77.261
84.309
90.654
96.27
101.152
105.326
108.885
111.907
114.431
116.486
118.075
119.183
119.822
120
119.719
119.009
117.894
116.39
114.529
112.319
109.752
106.809
103.448
99.628
95.335
90.565
85.326
79.64
73.527
67.016
60.152
52.972
45.51
37.8
29.874
21.764
13.513
5.165
-3.232
-11.629
-19.98
-28.244
-36.379
-44.346
-52.111
-59.643
-66.917
-73.908
-80.593
-86.947
-92.946
-98.569
-103.798
-108.615
-113.005
-116.954
-120.452
-123.492
-126.071
-128.186
-129.839
-131.032
-131.77
-132.062
-131.916
-131.344
-130.361
-128.98
-127.22
-125.099
-122.637
-119.856
-116.779
-113.428
-109.829
-106.006
-101.985
-97.792
-93.452
-88.99
-84.433
-79.805
-75.134
-70.443
-65.757
-61.101
-56.498
-51.971
-47.542
-43.23
-39.056
-35.037
-31.189
-27.528
-24.066
-20.815
-17.784
-14.982
-12.416
-10.09
-8.006
-6.164
-4.566
-3.21
-2.092
-1.201
-0.527
-0.06
0.213
0.298
0.209
-0.027
-0.398
-0.909
-1.559
-2.348
-3.259
-4.242
-5.268
-6.353
-7.457
-8.486
-9.363
-10.006
-10.386
-10.58
-10.605
-10.346
-9.88
-9.56
-9.469
-9.481
-9.634
-9.552
-9.879
-12.894
-18.245
-23.78
-26.174
-18.963
-2.161
17.638
33.992
37.738
27.756
12.797
-0.34
-4.481
2.037
12.672
23.268
31.139
35.272
38.292
41.477
44.694
48.029
51.07
53.671
56.169
58.662
61.06
63.349
65.526
67.555
69.402
71.015
72.317
73.275
73.91
74.223
74.202
73.836
73.116
72.039
70.612
68.838
66.716
64.246
61.44
58.318
54.897
51.194
47.215
42.954
38.41
33.594
28.52
23.212
17.7
12.017
6.216
0.37
-5.45
-11.175
-16.753
-22.154
-27.33
-32.223
-36.762
-40.852
-44.425
-47.444
-49.869
-51.694
-52.942
-53.654
-53.923
-53.885
-53.651
-53.331
-53.035
-52.838
-52.887
-53.345
-54.386
-56.283
-59.22
-63.238
-68.27
-73.962
-79.741
-85.047
-89.247
-91.593
-91.594
-89
-84.153
-78.361
-73.256
-70.607
-70.67
-72.077
-74.256
-76.08
-79.543
-89.911
-106.561
-126.413
-140.014
-128.328
-80.164
9.924
139.47
289.311
439.843
572.2
670.438
732.089
761.809
769.745
765.881
753.631
730.897
690.474
627.942
544.567
444.836
336.258
225.133
114.826
8.856
-88.589
-173.588
-242.614
-293.851
-327.667
-345.303
-348.138
-338.611
-320.297
-297.131
-273.114
-250.862
-231.341
-214.923
-201.659
-191.08
-182.186
-173.513
-163.375
-150.963
-136.424
-120.164
-102.764
-84.795
-66.798
-49.534
-33.899
-20.436
-9.278
-0.384
6.44
11.382
14.537
16.109
16.417
15.746
14.367
12.476
10.158
7.493
4.612
1.641
-1.282
-3.994
-6.4
-8.409
-9.895
-10.794
-11.053
-10.652
-9.634
-8.065
-6.017
-3.562
-0.758
2.367
5.759
9.357
13.093
16.859
20.584
24.207
27.65
30.868
33.827
36.501
38.897
41.045
42.968
44.695
46.257
47.665
48.943
50.118
51.221
52.299
53.387
54.506
55.678
56.918
58.231
59.624
61.09
62.606
64.157
65.727
67.296
68.854
70.386
71.875
73.303
74.649
75.897
77.032
78.039
78.906
79.619
80.166
80.537
80.726
80.728
80.535
80.138
79.531
78.707
77.662
76.393
74.895
73.167
71.209
69.025
66.619
63.997
61.166
58.136
54.917
51.519
47.956
44.243
40.392
36.421
32.345
28.179
23.942
19.651
15.322
10.974
6.623
2.288
-2.016
-6.269
-10.457
-14.563
-18.573
-22.472
-26.247
-29.885
-33.375
-36.706
-39.868
-42.854
-45.655
-48.268
-50.687
-52.91
-54.936
-56.765
-58.399
-59.84
-61.093
-62.161
-63.051
-63.768
-64.321
-64.716
-64.964
-65.074
-65.056
-64.922
-64.683
-64.352
-63.94
-63.461
-62.925
-62.345
-61.734
-61.102
-60.46
-59.82
-59.193
-58.587
-58.013
-57.479
-56.994
-56.565
-56.198
-55.898
-55.671
-55.519
-55.447
-55.456
-55.549
-55.725
-55.986
-56.331
-56.758
-57.266
-57.85
-58.508
-59.233
-60.022
-60.866
-61.759
-62.694
-63.664
-64.66
-65.675
-66.699
-67.725
-68.745
-69.749
-70.729
-71.677
-72.585
-73.445
-74.251
-74.994
-75.67
-76.271
-76.792
-77.228
-77.572
-77.82
-77.967
-78.007
-77.937
-77.753
-77.453
-77.034
-76.494
-75.835
-75.055
-74.156
-73.14
-72.009
-70.765
-69.413
-67.957
-66.402
-64.753
-63.017
-61.2
-59.308
-57.35
-55.334
-53.267
-51.158
-49.013
-46.841
-44.651
-42.452
-40.253
-38.065
-35.897
-33.761
-31.673
-29.647
-27.697
-25.836
-24.078
-22.436
-20.925
-19.553
-18.328
-17.254
-16.339
-15.589
-15.012
-14.616
-14.405
-14.382
-14.552
-14.916
-15.477
-16.228
-17.158
-18.257
-19.518
-20.943
-22.541
-24.316
-26.261
-28.372
-30.638
-33.037
-35.539
-38.1
-40.658
-43.152
-45.534
-47.762
-49.807
-51.632
-53.188
-54.425
-55.291
-55.75
-55.779
-55.346
-54.445
-53.118
-51.437
-49.517
-47.493
-45.463
-43.528
-41.818
-40.459
-39.595
-39.381
-39.903
-41.278
-43.684
-47.141
-51.558
-56.672
-61.892
-66.632
-70.474
-72.849
-73.154
-71.292
-67.404
-62.064
-56.644
-52.168
-49.145
-48.376
-50.368
-54.527
-59.774
-64.065
-63.998
-57.01
-41.198
-14.004
26.308
79.951
146.333
222.867
305.054
389.187
471.366
546.085
608.257
653.424
677.53
678.975
657.802
613.432
546.419
459.623
356.92
243.501
125.395
7.197
-106.818
-211.2
-300.947
-372.505
-423.921
-455.288
-468.158
-463.893
-444.236
-412.548
-373.163
-330.497
-288.151
-248.684
-213.509
-183.816
-160.922
-144.983
-134.785
-128.515
-124.282
-120.244
-115.484
-109.453
-101.134
-90.145
-76.947
-62.341
-47.61
-34.233
-22.9
-13.902
-7.697
-4.325
-3.583
-5.19
-8.399
-12.325
-16.451
-20.414
-23.935
-26.935
-29.267
-30.747
-31.367
-31.169
-30.169
-28.414
-25.902
-22.627
-18.658
-14.11
-9.136
-3.894
1.476
6.836
12.077
17.12
21.886
26.312
30.365
34.019
37.264
40.118
42.584
44.679
46.433
47.883
49.087
50.108
51.009
51.859
52.709
53.597
54.553
55.603
56.76
58.036
59.435
60.948
62.574
64.312
66.16
68.117
70.176
72.324
74.547
76.83
79.16
81.522
83.905
86.296
88.683
91.055
93.401
95.713
97.978
100.182
102.31
104.343
106.266
108.061
109.711
111.199
112.506
113.619
114.524
115.208
115.659
115.867
115.823
115.519
114.948
114.105
112.988
111.593
109.92
107.97
105.747
103.254
100.498
97.485
94.223
90.721
86.991
83.044
78.891
74.549
70.03
65.352
60.531
55.586
50.536
45.4
40.198
34.951
29.681
24.406
19.149
13.929
8.767
3.681
-1.309
-6.185
-10.931
-15.531
-19.969
-24.231
-28.305
-32.179
-35.843
-39.288
-42.505
-45.488
-48.231
-50.729
-52.98
-54.981
-56.732
-58.232
-59.485
-60.493
-61.261
-61.794
-62.099
-62.185
-62.06
-61.736
-61.225
-60.538
-59.69
-58.694
-57.566
-56.321
-54.974
-53.542
-52.038
-50.478
-48.878
-47.251
-45.611
-43.972
-42.347
-40.747
-39.184
-37.67
-36.213
-34.824
-33.51
-32.28
-31.138
-30.092
-29.146
-28.304
-27.567
-26.939
-26.419
-26.007
-25.702
-25.499
-25.394
-25.382
-25.455
-25.606
-25.825
-26.103
-26.43
-26.794
-27.187
-27.595
-28.01
-28.418
-28.811
-29.177
-29.506
-29.787
-30.01
-30.167
-30.247
-30.244
-30.149
-29.958
-29.663
-29.26
-28.744
-28.111
-27.36
-26.486
-25.489
-24.369
-23.125
-21.762
-20.282
-18.692
-16.997
-15.205
-13.326
-11.37
-9.348
-7.272
-5.153
-3.004
-0.838
1.331
3.488
5.62
7.71
9.741
11.696
13.555
15.302
16.92
18.393
19.707
20.846
21.802
22.567
23.135
23.498
23.646
23.572
23.271
22.738
21.975
20.979
19.752
18.299
16.632
14.767
12.719
10.494
8.092
5.506
2.735
-0.213
-3.324
-6.583
-9.968
-13.453
-16.992
-20.519
-23.974
-27.305
-30.47
-33.441
-36.172
-38.607
-40.681
-42.326
-43.493
-44.152
-44.289
-43.896
-43.002
-41.649
-39.912
-37.93
-35.84
-33.792
-31.941
-30.41
-29.312
-28.815
-29.145
-30.434
-32.692
-35.746
-39.199
-42.681
-45.938
-48.627
-50.166
-50.125
-48.493
-45.717
-42.944
-41.283
-41.108
-42.897
-47.63
-55.753
-66.93
-78.859
-86.5
-85.461
-74.042
-53.795
-29.276
-3.533
26.229
69.078
138.171
244.082
384.057
540.234
683.848
783.723
824.552
809.332
753.636
680.151
601.495
519.99
433.727
337.218
230.988
120.271
10.648
-90.567
-178.282
-250.022
-304.119
-340.893
-361.692
-367.409
-359.333
-339.552
-310.482
-275.569
-238.514
-201.803
-167.493
-137.24
-112.128
-93.287
-81.2
-74.874
-72.758
-73.372
-74.904
-76.236
-76.684
-75.049
-70.713
-63.921
-55.166
-45.43
-36.018
-27.507
-20.144
-14.395
-10.316
-7.751
-6.507
-5.961
-5.391
-4.462
-3.008
-0.936
1.674
4.8
8.442
12.457
16.683
21.015
25.367
29.723
34.082
38.395
42.586
46.573
50.293
53.725
56.868
59.73
62.325
64.668
66.788
68.726
70.515
72.183
73.751
75.228
76.632
77.989
79.326
80.67
82.049
83.481
84.979
86.554
88.211
89.954
91.783
93.69
95.674
97.732
99.862
102.06
104.322
106.641
109.009
111.415
113.847
116.29
118.729
121.148
123.531
125.861
128.124
130.303
132.383
134.35
136.19
137.888
139.431
140.805
141.999
143.001
143.802
144.392
144.766
144.916
144.839
144.532
143.995
143.228
142.233
141.013
139.572
137.918
136.056
133.997
131.749
129.324
126.733
123.99
121.108
118.101
114.982
111.765
108.464
105.092
101.661
98.184
94.674
91.141
87.598
84.055
80.522
77.008
73.521
70.068
66.654
63.285
59.964
56.694
53.476
50.311
47.2
44.141
41.133
38.173
35.257
32.383
29.545
26.736
23.951
21.191
18.454
15.736
13.037
10.346
7.665
5.001
2.351
-0.309
-2.995
-5.726
-8.503
-11.293
-14.086
-16.916
-19.757
-22.529
-25.173
-27.618
-29.848
-31.954
-33.959
-35.758
-37.438
-39.358
-41.603
-44.049
-46.736
-49.281
-52.344
-58.205
-66.479
-75.014
-80.45
-76.299
-62.647
-46.079
-33.051
-32.748
-46.174
-64.559
-81.097
-88.568
-85.38
-78.07
-70.764
-66.156
-65.212
-65.283
-65.09
-64.75
-64.165
-63.741
-63.608
-63.398
-63.01
-62.538
-61.998
-61.402
-60.771
-60.097
-59.415
-58.832
-58.345
-57.859
-57.31
-56.64
-55.846
-55.03
-54.215
-53.289
-52.364
-51.813
-51.697
-51.911
-52.5
-53.039
-54.331
-58.669
-65.423
-72.527
-76.383
-70.411
-55.346
-37.692
-24.046
-23.764
-36.965
-54.885
-70.778
-77.217
-73.274
-65.518
-57.861
-53.112
-51.959
-51.707
-51.225
-50.587
-49.72
-49.044
-48.645
-48.173
-47.538
-46.807
-45.976
-45.038
-44.016
-42.939
-41.855
-40.84
-39.921
-39.082
-38.325
-37.666
-37.114
-36.674
-36.345
-36.121
-36.013
-36.04
-36.235
-36.616
-37.193
-37.971
-38.952
-40.131
-41.502
-43.034
-44.679
-46.393
-48.137
-49.88
-51.607
-53.278
-54.839
-56.23
-57.373
-58.213
-58.729
-58.901
-58.717
-58.202
-57.384
-56.32
-55.139
-53.967
-52.939
-52.198
-51.837
-51.974
-52.787
-54.529
-57.399
-61.394
-66.254
-71.583
-77.04
-82.347
-87.161
-90.884
-92.968
-93.483
-93.19
-93.234
-94.546
-97.746
-103.445
-112.28
-124.792
-139.229
-151.112
-157.513
-156.704
-149.543
-140.536
-126.542
-98.99
-50.83
26.116
128.296
241.076
352.705
450.976
529.034
588.346
628.59
649.46
651.271
632.644
593.335
534.531
458.985
370.887
274.887
175.611
76.496
-19.964
-110.484
-191.303
-259.521
-313.154
-352.014
-377.587
-391.135
-393.662
-386.953
-373.491
-356.184
-337.831
-319.603
-301.087
-281.761
-261.549
-240.807
-220.023
-198.924
-176.901
-154.301
-132.52
-113.337
-97.936
-86.224
-77.309
-70.787
-66.754
-65.118
-65.221
-65.804
-65.867
-65.37
-64.982
-65.162
-65.879
-66.834
-67.828
-69.06
-70.764
-72.836
-74.802
-76.184
-76.714
-76.314
-75.055
-72.961
-69.997
-66.198
-61.713
-56.74
-51.507
-46.245
-41.069
-36.034
-31.194
-26.568
-22.19
-18.105
-14.319
-10.825
-7.62
-4.691
-2.037
0.333
2.443
4.339
6.086
7.776
9.47
11.203
13.004
14.891
16.88
18.991
21.221
23.558
25.992
28.521
31.145
33.873
36.699
39.611
42.594
45.626
48.686
51.758
54.82
57.852
60.835
63.748
66.577
69.311
71.934
74.431
76.783
78.972
80.978
82.785
84.374
85.729
86.833
87.671
88.232
88.506
88.484
88.158
87.524
86.579
85.32
83.749
81.866
79.675
77.184
74.399
71.33
67.991
64.395
60.558
56.499
52.237
47.791
43.185
38.439
33.576
28.619
23.591
18.516
13.417
8.317
3.24
-1.793
-6.758
-11.634
-16.403
-21.044
-25.541
-29.877
-34.039
-38.012
-41.786
-45.35
-48.696
-51.818
-54.711
-57.371
-59.798
-61.992
-63.955
-65.691
-67.207
-68.51
-69.607
-70.51
-71.229
-71.777
-72.165
-72.409
-72.522
-72.519
-72.414
-72.223
-71.959
-71.638
-71.274
-70.881
-70.472
-70.059
-69.656
-69.275
-68.925
-68.617
-68.36
-68.163
-68.032
-67.973
-67.991
-68.09
-68.271
-68.537
-68.887
-69.319
-69.833
-70.424
-71.088
-71.82
-72.613
-73.461
-74.354
-75.284
-76.243
-77.22
-78.208
-79.194
-80.172
-81.131
-82.063
-82.958
-83.807
-84.602
-85.333
-85.993
-86.574
-87.067
-87.467
-87.766
-87.959
-88.043
-88.012
-87.864
-87.594
-87.202
-86.686
-86.043
-85.275
-84.381
-83.362
-82.22
-80.959
-79.583
-78.096
-76.503
-74.81
-73.022
-71.146
-69.188
-67.154
-65.051
-62.885
-60.663
-58.395
-56.088
-53.751
-51.392
-49.021
-46.647
-44.28
-41.93
-39.606
-37.316
-35.072
-32.884
-30.762
-28.719
-26.765
-24.913
-23.178
-21.574
-20.113
-18.811
-17.679
-16.729
-15.973
-15.423
-15.086
-14.968
-15.077
-15.418
-16.002
-16.834
-17.922
-19.271
-20.884
-22.765
-24.918
-27.34
-30.017
-32.941
-36.1
-39.49
-43.116
-46.975
-51.054
-55.34
-59.817
-64.462
-69.245
-74.117
-79.007
-83.853
-88.591
-93.178
-97.588
-101.779
-105.704
-109.305
-112.515
-115.296
-117.631
-119.49
-120.838
-121.68
-122.059
-122.077
-121.889
-121.601
-121.279
-121.001
-120.834
-120.865
-121.193
-121.92
-123.123
-124.923
-127.476
-130.787
-134.802
-139.333
-143.907
-147.956
-150.932
-152.09
-150.689
-146.683
-140.175
-131.399
-121.585
-111.965
-103.519
-98.037
-95.687
-93.802
-90.697
-85.708
-80.342
-79.046
-81.819
-80.771
-62.796
-16.558
62.584
168.99
288.248
410.005
524.409
620.826
694.201
736.227
743.848
723.922
681.856
624.336
554.596
470.126
371.602
261.736
145.493
29.934
-79.591
-178.25
-261.981
-328.531
-376.754
-407.106
-421.366
-421.333
-409.606
-389.866
-365.858
-341.155
-318.075
-297.376
-279.216
-263.547
-249.848
-237.089
-223.933
-208.935
-191.49
-171.914
-150.769
-128.742
-106.524
-84.8
-64.415
-46.303
-31.028
-18.702
-9.228
-2.333
2.244
4.665
5.208
4.276
2.247
-0.525
-3.761
-7.287
-10.908
-14.352
-17.39
-19.831
-21.504
-22.351
-22.334
-21.418
-19.612
-16.945
-13.479
-9.332
-4.642
0.464
5.862
11.441
17.089
22.651
28.005
33.064
37.75
42.034
45.897
49.312
52.28
54.826
56.978
58.78
60.284
61.526
62.55
63.407
64.152
64.854
65.564
66.318
67.146
68.063
69.083
70.218
71.472
72.833
74.293
75.846
77.483
79.202
80.998
82.856
84.763
86.702
88.658
90.619
92.574
94.508
96.411
98.271
100.078
101.826
103.504
105.101
106.605
108.002
109.281
110.43
111.438
112.294
112.988
113.515
113.868
114.043
114.04
113.855
113.488
112.941
112.215
111.312
110.238
108.998
107.596
106.042
104.344
102.512
100.556
98.487
96.316
94.057
91.72
89.32
86.87
84.382
81.872
79.353
76.838
74.343
71.881
69.464
67.105
64.816
62.606
60.486
58.464
56.546
54.739
53.048
51.476
50.027
48.703
47.504
46.431
45.483
44.659
43.955
43.369
42.896
42.532
42.27
42.106
42.033
42.044
42.131
42.287
42.504
42.773
43.086
43.435
43.81
44.205
44.61
45.019
45.424
45.82
46.2
46.561
46.899
47.21
47.492
47.745
47.966
48.157
48.319
48.452
48.56
48.645
48.712
48.764
48.806
48.844
48.881
48.925
48.98
49.051
49.145
49.267
49.422
49.615
49.852
50.136
50.471
50.861
51.307
51.813
52.377
53
53.68
54.414
55.2
56.031
56.903
57.808
58.738
59.683
60.635
61.581
62.51
63.408
64.263
65.059
65.782
66.418
66.952
67.368
67.654
67.794
67.774
67.581
67.202
66.626
65.841
64.837
63.602
62.129
60.415
58.458
56.258
53.811
