Name,John Breau
Date of Birth,"Dec 20, 1971"
Recorded Date,2023-05-10 20:44:38 -0500
Classification,Sinus Rhythm
Symptoms,
Software Version,1.90
Device,"Watch6,3"
Sample Rate,512 hertz


Lead,Lead I
Unit,µV

62.367
53.455
44.972
36.932
29.346
22.222
15.567
9.382
3.67
-1.573
-6.349
-10.664
-14.526
-17.945
-20.93
-23.494
-25.65
-27.413
-28.797
-29.819
-30.494
-30.841
-30.878
-30.623
-30.094
-29.312
-28.296
-27.065
-25.639
-24.037
-22.28
-20.385
-18.372
-16.259
-14.061
-11.797
-9.482
-7.131
-4.758
-2.377
-0
2.361
4.695
6.991
9.241
11.434
13.563
15.621
17.598
19.49
21.29
22.992
24.592
26.084
27.465
28.731
29.88
30.908
31.814
32.597
33.256
33.79
34.199
34.486
34.65
34.694
34.62
34.43
34.129
33.719
33.204
32.589
31.877
31.075
30.188
29.222
28.184
27.081
25.92
24.709
23.455
22.168
20.856
19.527
18.189
16.851
15.522
14.212
12.929
11.682
10.481
9.334
8.251
7.241
6.311
5.47
4.723
4.079
3.542
3.118
2.811
2.625
2.562
2.625
2.815
3.132
3.575
4.141
4.827
5.629
6.54
7.555
8.664
9.858
11.129
12.467
13.862
15.302
16.774
18.265
19.761
21.248
22.709
24.126
25.476
26.74
27.897
28.929
29.814
30.534
31.071
31.41
31.542
31.456
31.139
30.579
29.763
28.683
27.333
25.708
23.805
21.622
19.163
16.436
13.454
10.227
6.757
3.042
-0.927
-5.153
-9.626
-14.333
-19.253
-24.36
-29.619
-34.976
-40.362
-45.712
-50.97
-56.08
-60.995
-65.652
-69.985
-73.929
-77.418
-80.389
-82.807
-84.662
-85.959
-86.742
-87.061
-86.97
-86.59
-86.068
-85.558
-85.245
-85.305
-85.872
-87.142
-89.358
-92.593
-96.764
-101.619
-106.622
-111.284
-115.292
-118.154
-119.254
-118.462
-116.055
-112.788
-110.055
-108.855
-109.526
-112.681
-119.039
-128.196
-138.768
-148.193
-152.67
-149.243
-136.071
-110.792
-70.811
-15.1
55.685
138.61
228.466
320.649
411.381
495.56
567.071
620.511
651.743
659.14
643.727
606.372
547.577
469.718
376.98
274.577
168.189
62.206
-40.506
-136.585
-222.053
-294.028
-350.983
-393.086
-421.918
-438.679
-444.195
-439.879
-427.68
-409.587
-387.24
-361.215
-331.482
-298.656
-263.513
-227.152
-191.407
-157.583
-126.857
-101.216
-80.459
-63.661
-52.527
-46.366
-46.584
-55.69
-67.564
-77.832
-81.294
-71.428
-53.917
-34.456
-17.743
-10.153
-8.673
-9.881
-12.884
-15.226
-18.022
-22.413
-27.259
-32.208
-36.765
-40.386
-43.299
-45.652
-47.339
-48.379
-48.884
-48.921
-48.526
-47.722
-46.459
-44.718
-42.582
-40.156
-37.557
-34.87
-32.137
-29.385
-26.655
-23.983
-21.388
-18.872
-16.402
-13.948
-11.49
-9.001
-6.456
-3.817
-1.035
1.949
5.197
8.756
12.649
16.893
21.497
26.463
31.788
37.452
43.424
49.67
56.163
62.873
69.772
76.82
83.978
91.199
98.44
105.657
112.808
119.851
126.747
133.457
139.945
146.176
152.118
157.739
163.008
167.891
172.356
176.375
179.92
182.966
185.489
187.472
188.899
189.759
190.045
189.755
188.89
187.454
185.455
182.904
179.817
176.208
172.099
167.512
162.469
156.999
151.128
144.887
138.305
131.414
124.248
116.839
109.22
101.426
93.49
85.448
77.332
69.177
61.016
52.884
44.812
36.831
28.971
21.262
13.728
6.393
-0.722
-7.597
-14.217
-20.569
-26.64
-32.422
-37.907
-43.09
-47.968
-52.537
-56.799
-60.754
-64.404
-67.753
-70.806
-73.57
-76.051
-78.257
-80.197
-81.88
-83.315
-84.514
-85.488
-86.249
-86.81
-87.185
-87.387
-87.431
-87.331
-87.1
-86.753
-86.301
-85.758
-85.134
-84.439
-83.684
-82.878
-82.027
-81.141
-80.226
-79.289
-78.336
-77.372
-76.403
-75.434
-74.469
-73.512
-72.567
-71.639
-70.73
-69.844
-68.986
-68.158
-67.363
-66.604
-65.882
-65.199
-64.555
-63.951
-63.387
-62.862
-62.377
-61.931
-61.525
-61.159
-60.833
-60.548
-60.306
-60.106
-59.951
-59.841
-59.776
-59.759
-59.789
-59.868
-59.996
-60.172
-60.397
-60.671
-60.991
-61.356
-61.763
-62.21
-62.691
-63.205
-63.746
-64.31
-64.892
-65.487
-66.091
-66.697
-67.302
-67.9
-68.484
-69.048
-69.585
-70.088
-70.549
-70.961
-71.317
-71.608
-71.82
-71.94
-71.959
-71.866
-71.66
-71.329
-70.852
-70.228
-69.475
-68.606
-67.638
-66.569
-65.358
-63.997
-62.526
-60.92
-59.093
-56.982
-54.519
-51.697
-48.634
-45.373
-41.805
-38.053
-34.555
-31.424
-28.545
-25.986
-23.324
-21.373
-22.81
-27.187
-32.052
-33.502
-24.032
-3.859
19.365
38.111
41.686
29.032
10.301
-6.64
-13.408
-8.259
1.213
10.248
15.707
16.504
15.719
14.825
13.711
12.5
10.734
8.266
5.502
2.57
-0.595
-3.965
-7.501
-11.193
-15.026
-18.983
-23.059
-27.208
-31.337
-35.391
-39.331
-43.094
-46.605
-49.77
-52.494
-54.712
-56.393
-57.527
-58.111
-58.168
-57.743
-56.907
-55.795
-54.557
-53.34
-52.3
-51.589
-51.34
-51.771
-53.197
-55.739
-59.333
-63.68
-68.18
-72.337
-75.849
-78.288
-79.053
-77.848
-74.837
-70.913
-67.72
-66.488
-67.696
-71.536
-78.169
-87.478
-98.424
-108.553
-114.114
-111.695
-99.141
-75.082
-38.065
13.41
79.563
158.793
247.446
341.149
436.485
530.168
617.581
693.204
751.76
788.596
801.103
787.891
748.316
684.175
598.903
495.955
375.609
236.482
81.239
-80.04
-227.221
-339.075
-405.577
-430.461
-429.647
-420.311
-411.496
-404.075
-393.915
-378.907
-360.211
-340.536
-323.398
-309.692
-298.463
-288.572
-277.754
-263.925
-246.391
-225.012
-200.286
-173.366
-145.163
-116.423
-88.214
-61.629
-37.436
-16.187
1.903
16.928
28.972
38.15
44.644
48.686
50.555
50.542
48.919
45.941
41.826
36.771
30.992
24.699
18.134
11.588
5.327
-0.396
-5.378
-9.501
-12.673
-14.842
-16.014
-16.235
-15.579
-14.146
-12.007
-9.211
-5.81
-1.857
2.567
7.34
12.335
17.414
22.469
27.436
32.27
36.949
41.479
45.883
50.205
54.505
58.829
63.209
67.671
72.232
76.922
81.784
86.866
92.222
97.89
103.888
110.227
116.906
123.911
131.22
138.796
146.593
154.567
162.68
170.895
179.181
187.5
195.808
204.064
212.219
220.231
228.055
235.649
242.97
249.978
256.636
262.911
268.773
274.192
279.137
283.578
287.488
290.841
293.614
295.789
297.346
298.275
298.564
298.21
297.213
295.575
293.301
290.4
286.884
282.768
278.069
272.807
267.007
260.692
253.891
246.633
238.951
230.88
222.453
213.71
204.686
195.422
185.957
176.33
166.583
156.756
146.89
137.023
127.196
117.447
107.812
98.329
89.029
79.945
71.106
62.538
54.266
46.311
38.694
31.431
24.538
18.028
11.91
6.193
0.883
-4.017
-8.506
-12.586
-16.261
-19.536
-22.418
-24.917
-27.045
-28.813
-30.236
-31.329
-32.109
-32.595
-32.807
-32.763
-32.487
-31.998
-31.32
-30.474
-29.482
-28.364
-27.142
-25.834
-24.461
-23.041
-21.591
-20.13
-18.674
-17.236
-15.833
-14.477
-13.18
-11.952
-10.803
-9.74
-8.77
-7.899
-7.132
-6.473
-5.924
-5.487
-5.164
-4.955
-4.859
-4.874
-4.995
-5.221
-5.545
-5.963
-6.469
-7.056
-7.719
-8.45
-9.245
-10.095
-10.994
-11.935
-12.911
-13.915
-14.939
-15.977
-17.022
-18.067
-19.108
-20.138
-21.153
-22.149
-23.121
-24.065
-24.977
-25.852
-26.687
-27.476
-28.216
-28.904
-29.534
-30.105
-30.614
-31.058
-31.435
-31.743
-31.979
-32.142
-32.23
-32.24
-32.17
-32.019
-31.785
-31.468
-31.069
-30.587
-30.023
-29.378
-28.653
-27.85
-26.969
-26.011
-24.976
-23.866
-22.682
-21.427
-20.104
-18.714
-17.263
-15.756
-14.199
-12.6
-10.963
-9.296
-7.605
-5.899
-4.188
-2.479
-0.782
0.893
2.533
4.122
5.645
7.087
8.435
9.675
10.793
11.778
12.62
13.315
13.859
14.247
14.469
14.516
14.377
14.049
13.524
12.799
11.87
10.735
9.4
7.882
6.19
4.329
2.297
0.076
-2.339
-4.944
-7.735
-10.698
-13.812
-17.054
-20.377
-23.716
-27.017
-30.23
-33.319
-36.265
-39.027
-41.554
-43.796
-45.684
-47.179
-48.256
-48.886
-49.071
-48.855
-48.29
-47.473
-46.516
-45.495
-44.517
-43.716
-43.213
-43.195
-43.81
-45.193
-47.59
-51.121
-55.719
-61.15
-66.826
-72.063
-76.4
-79.307
-80.173
-78.809
-75.334
-70.753
-66.933
-65.244
-66.881
-71.478
-78.291
-88.341
-100.611
-115.622
-132.823
-144.03
-143.556
-123.648
-75.883
-5.483
81.86
179.345
275.531
368.997
458.814
539.642
608.086
658.003
683.762
684.721
662.277
617.647
552.307
469.017
371.382
264.347
153.603
43.286
-63.835
-164.261
-254.017
-329.792
-389.029
-431.213
-457.245
-467.819
-463.764
-446.367
-418.969
-387.077
-353.624
-319.24
-281.859
-235.299
-181.43
-128.752
-85.796
-64.18
-63.638
-72.43
-80.902
-79.048
-65.484
-48.137
-31.407
-18.557
-9.183
0.67
9.548
16.099
17.05
8.117
-5.934
-21.443
-33.546
-35.636
-32.434
-27.953
-25.054
-28.782
-35.327
-40.863
-44.449
-43.762
-40.281
-35.895
-30.463
-24.422
-17.85
-10.639
-3.241
4.018
11.075
17.858
24.282
30.265
35.778
40.844
45.507
49.821
53.784
57.39
60.691
63.779
66.754
69.725
72.769
75.932
79.265
82.811
86.596
90.643
94.95
99.501
104.287
109.311
114.573
120.079
125.82
131.777
137.928
144.252
150.726
157.329
164.036
170.818
177.65
184.509
191.372
198.218
205.019
211.743
218.355
224.822
231.105
237.168
242.974
248.483
253.661
258.471
262.879
266.854
270.373
273.411
275.944
277.951
279.405
280.288
280.599
280.32
279.415
277.86
275.63
272.721
269.174
265.005
260.183
254.747
248.803
242.436
235.742
228.761
221.412
213.69
205.746
197.506
188.585
178.916
168.673
157.844
146.907
135.13
119.908
101.719
83.09
67.943
63.827
70.681
80.912
87.08
78.585
54.289
24.378
-3.238
-20.172
-24.549
-23.914
-23.022
-24.968
-30.856
-37.607
-43.731
-49.35
-54.346
-59.176
-63.987
-68.368
-72.196
-75.555
-78.452
-80.882
-82.879
-84.48
-85.741
-86.756
-87.568
-88.167
-88.562
-88.78
-88.84
-88.767
-88.58
-88.29
-87.912
-87.472
-86.987
-86.476
-85.955
-85.438
-84.938
-84.467
-84.037
-83.656
-83.333
-83.074
-82.883
-82.764
-82.718
-82.745
-82.844
-83.014
-83.25
-83.549
-83.906
-84.316
-84.774
-85.274
-85.81
-86.377
-86.968
-87.578
-88.203
-88.837
-89.476
-90.114
-90.747
-91.373
-91.988
-92.588
-93.17
-93.732
-94.271
-94.786
-95.275
-95.735
-96.165
-96.566
-96.934
-97.272
-97.579
-97.854
-98.099
-98.313
-98.497
-98.651
-98.774
-98.866
-98.926
-98.952
-98.941
-98.893
-98.804
-98.671
-98.489
-98.253
-97.959
-97.601
-97.172
-96.665
-96.073
-95.388
-94.603
-93.712
-92.709
-91.586
-90.339
-88.963
-87.452
-85.804
-84.014
-82.081
-80.005
-77.78
-75.406
-72.884
-70.213
-67.398
-64.449
-61.364
-58.145
-54.813
-51.389
-47.892
-44.346
-40.752
-37.103
-33.433
-29.785
-26.128
-22.441
-18.718
-14.937
-11.16
-7.49
-3.911
-0.358
2.942
5.714
8.058
9.921
11.244
12.543
12.474
9.686
6.046
2.194
1.58
8.341
17.972
27.359
32.021
25.956
14.464
1.712
-9.243
-13.076
-13.541
-13.908
-15.901
-24.476
-37.589
-50.999
-60.86
-59.251
-46.841
-31.579
-20.734
-24.755
-44.384
-69.683
-92.582
-104.548
-104.253
-98.696
-93.997
-94.89
-100.267
-106.491
-108.498
-101.886
-91.689
-81.851
-77.672
-85.715
-99.675
-114.45
-126.392
-129.596
-128.66
-128.065
-128.737
-133.415
-140.467
-147.09
-152.712
-156.446
-157.029
-155.256
-153.913
-152.542
-149.916
-143.819
-125.349
-93.264
-56.836
-25.35
-17.962
-47.092
-101.764
-165.809
-211.792
-210.421
-156.548
-55.702
79.661
230.064
384.185
533.376
662.471
754.333
796.77
785.913
731.69
654.369
567.769
477.637
383.167
277.972
162.044
40.767
-78.825
-187.681
-280.014
-353.291
-406.52
-440.803
-458.02
-459.761
-448.518
-427.866
-401.625
-373.789
-347.062
-322.396
-300.094
-280.272
-262.606
-246.354
-230.282
-212.717
-192.899
-171.141
-148.033
-124.365
-100.905
-78.247
-57.264
-39.084
-24.322
-13.155
-5.549
-1.068
0.745
0.199
-2.242
-6.051
-10.831
-16.074
-21.219
-26.155
-31.107
-35.97
-40.43
-44.308
-46.992
-49.292
-53.906
-60.33
-66.131
-67.302
-56.259
-33.551
-7.125
15.103
22.004
12.611
-2.832
-16.402
-19.565
-10.78
2.189
14.583
23.212
27.088
29.389
31.594
33.63
35.692
37.394
38.715
40.189
41.999
44.111
46.574
49.427
52.693
56.399
60.481
64.832
69.479
74.492
79.914
85.786
92.055
98.615
105.491
112.747
120.147
127.411
134.656
141.836
148.877
156.285
162.585
166.338
169.523
172.714
179.572
194.484
212.508
230.338
243.073
243.989
238.959
232.956
229.378
233.867
242.339
250.657
257.886
261.498
262.932
264.041
264.458
264.415
263.779
262.172
259.842
256.994
253.572
249.573
245.037
239.977
234.399
228.321
221.732
214.621
207.035
199.027
190.624
181.868
172.796
163.445
153.864
144.098
134.188
124.174
114.096
103.995
93.911
83.883
73.948
64.142
54.499
45.05
35.827
26.857
18.167
9.779
1.716
-6.004
-13.364
-20.351
-26.952
-33.16
-38.966
-44.368
-49.363
-53.951
-58.135
-61.921
-65.315
-68.326
-70.965
-73.243
-75.175
-76.776
-78.061
-79.047
-79.753
-80.196
-80.395
-80.37
-80.138
-79.72
-79.133
-78.396
-77.527
-76.544
-75.462
-74.299
-73.07
-71.789
-70.47
-69.126
-67.77
-66.413
-65.065
-63.735
-62.432
-61.164
-59.938
-58.759
-57.634
-56.567
-55.563
-54.624
-53.753
-52.954
-52.227
-51.574
-50.994
-50.489
-50.058
-49.7
-49.414
-49.2
-49.057
-48.982
-48.975
-49.034
-49.157
-49.343
-49.588
-49.89
-50.248
-50.659
-51.119
-51.626
-52.178
-52.77
-53.401
-54.065
-54.76
-55.48
-56.222
-56.979
-57.747
-58.52
-59.292
-60.056
-60.806
-61.535
-62.238
-62.909
-63.54
-64.124
-64.655
-65.125
-65.527
-65.855
-66.1
-66.254
-66.311
-66.265
-66.109
-65.838
-65.447
-64.929
-64.282
-63.502
-62.585
-61.53
-60.334
-58.997
-57.517
-55.897
-54.14
-52.248
-50.226
-48.078
-45.812
-43.434
-40.954
-38.379
-35.717
-32.98
-30.178
-27.325
-24.432
-21.515
-18.588
-15.669
-12.779
-9.937
-7.165
-4.483
-1.911
0.53
2.82
4.941
6.881
8.626
10.162
11.475
12.549
13.371
13.928
14.206
14.195
13.883
13.262
12.332
11.101
9.57
7.74
5.604
3.147
0.366
-2.734
-6.147
-9.862
-13.853
-18.083
-22.487
-26.979
-31.484
-35.937
-40.287
-44.494
-48.495
-52.222
-55.604
-58.579
-61.113
-63.187
-64.762
-65.822
-66.412
-66.635
-66.65
-66.654
-66.782
-67.134
-67.837
-69.009
-70.8
-73.369
-76.847
-81.302
-86.801
-93.426
-101.091
-109.618
-118.7
-127.703
-135.912
-142.699
-147.449
-149.683
-149.584
-147.352
-142.89
-137.002
-130.722
-124.644
-119.859
-115.516
-107.511
-94.631
-77.935
-59.637
-46.114
-35.161
-16.226
19.9
83.936
174.544
277.799
381.882
474.097
547.847
605.366
646.445
670.549
676.694
660.317
618.75
552.161
463.011
356.831
239.893
118.253
-2.56
-117.066
-219.015
-303.06
-366.337
-408.378
-430.641
-435.863
-426.928
-407.237
-381.591
-354.688
-329.602
-307.949
-290.045
-275.389
-263.502
-253.678
-244.328
-233.704
-220.97
-206.052
-189.446
-172.016
-154.435
-137.23
-121.173
-107.112
-95.516
-86.533
-80.047
-75.633
-72.878
-71.462
-71.003
-71.115
-71.45
-71.658
-71.509
-70.905
-69.773
-68.079
-65.816
-62.943
-59.457
-55.398
-50.784
-45.699
-40.296
-34.686
-28.994
-23.349
-17.854
-12.634
-7.799
-3.391
0.585
4.144
7.321
10.13
12.587
14.729
16.583
18.194
19.642
20.982
22.273
23.581
24.958
26.465
28.167
30.103
32.293
34.754
37.497
40.536
43.893
47.578
51.598
55.96
60.661
65.7
71.075
76.775
82.787
89.093
95.667
102.486
109.527
116.763
124.162
131.692
139.313
146.988
154.675
162.333
169.915
177.376
184.666
191.74
198.553
205.06
211.217
216.983
222.318
227.185
231.548
235.376
238.64
241.314
243.375
244.805
245.59
245.717
245.182
243.979
242.112
239.583
236.403
232.584
228.143
223.099
217.476
211.3
204.601
197.412
189.768
181.707
173.271
164.501
155.442
146.14
136.641
126.992
117.241
107.433
97.614
87.831
78.127
68.544
59.123
49.903
40.919
32.206
23.795
15.712
7.984
0.633
-6.323
-12.865
-18.982
-24.662
-29.897
-34.683
-39.016
-42.897
-46.329
-49.318
-51.873
-54.003
-55.724
-57.05
-57.999
-58.591
-58.847
-58.789
-58.443
-57.833
-56.985
-55.924
-54.678
-53.271
-51.731
-50.083
-48.351
-46.558
-44.727
-42.88
-41.036
-39.215
-37.435
-35.71
-34.056
-32.487
-31.015
-29.651
-28.403
-27.282
-26.294
-25.444
-24.737
-24.176
-23.763
-23.499
-23.383
-23.413
-23.586
-23.897
-24.341
-24.912
-25.605
-26.411
-27.323
-28.335
-29.436
-30.621
-31.881
-33.208
-34.595
-36.035
-37.52
-39.043
-40.599
-42.182
-43.785
-45.404
-47.032
-48.664
-50.295
-51.92
-53.532
-55.126
-56.696
-58.237
-59.743
-61.209
-62.63
-64
-65.314
-66.568
-67.756
-68.875
-69.917
-70.879
-71.756
-72.541
-73.231
-73.821
-74.306
-74.679
-74.938
-75.076
-75.09
-74.975
-74.723
-74.332
-73.796
-73.11
-72.273
-71.281
-70.133
-68.826
-67.363
-65.744
-63.971
-62.048
-59.979
-57.768
-55.421
-52.946
-50.349
-47.641
-44.832
-41.931
-38.953
-35.912
-32.82
-29.693
-26.545
-23.392
-20.251
-17.137
-14.067
-11.06
-8.134
-5.312
-2.618
-0.075
2.294
4.466
6.422
8.14
9.605
10.804
11.73
12.374
12.728
12.782
12.53
11.967
11.094
9.913
8.427
6.642
4.57
2.224
-0.377
-3.218
-6.296
-9.615
-13.186
-17.014
-21.084
-25.378
-29.881
-34.562
-39.388
-44.308
-49.244
-54.124
-58.893
-63.485
-67.849
-71.92
-75.602
-78.81
-81.454
-83.459
-84.81
-85.5
-85.521
-84.897
-83.665
-81.886
-79.715
-77.325
-74.877
-72.606
-70.7
-69.396
-69.051
-69.867
-71.927
-75.098
-78.811
-82.441
-85.546
-87.531
-87.841
-86.394
-83.089
-78.81
-75.868
-75.864
-80.142
-88.984
-100.156
-113.12
-128.552
-147.063
-170.995
-195.634
-209.59
-201.128
-156.426
-73.99
34.376
156.361
276.136
385.703
487.364
578.955
657.207
717.919
753.577
761.61
744.1
702.371
638.497
556.296
459.563
353.278
243.397
133.779
26.771
-74.372
-166.302
-246.311
-311.831
-362.153
-398.183
-420.214
-428.566
-424.32
-408.848
-384.787
-355.818
-324.61
-293.106
-263.102
-235.737
-212.287
-194.258
-181.503
-172.552
-165.904
-159.751
-152.895
-145.064
-135.524
-123.12
-107.699
-89.907
-70.902
-52.561
-36.062
-21.669
-9.809
-0.971
4.683
7.15
6.92
5.044
2.182
-1.419
-5.522
-10.028
-14.748
-19.313
-23.555
-27.465
-30.944
-33.918
-36.286
-37.861
-38.582
-38.479
-37.598
-36.05
-33.92
-31.231
-28.043
-24.432
-20.489
-16.368
-12.17
-7.952
-3.79
0.273
4.202
7.954
11.532
14.979
18.331
21.643
24.969
28.334
31.781
35.364
39.136
43.172
47.523
52.22
57.288
62.747
68.601
74.857
81.502
88.502
95.827
103.448
111.331
119.449
127.767
136.24
144.825
153.476
162.145
170.789
179.364
187.823
196.123
204.22
212.072
219.642
226.89
233.775
240.256
246.292
251.843
256.873
261.347
265.231
268.496
271.114
273.065
274.332
274.9
274.759
273.905
272.336
270.055
267.067
263.386
259.025
254.002
248.34
242.064
235.202
227.785
219.847
211.423
202.552
193.273
183.628
173.66
163.413
152.933
142.264
131.453
120.547
109.592
98.633
87.715
76.884
66.181
55.649
45.326
35.25
25.453
15.969
6.826
-1.951
-10.34
-18.321
-25.876
-32.994
-39.662
-45.874
-51.624
-56.909
-61.732
-66.094
-70.001
-73.462
-76.487
-79.089
-81.281
-83.08
-84.503
-85.569
-86.298
-86.711
-86.832
-86.682
-86.285
-85.667
-84.852
-83.864
-82.729
-81.47
-80.11
-78.672
-77.178
-75.648
-74.1
-72.554
-71.025
-69.529
-68.079
-66.69
-65.372
-64.135
-62.987
-61.937
-60.988
-60.147
-59.415
-58.795
-58.286
-57.89
-57.604
-57.427
-57.356
-57.387
-57.515
-57.737
-58.045
-58.434
-58.897
-59.427
-60.015
-60.654
-61.338
-62.057
-62.806
-63.578
-64.365
-65.162
-65.963
-66.761
-67.552
-68.331
-69.092
-69.832
-70.547
-71.234
-71.889
-72.51
-73.096
-73.644
-74.153
-74.623
-75.051
-75.437
-75.779
-76.077
-76.329
-76.535
-76.693
-76.803
-76.865
-76.876
-76.838
-76.75
-76.611
-76.42
-76.177
-75.88
-75.528
-75.119
-74.653
-74.126
-73.537
-72.885
-72.166
-71.38
-70.526
-69.6
-68.601
-67.528
-66.379
-65.153
-63.849
-62.465
-61.002
-59.46
-57.84
-56.145
-54.376
-52.538
-50.635
-48.671
-46.654
-44.589
-42.483
-40.342
-38.175
-35.989
-33.795
-31.6
-29.417
-27.256
-25.132
-23.061
-21.061
-19.148
-17.338
-15.649
-14.097
-12.698
-11.464
-10.404
-9.528
-8.847
-8.374
-8.122
-8.101
-8.317
-8.775
-9.48
-10.433
-11.633
-13.073
-14.737
-16.617
-18.71
-21.024
-23.572
-26.364
-29.396
-32.657
-36.137
-39.818
-43.677
-47.672
-51.742
-55.827
-59.874
-63.84
-67.692
-71.377
-74.83
-77.977
-80.734
-83.035
-84.841
-86.135
-86.913
-87.197
-87.017
-86.421
-85.533
-84.496
-83.478
-82.66
-82.2
-82.247
-83.014
-84.806
-87.789
-91.921
-96.919
-102.2
-107.177
-111.447
-114.548
-115.813
-114.918
-112.146
-108.359
-105.24
-104.473
-106.944
-113.39
-124.645
-140.537
-159.59
-179.075
-194.636
-201.747
-197.132
-177.543
-139.617
-81.67
-3.973
90.876
197.549
309.955
422.505
528.501
620.254
690.987
735.189
749.994
735.464
692.494
622.58
529.219
417.738
294.598
166.889
40.15
-81.619
-194.123
-293.402
-376.405
-441.07
-487.35
-516.632
-529.642
-526.764
-509.427
-479.726
-440.647
-395.771
-347.54
-297.78
-249.091
-204.522
-166.555
-136.616
-114.693
-99.698
-90.713
-86.793
-86.22
-86.534
-85.396
-81.433
-74.318
-64.507
-52.646
-39.315
-25.485
-12.684
-2.287
4.932
8.749
9.491
7.697
3.763
-1.767
-8.107
-14.596
-20.693
-26.01
-30.464
-34.049
-36.731
-38.535
-39.507
-39.647
-39.006
-37.652
-35.628
-33.007
-29.843
-26.188
-22.14
-17.827
-13.413
-9.041
-4.794
-0.712
3.183
6.873
10.337
13.576
16.636
19.572
22.437
25.271
28.1
30.959
33.903
36.998
40.32
43.925
47.842
52.094
56.695
61.655
66.978
72.654
78.652
84.943
91.502
98.309
105.345
112.582
119.988
127.523
135.152
142.837
150.543
158.233
165.867
173.407
180.817
188.06
195.105
201.917
208.458
214.692
220.582
226.092
231.187
235.835
240.004
243.665
246.792
249.363
251.361
252.769
253.575
253.77
253.348
252.308
250.65
248.38
245.504
242.035
237.987
233.377
228.226
222.558
216.396
209.771
202.712
195.252
187.426
179.268
170.817
162.11
153.188
144.091
134.857
125.529
116.146
106.747
97.373
88.06
78.845
69.763
60.846
52.124
43.626
35.379
27.406
19.729
12.366
5.335
-1.35
-7.677
-13.636
-19.222
-24.43
-29.256
-33.703
-37.771
-41.465
-44.792
-47.759
-50.378
-52.659
-54.615
-56.261
-57.612
-58.685
-59.497
-60.066
-60.41
-60.547
-60.496
-60.276
-59.904
-59.399
-58.777
-58.055
-57.25
-56.377
-55.451
-54.485
-53.492
-52.486
-51.476
-50.475
-49.491
-48.533
-47.609
-46.726
-45.89
-45.105
-44.377
-43.709
-43.104
-42.564
-42.09
-41.683
-41.345
-41.075
-40.872
-40.738
-40.67
-40.668
-40.731
-40.857
-41.047
-41.297
-41.607
-41.975
-42.399
-42.879
-43.412
-43.995
-44.628
-45.308
-46.032
-46.798
-47.604
-48.446
-49.321
-50.227
-51.16
-52.118
-53.097
-54.094
-55.104
-56.126
-57.155
-58.186
-59.216
-60.239
-61.251
-62.246
-63.219
-64.163
-65.072
-65.941
-66.762
-67.53
-68.238
-68.881
-69.452
-69.947
-70.358
-70.682
-70.914
-71.049
-71.084
-71.013
-70.836
-70.549
-70.151
-69.641
-69.018
-68.28
-67.429
-66.466
-65.391
-64.205
-62.912
-61.513
-60.014
-58.418
-56.734
-54.966
-53.122
-51.21
-49.242
-47.226
-45.175
-43.1
-41.011
-38.92
-36.842
-34.789
-32.775
-30.812
-28.916
-27.1
-25.383
-23.781
-22.311
-20.987
-19.824
-18.836
-18.039
-17.444
-17.058
-16.889
-16.943
-17.229
-17.757
-18.537
-19.573
-20.87
-22.432
-24.262
-26.358
-28.713
-31.312
-34.142
-37.193
-40.464
-43.96
-47.681
-51.614
-55.75
-60.069
-64.541
-69.129
-73.777
-78.409
-82.96
-87.374
-91.602
-95.615
-99.364
-102.787
-105.827
-108.425
-110.534
-112.13
-113.174
-113.647
-113.602
-113.111
-112.292
-111.298
-110.219
-109.158
-108.251
-107.614
-107.412
-107.825
-108.946
-110.909
-113.883
-117.837
-122.673
-128.145
-133.605
-138.456
-142.181
-144.034
-143.522
-140.725
-135.855
-129.582
-123.205
-117.621
-113.692
-112.683
-114.858
-119.157
-123.996
-127.026
-125.037
-115.19
-94.665
-59.69
-9.524
52.601
125.023
206.108
295.49
396.415
502.21
597.695
668.567
699.388
688.225
646.183
582.351
507.473
426.377
336.628
239.86
137.987
33.99
-65.242
-154.419
-230.151
-289.891
-333.967
-364.11
-381.269
-386.448
-381.509
-368.949
-351.797
-333.253
-315.044
-297.51
-281.06
-266.003
-252.217
-239.348
-226.511
-212.448
-196.77
-179.863
-162.133
-144.113
-126.264
-108.914
-92.688
-78.343
-66.217
-56.341
-48.579
-42.604
-38.201
-35.188
-33.185
-31.77
-30.554
-29.191
-27.508
-25.438
-22.901
-19.839
-16.21
-11.997
-7.266
-2.091
3.493
9.453
15.788
22.442
29.255
36.075
42.763
49.193
55.304
61.054
66.386
71.285
75.773
79.877
83.662
87.179
90.443
93.467
96.256
98.839
101.29
103.671
106.035
108.433
110.903
113.486
116.235
119.18
122.323
125.67
129.218
132.969
136.939
141.138
145.571
150.239
155.135
160.251
165.58
171.109
176.818
182.682
188.672
194.759
200.918
207.122
213.337
219.531
225.665
231.701
237.605
243.336
248.852
254.113
259.077
263.706
267.961
271.808
275.211
278.137
280.555
282.439
283.762
284.504
284.643
284.162
283.049
281.293
278.888
275.831
272.124
267.77
262.78
257.165
250.943
244.135
236.764
228.856
220.441
211.554
202.229
192.504
182.42
172.018
161.341
150.436
139.347
128.122
116.804
105.44
94.074
82.747
71.505
60.392
49.448
38.713
28.222
18.005
8.1
-1.455
-10.646
-19.46
-27.883
-35.91
-43.511
-50.649
-57.335
-63.584
-69.342
-74.568
-79.231
-83.289
-86.783
-89.802
-92.314
-94.245
-95.805
-97.259
-98.512
-99.619
-100.643
-101.086
-102.253
-105.467
-108.925
-112.01
-111.372
-103
-91.276
-79.255
-71.337
-73.384
-80.25
-87.93
-93.488
-91.729
-86.348
-80.567
-76.025
-77.781
-84.094
-90.654
-93.673
-84.98
-64.757
-41.447
-22.748
-19.733
-33.754
-54.073
-72.322
-79.667
-74.117
-63.652
-53.361
-46.616
-44.561
-43.821
-42.735
-41.346
-39.508
-37.829
-36.496
-34.921
-33.089
-31.575
-30.488
-29.653
-29.15
-28.486
-28.617
-32.716
-40.275
-48.368
-52.424
-43.673
-22.296
2.796
22.852
25.438
9.274
-13.789
-34.553
-43.236
-37.747
-26.93
-16.341
-9.63
-8.076
-8.092
-7.958
-7.821
-7.541
-7.654
-8.317
-9.042
-9.668
-10.278
-10.856
-11.374
-11.844
-12.282
-12.725
-13.248
-13.87
-14.545
-15.251
-15.984
-16.733
-17.491
-18.248
-18.981
-19.679
-20.337
-20.947
-21.5
-21.988
-22.402
-22.732
-22.974
-23.12
-23.164
-23.102
-22.931
-22.648
-22.254
-21.748
-21.132
-20.409
-19.583
-18.661
-17.651
-16.562
-15.405
-14.193
-12.942
-11.669
-10.393
-9.13
-7.901
-6.724
-5.62
-4.609
-3.704
-2.922
-2.278
-1.792
-1.48
-1.36
-1.446
-1.757
-2.309
-3.116
-4.193
-5.545
-7.168
-9.062
-11.229
-13.672
-16.404
-19.426
-22.725
-26.294
-30.119
-34.174
-38.427
-42.819
-47.268
-51.707
-56.073
-60.324
-64.43
-68.342
-72.006
-75.366
-78.361
-80.963
-83.158
-84.911
-86.204
-87.052
-87.51
-87.717
-87.835
-87.99
-88.272
-88.728
-89.417
-90.447
-91.927
-93.969
-96.659
-99.979
-103.963
-108.745
-114.244
-120.208
-126.162
-131.261
-134.807
-136.385
-135.455
-131.584
-124.828
-115.463
-104.318
-92.879
-82.142
-72.793
-65.716
-61.083
-58.146
-55.661
-51.45
-42.727
-27.434
-3.485
31.794
79.988
141.258
213.281
290.667
367.583
439.061
505.179
570.493
636.846
702.725
753.284
762.15
711.327
593.346
424.245
241.561
74.917
-56.076
-150.742
-226.583
-293.787
-357.3
-415.092
-456.889
-479.247
-482.516
-469.413
-447.406
-422.037
-396.877
-374.53
-355.25
-338.661
-324.727
-312.817
-301.706
-289.978
-276.064
-259.225
-239.734
-218.202
-195.387
-172.065
-149.027
-127.246
-107.776
-91.29
-77.988
-67.799
-60.455
-55.703
-53.392
-53.268
-54.952
-58.049
-62.179
-67.068
-72.534
-78.387
-84.362
-90.137
-95.424
-99.99
-103.706
-106.508
-108.342
-109.17
-108.978
-107.801
-105.732
-102.908
-99.464
-95.492
-91.081
-86.317
-81.326
-76.276
-71.3
-66.487
-61.886
-57.516
-53.393
-49.533
-45.927
-42.53
-39.289
-36.135
-33.014
-29.89
-26.718
-23.447
-20.011
-16.333
-12.355
-8.043
-3.37
1.68
7.117
12.95
19.169
25.751
32.678
39.928
47.484
55.33
63.432
71.761
80.294
88.987
97.777
106.612
115.432
124.195
132.901
141.514
149.96
158.231
166.374
174.413
182.381
190.249
197.87
205.179
212.253
218.943
224.807
229.727
233.8
236.949
239.59
240.904
238.322
232.352
225.341
221.117
226.94
242.452
260.35
273.386
271.265
253.231
229.072
206.368
193.272
191.325
193.257
194.591
192.317
185.506
177.168
168.714
160.076
151.401
142.281
132.639
122.916
113.277
103.69
94.204
84.873
75.718
66.76
57.994
49.378
40.914
32.659
24.645
16.897
9.442
2.284
-4.553
-11.02
-17.093
-22.741
-27.943
-32.743
-37.178
-41.227
-44.943
-48.424
-51.703
-54.861
-57.966
-60.885
-63.493
-65.848
-67.775
-68.841
-69.066
-68.641
-67.393
-65.917
-63.955
-58.866
-50.896
-42.738
-37.839
-44.985
-67.295
-96.116
-121.034
-126.511
-102.547
-60.422
-16.837
11.075
9.077
-15.502
-46.286
-71.335
-79.867
-73.594
-62.622
-51.964
-45.35
-43.321
-42.244
-41.027
-39.928
-38.757
-38.056
-37.971
-38.022
-38.051
-38.1
-38.08
-37.948
-37.764
-37.561
-37.365
-37.267
-37.313
-37.488
-37.816
-38.308
-38.917
-39.639
-40.513
-41.498
-42.502
-43.46
-44.293
-44.99
-45.662
-46.339
-46.896
-47.446
-48.425
-49.928
-51.812
-54.125
-56.395
-59.45
-66.026
-75.592
-85.584
-91.898
-86.714
-70.297
-50.521
-35.162
-35.277
-51.826
-74.266
-94.43
-103.589
-99.996
-91.495
-82.971
-77.665
-76.647
-76.727
-76.387
-75.719
-74.589
-73.445
-72.407
-71.086
-69.382
-67.352
-65.047
-62.545
-59.897
-57.205
-54.568
-51.931
-49.21
-46.436
-43.4
-39.671
-35.306
-30.491
-25.061
-19.64
-13.775
-4.865
6.513
17.796
25.205
20.022
0.086
-26.324
-48.691
-51.623
-26.601
15.671
58.832
85.88
83.935
59.727
29.029
3.746
-6.096
-1.824
6.924
15.085
19.156
18.484
16.537
14.48
12.063
9.476
6.208
2.108
-2.334
-6.932
-11.689
-16.481
-21.204
-25.834
-30.333
-34.674
-38.882
-42.929
-46.716
-50.172
-53.24
-55.846
-57.933
-59.465
-60.428
-60.831
-60.734
-60.203
-59.307
-58.173
-56.941
-55.766
-54.831
-54.316
-54.369
-55.187
-57.022
-59.952
-63.909
-68.639
-73.599
-78.27
-82.29
-85.128
-86.144
-85.196
-82.571
-79.057
-76.103
-74.767
-75.436
-78.737
-85.362
-94.894
-105.936
-115.828
-120.622
-117.243
-103.82
-78.091
-37.685
18.42
89.7
173.096
263.242
355.358
445.61
529.389
601.309
656.163
689.642
700.332
689.429
658.171
607.339
538.226
453.445
357.242
254.816
149.945
44.967
-57.813
-155.35
-243.531
-318.614
-378.61
-423.295
-452.604
-466.086
-463.14
-444.119
-411.692
-369.675
-321.695
-270.557
-218.647
-168.839
-124.881
-90.071
-65.706
-51.563
-46.487
-49.109
-58.205
-71.798
-86.75
-100.051
-109.847
-115.281
-116.415
-113.696
-107.48
-98.657
-88.863
-79.512
-71.406
-64.868
-59.72
-55.648
-52.489
-49.883
-47.192
-43.991
-40.098
-35.506
-30.425
-25.048
-19.454
-13.761
-8.133
-2.676
2.528
7.427
12.059
16.449
20.599
24.524
28.234
31.751
35.126
38.415
41.658
44.89
48.142
51.437
54.803
58.269
61.859
65.597
69.505
73.602
77.909
82.446
87.231
92.273
97.578
103.141
108.962
115.037
121.364
127.936
134.742
141.769
149.002
156.423
164.008
171.73
179.558
187.457
195.391
203.324
211.217
219.03
226.723
234.255
241.586
248.675
255.479
261.958
268.073
273.784
279.055
283.849
288.134
291.877
295.049
297.625
299.581
300.897
301.554
301.535
300.83
299.441
297.369
294.617
291.194
287.099
282.349
276.981
271.007
264.42
257.226
249.427
241.055
232.194
222.888
213.126
202.985
192.616
182.143
171.703
161.349
150.983
140.612
130.428
120.313
109.776
98.753
87.438
75.797
64.454
52.331
36.148
16.735
-2.873
-17.564
-17.867
-4.576
12.901
25.106
18.611
-7.103
-39.39
-68.496
-83.793
-83.684
-77.641
-71.401
-68.979
-71.485
-75.055
-78.006
-80.464
-82.317
-84.168
-86.161
-87.79
-88.923
-89.663
-90.013
-89.968
-89.565
-88.845
-87.875
-86.765
-85.557
-84.229
-82.786
-81.25
-79.637
-77.966
-76.251
-74.493
-72.705
-70.904
-69.106
-67.323
-65.567
-63.847
-62.174
-60.557
-59.005
-57.528
-56.134
-54.83
-53.623
-52.521
-51.529
-50.654
-49.9
-49.272
-48.774
-48.408
-48.178
-48.084
-48.127
-48.307
-48.624
-49.075
-49.658
-50.37
-51.207
-52.166
-53.24
-54.425
-55.714
-57.1
-58.576
-60.132
-61.76
-63.45
-65.192
-66.974
-68.784
-70.61
-72.438
-74.258
-76.057
-77.819
-79.527
-81.166
-82.721
-84.179
-85.53
-86.754
-87.829
-88.757
-89.535
-90.16
-90.636
-90.94
-91.036
-90.939
-90.661
-90.147
-89.357
-88.257
-86.8
-85.021
-82.996
-80.684
-78.012
-75.183
-72.433
-69.63
-66.797
-63.988
-60.713
-58.334
-58.177
-58.38
-58.389
-54.773
-43.424
-28.926
-14.339
-4.214
-4.797
-10.601
-16.979
-20.754
-16.659
-8.495
-0.11
7.624
12.354
15.418
18.541
21.374
24.122
26.652
28.591
30.154
31.51
32.581
33.343
33.804
33.951
33.766
33.242
32.344
31.036
29.336
27.261
24.809
21.988
18.803
15.263
11.387
7.198
2.713
-2.046
-7.05
-12.277
-17.705
-23.323
-29.132
-35.125
-41.28
-47.573
-53.974
-60.449
-66.958
-73.453
-79.864
-86.12
-92.164
-97.938
-103.405
-108.53
-113.263
-117.538
-121.271
-124.411
-126.956
-128.918
-130.302
-131.115
-131.357
-131.064
-130.365
-129.387
-128.234
-127.056
-125.959
-125.084
-124.682
-124.921
-125.894
-127.57
-129.592
-131.448
-132.734
-132.95
-131.577
-128.447
-123.319
-116.507
-109.436
-103.613
-100.787
-101.334
-103.378
-105.439
-106.314
-109.087
-121.426
-145.347
-178.062
-206.727
-206.96
-164.37
-73.319
60.069
210.333
354.978
474.014
551.337
587.85
590.812
572.072
544.344
510.979
468.237
409.613
331.891
237.789
133.969
28.014
-75.437
-173.081
-260.83
-335.439
-394.349
-436.51
-463.282
-475.837
-474.941
-462.905
-442.898
-418.305
-392.471
-366.469
-341.256
-318.618
-298.101
-279.488
-258.915
-231.597
-201.079
-170.69
-146.608
-135.455
-130.949
-128.089
-123.653
-112.586
-99.265
-87.358
-76.531
-68.767
-63.359
-58.922
-56.041
-54.478
-53.71
-53.748
-54.599
-55.937
-57.353
-58.561
-59.134
-58.839
-57.778
-55.906
-53.117
-49.468
-44.985
-39.717
-33.844
-27.504
-20.831
-14.053
-7.322
-0.727
5.637
11.746
17.58
23.1
28.306
33.209
37.814
42.136
46.183
49.954
53.486
56.836
60.079
63.324
66.649
70.105
73.743
77.592
81.675
86.012
90.606
95.444
100.524
105.844
111.409
117.225
123.29
129.591
136.111
142.825
149.709
156.737
163.885
171.122
178.422
185.757
193.103
200.436
207.729
214.951
222.067
229.042
235.837
242.416
248.74
254.769
260.466
265.795
270.723
275.217
279.249
282.789
285.813
288.297
290.221
291.566
292.315
292.457
291.98
290.877
289.145
286.781
283.787
280.171
275.94
271.105
265.683
259.691
253.148
246.079
238.509
230.466
221.982
213.092
203.831
194.237
184.352
174.215
163.87
153.359
142.724
132.008
121.253
110.501
99.792
89.165
78.66
68.314
58.163
48.24
38.58
29.212
20.166
11.467
3.141
-4.791
-12.309
-19.395
-26.035
-32.216
-37.929
-43.167
-47.926
-52.206
-56.008
-59.337
-62.201
-64.609
-66.573
-68.109
-69.233
-69.962
-70.316
-70.318
-69.988
-69.349
-68.427
-67.245
-65.827
-64.2
-62.387
-60.415
-58.307
-56.089
-53.783
-51.413
-49.003
-46.575
-44.149
-41.747
-39.387
-37.089
-34.87
-32.744
-30.725
-28.827
-27.059
-25.43
-23.947
-22.616
-21.44
-20.422
-19.562
-18.86
-18.313
-17.918
-17.671
-17.566
-17.596
-17.756
-18.036
-18.431
-18.932
-19.53
-20.219
-20.99
-21.834
-22.744
-23.712
-24.73
-25.789
-26.883
-28.003
-29.142
-30.294
-31.452
-32.612
-33.768
-34.917
-36.055
-37.179
-38.287
-39.379
-40.454
-41.512
-42.555
-43.585
-44.604
-45.616
-46.625
-47.634
-48.649
-49.672
-50.708
-51.759
-52.829
-53.92
-55.034
-56.172
-57.336
-58.525
-59.739
-60.98
-62.246
-63.536
-64.848
-66.18
-67.528
-68.891
-70.263
-71.64
-73.016
-74.387
-75.747
-77.091
-78.412
-79.703
-80.956
-82.164
-83.319
-84.412
-85.434
-86.376
-87.23
-87.988
-88.643
-89.19
-89.622
-89.936
-90.128
-90.199
-90.146
-89.973
-89.679
-89.269
-88.745
-88.116
-87.387
-86.568
-85.667
-84.696
-83.668
-82.601
-81.511
-80.415
-79.331
-78.276
-77.269
-76.327
-75.468
-74.703
-74.044
-73.507
-73.108
-72.868
-72.803
-72.927
-73.252
-73.791
-74.552
-75.545
-76.766
-78.205
-79.856
-81.717
-83.795
-86.108
-88.664
-91.457
-94.484
-97.727
-101.161
-104.76
-108.475
-112.236
-115.987
-119.679
-123.274
-126.753
-130.073
-133.174
-135.995
-138.455
-140.496
-142.079
-143.157
-143.714
-143.773
-143.378
-142.605
-141.547
-140.268
-138.854
-137.408
-136.039
-134.912
-134.155
-133.934
-134.519
-135.996
-138.295
-141.175
-144.006
-146.1
-146.987
-146.033
-142.551
-136.561
-128.441
-119.184
-110.892
-105.271
-103.394
-106.519
-115.231
-128.753
-145.722
-162.844
-174.619
-176.812
-165.678
-138.479
-95.666
-36.3
40.918
136.236
250.941
378.291
504.569
614.709
690.936
728.022
733.476
715.387
685.078
645.405
589.461
515.449
424.007
319.141
209.511
100.291
-5.748
-104.617
-192.117
-264.536
-319.42
-356.631
-377.51
-383.262
-375.411
-356.698
-331.392
-304.151
-278.169
-254.971
-235.047
-218.564
-205.567
-195.63
-187.278
-178.516
-168.272
-156.388
-143.217
-129.402
-115.394
-101.535
-88.513
-77.192
-68.029
-61.106
-56.211
-52.887
-50.791
-49.678
-49.228
-49.08
-48.9
-48.392
-47.394
-45.871
-43.791
-41.139
-37.909
-34.103
-29.781
-25.043
-19.987
-14.711
-9.301
-3.832
1.607
6.92
12.013
16.793
21.207
25.233
28.863
32.106
34.976
37.497
39.714
41.686
43.464
45.095
46.623
48.084
49.522
50.985
52.517
54.161
55.953
57.926
60.109
62.529
65.206
68.158
71.398
74.932
78.77
82.917
87.379
92.159
97.254
102.661
108.372
114.375
120.655
127.191
133.961
140.934
148.082
155.37
162.763
170.223
177.71
185.182
192.596
199.908
207.074
214.047
220.783
227.236
233.361
239.115
244.454
249.339
253.729
257.591
260.889
263.595
265.68
267.122
267.899
267.996
267.4
266.102
264.096
261.383
257.965
253.852
249.055
243.591
237.482
230.75
223.425
215.537
207.121
198.214
188.855
179.087
168.954
158.502
147.778
136.831
125.71
114.464
103.144
91.797
80.473
69.217
58.075
47.091
36.306
25.759
15.488
5.526
-4.094
-13.344
-22.197
-30.631
-38.626
-46.165
-53.235
-59.825
-65.93
-71.545
-76.669
-81.304
-85.454
-89.128
-92.335
-95.087
-97.398
-99.287
-100.77
-101.869
-102.605
-103
-103.078
-102.863
-102.379
-101.65
-100.7
-99.553
-98.232
-96.76
-95.157
-93.445
-91.644
-89.772
-87.846
-85.883
-83.898
-81.905
-79.915
-77.941
-75.992
-74.076
-72.201
-70.373
-68.597
-66.878
-65.218
-63.621
-62.086
-60.614
-59.204
-57.856
-56.568
-55.336
-54.159
-53.034
-51.958
-50.928
-49.941
-48.996
-48.089
-47.219
-46.386
-45.589
-44.825
-44.091
-43.386
-42.708
-42.058
-41.442
-40.853
-40.285
-39.753
-39.266
-38.835
-38.474
-38.17
-37.901
-37.686
-37.547
-37.438
-37.323
-37.177
-36.956
-36.698
-36.474
-36.244
-35.936
-35.737
-35.867
-36.191
-36.721
-37.496
-38.036
-39.623
-43.504
-47.889
-52.232
-53.249
-47.009
-37.853
-28.671
-23.772
-29.075
-39.333
-50.098
-58.32
-58.963
-55.619
-51.926
-48.69
-48.125
-48.937
-49.461
-50.005
-50.351
-50.605
-51.093
-51.591
-51.916
-52.122
-52.216
-52.172
-51.991
-51.684
-51.253
-50.728
-50.146
-49.488
-48.741
-47.908
-46.991
-45.991
-44.913
-43.755
-42.516
-41.201
-39.818
-38.37
-36.864
-35.305
-33.696
-32.046
-30.362
-28.653
-26.928
-25.199
-23.478
-21.782
-20.129
-18.534
-17.014
-15.585
-14.264
-13.064
-11.998
-11.073
-10.296
-9.677
-9.227
-8.958
-8.879
-8.998
-9.319
-9.85
-10.595
-11.556
-12.727
-14.099
-15.67
-17.44
-19.423
-21.643
-24.112
-26.833
-29.801
-33.002
-36.417
-40.014
-43.741
-47.523
-51.288
-54.979
-58.547
-61.953
-65.138
-68.032
-70.555
-72.625
-74.184
-75.197
-75.655
-75.568
-74.982
-73.976
-72.66
-71.203
-69.788
-68.586
-67.774
-67.544
-68.067
-69.576
-72.38
-76.597
-82.154
-88.805
-96.009
-103.213
-110.009
-115.75
-119.604
-121.28
-120.996
-119.577
-118.619
-119.348
-122.307
-128.264
-138.037
-151.245
-166.366
-180.454
-189.087
-188.576
-176.512
-150.29
-107.178
-46.102
32.205
124.728
225.866
330.267
433.691
531.036
616.072
683.381
728.642
749.382
746.056
719.305
669.029
596.615
505.421
399.778
285.012
166.407
47.694
-66.83
-171.697
-262.17
-334.724
-387.658
-421.482
-437.713
-437.802
-424.338
-401.306
-373.053
-343.933
-316.79
-292.62
-271.772
-254.351
-239.921
-227.457
-215.422
-202.022
-186.439
-168.917
-149.977
-130.328
-110.63
-91.43
-73.55
-57.935
-45.123
-35.283
-28.308
-23.823
-21.508
-21.133
-22.332
-24.673
-27.703
-30.927
-34.025
-36.835
-39.228
-41.128
-42.441
-43.056
-42.906
-41.945
-40.158
-37.578
-34.236
-30.164
-25.459
-20.251
-14.727
-9.138
-3.655
1.628
6.646
11.388
15.834
19.957
23.757
27.256
30.468
33.42
36.127
38.597
40.872
43.011
45.098
47.245
49.535
52.023
54.753
57.753
61.041
64.641
68.556
72.774
77.292
82.109
87.226
92.649
98.375
104.387
110.667
117.184
123.909
130.816
137.873
145.047
152.307
159.62
166.955
174.285
181.579
188.8
195.912
202.875
209.65
216.197
222.478
228.454
234.088
239.345
244.193
248.602
252.546
256
258.94
261.347
263.205
264.5
265.219
265.356
264.905
263.865
262.238
260.03
257.249
253.909
250.026
245.617
240.705
235.313
229.468
223.198
216.531
209.498
202.136
194.48
186.569
178.44
170.13
161.673
153.112
144.493
135.838
127.172
118.521
109.904
101.368
92.968
84.714
76.613
68.74
61.159
53.921
47.092
40.652
34.539
28.809
23.551
18.571
13.638
8.898
4.34
-0.081
-3.853
-8.362
-14.959
-21.729
-28.098
-30.547
-24.863
-15.733
-6.287
-1.178
-6.794
-17.511
-28.567
-36.701
-36.517
-31.9
-26.789
-22.069
-20.147
-19.649
-18.807
-17.972
-16.932
-15.816
-14.998
-14.252
-13.398
-12.507
-11.601
-10.665
-9.709
-8.753
-7.808
-6.912
-6.108
-5.381
-4.717
-4.122
-3.594
-3.133
-2.74
-2.408
-2.131
-1.906
-1.733
-1.607
-1.525
-1.481
-1.47
-1.487
-1.528
-1.586
-1.657
-1.736
-1.818
-1.9
-1.977
-2.047
-2.105
-2.15
-2.179
-2.19
-2.183
-2.156
-2.11
-2.045
-1.962
-1.863
-1.749
-1.623
-1.489
-1.35
-1.209
-1.071
-0.941
-0.822
-0.719
-0.638
-0.581
-0.555
-0.563
-0.61
-0.698
-0.831
-1.01
-1.239
-1.517
-1.846
-2.223
-2.647
-3.117
-3.628
-4.177
-4.758
-5.367
-5.997
-6.64
-7.289
-7.937
-8.574
-9.191
-9.776
-10.321
-10.813
-11.243
-11.597
-11.863
-12.029
-12.085
-12.017
-11.815
-11.469
-10.967
-10.302
-9.465
-8.45
-7.251
-5.865
-4.288
-2.522
-0.566
1.576
3.9
6.398
9.064
11.887
14.855
17.954
21.169
24.485
27.885
31.35
34.859
38.39
41.923
45.434
48.897
52.285
55.567
58.711
61.688
64.467
67.017
69.307
71.311
73.003
74.364
75.376
76.019
76.274
76.126
75.561
74.571
73.148
71.286
68.985
66.248
63.085
59.512
55.54
51.177
46.428
41.288
35.764
29.869
23.622
17.048
10.181
3.062
-4.249
-11.674
-19.139
-26.574
-33.911
-41.085
-48.014
-54.61
-60.79
-66.474
-71.586
-76.075
-79.915
-83.099
-85.658
-87.641
-89.094
-90.122
-90.86
-91.458
-92.097
-92.964
-94.225
-96.107
-98.892
-102.688
-107.435
-112.892
-118.535
-123.866
-128.53
-131.957
-133.439
-132.773
-130.234
-126.686
-123.633
-122.173
-122.817
-126.392
-133.894
-145.177
-158.861
-171.988
-180.46
-181.21
-171.684
-148.541
-108.435
-49.269
27.503
115.873
210.77
309.287
410.14
514.197
613.233
692.893
741.187
745.947
707.57
637.6
546.233
446.366
345.57
242.815
138.9
34.544
-68.13
-162.905
-245.832
-315.792
-372.943
-418.671
-453.652
-477.873
-491.723
-496.028
-491.975
-480.458
-461.745
-436.576
-406.354
-372.548
-337.026
-301.959
-268.786
-239.015
-214.566
-196.215
-183.958
-177.589
-175.849
-176.809
-179.3
-182.154
-183.866
-183.909
-182.124
-178.403
-173.522
-168.636
-164.232
-160.636
-158.241
-156.921
-156.528
-156.982
-157.741
-158.162
-157.896
-156.701
-154.423
-151.094
-146.709
-141.256
-134.887
-127.809
-120.225
-112.365
-104.391
-96.409
-88.517
-80.781
-73.247
-65.946
-58.885
-52.046
-45.427
-39.038
-32.895
-27.013
-21.389
-15.994
-10.782
-5.682
-0.638
4.409
9.502
14.673
19.945
25.334
30.837
36.441
42.136
47.914
53.777
59.727
65.761
71.872
78.046
84.264
90.508
96.754
102.979
109.156
115.262
121.271
127.164
132.923
138.528
143.957
149.187
154.195
158.954
163.441
167.63
171.495
175.011
178.157
180.912
183.258
185.177
186.655
187.678
188.236
188.32
187.922
187.036
185.663
183.806
181.469
178.658
175.381
171.645
167.469
162.878
157.876
152.473
146.685
140.52
134.019
127.234
120.174
112.846
105.332
97.701
90.013
82.347
74.698
67.024
59.397
51.926
44.443
36.741
28.99
21.203
13.362
5.998
-2.232
-12.635
-23.295
-33.619
-40.105
-38.568
-33.614
-28.314
-27.244
-36.695
-51.095
-65.722
-77.344
-80.616
-79.367
-77.477
-75.815
-76.751
-78.926
-80.589
-82.088
-83.212
-84.093
-85.103
-86.023
-86.681
-87.154
-87.471
-87.625
-87.637
-87.534
-87.337
-87.096
-86.863
-86.635
-86.408
-86.198
-86.016
-85.871
-85.772
-85.724
-85.725
-85.783
-85.901
-86.081
-86.323
-86.625
-86.983
-87.392
-87.848
-88.343
-88.871
-89.423
-89.991
-90.565
-91.135
-91.694
-92.23
-92.734
-93.197
-93.609
-93.963
-94.248
-94.458
-94.585
-94.621
-94.561
-94.399
-94.13
-93.749
-93.254
-92.643
-91.913
-91.065
-90.101
-89.022
-87.833
-86.537
-85.142
-83.654
-82.082
-80.435
-78.723
-76.957
-75.148
-73.308
-71.449
-69.582
-67.719
-65.872
-64.052
-62.27
-60.535
-58.858
-57.247
-55.71
-54.255
-52.888
-51.614
-50.44
-49.369
-48.404
-47.549
-46.804
-46.17
-45.646
-45.229
-44.915
-44.701
-44.581
-44.546
-44.589
-44.7
-44.87
-45.087
-45.341
-45.62
-45.911
-46.201
-46.478
-46.73
-46.944
-47.109
-47.211
-47.24
-47.187
-47.041
-46.793
-46.437
-45.964
-45.369
-44.645
-43.789
-42.797
-41.666
-40.395
-38.983
-37.431
-35.743
-33.923
-31.974
-29.905
-27.723
-25.438
-23.061
-20.603
-18.076
-15.493
-12.867
-10.216
-7.552
-4.892
-2.251
0.35
2.892
5.353
7.714
9.954
12.054
13.994
15.756
17.325
18.692
19.846
20.778
21.478
21.933
22.132
22.07
21.744
21.15
20.288
19.158
17.77
16.141
14.284
12.208
9.915
7.39
4.628
1.635
-1.582
-5.004
-8.603
-12.353
-16.208
-20.097
-23.961
-27.737
-31.375
-34.843
-38.09
-41.052
-43.66
-45.828
-47.489
-48.596
-49.117
-49.061
-48.468
-47.397
-45.941
-44.204
-42.301
-40.397
-38.655
-37.243
-36.363
-36.158
-36.839
-38.741
-41.961
-46.402
-51.751
-57.26
-62.203
-66.165
-68.493
-68.432
-65.976
-61.457
-55.871
-51.39
-49.636
-51.429
-57.869
-69.495
-85.245
-103.336
-120.431
-131.212
-131.59
-118.3
-87.479
-36.723
34.158
123.833
227.962
339.608
453.081
562.469
659.792
737.804
790.784
814.346
809.248
779.961
726.559
649.038
547.633
419.528
272.886
122.508
-18.732
-134.069
-218.685
-280.759
-327.106
-367.539
-405.108
-432.617
-446.004
-443.764
-428.259
-406.645
-383.946
-361.899
-340.751
-320.244
-300.657
-282.319
-264.828
-246.947
-227.101
-204.861
-180.899
-155.723
-129.609
-103.079
-76.833
-51.803
-29.626
-10.174
9.02
27.565
43.352
52.731
48.31
30.599
7.66
-12.556
-18.899
-10.013
4.071
15.668
16.621
5.493
-9.696
-23.918
-33.926
-38.565
-40.914
-42.432
-42.936
-42.577
-41.05
-38.321
-34.86
-30.844
-26.186
-20.938
-15.313
-9.52
-3.66
2.038
7.131
11.538
15.41
18.632
21.559
23.628
22.547
18.733
14.67
14.313
24.586
46.604
74.236
98.299
107.807
98.459
76.175
53.219
40.874
45.277
65.133
90.331
113.125
129.286
136.581
140.14
143.605
147.895
154.82
162.871
170.691
178.693
186.544
194.325
202.357
210.355
218.076
225.503
232.546
239.123
245.237
250.875
256.005
260.631
264.759
268.349
271.369
273.807
275.639
276.851
277.435
277.381
276.682
275.34
273.363
270.758
267.537
263.714
259.306
254.333
248.821
242.794
236.28
229.311
221.918
214.136
206.003
197.555
188.832
179.874
170.721
161.414
151.993
142.497
132.966
123.439
113.952
104.543
95.246
86.096
77.125
68.363
59.837
51.572
43.592
35.916
28.562
21.545
14.874
8.56
2.616
-2.948
-8.127
-12.92
-17.332
-21.364
-25.009
-28.278
-31.204
-33.817
-36.149
-38.216
-39.996
-41.498
-42.777
-43.824
-44.573
-44.979
-44.989
-44.613
-43.978
-43.137
-41.997
-40.69
-39.648
-38.984
-38.59
-38.535
-38.399
-38.988
-42.894
-49.635
-56.829
-60.642
-53.758
-36.467
-16.171
-0.188
1.085
-13.241
-33.296
-51.435
-59.469
-55.79
-47.763
-39.97
-35.466
-35.255
-36.334
-37.296
-38.245
-39.066
-40.198
-41.76
-43.338
-44.796
-46.2
-47.531
-48.765
-49.911
-50.981
-52.009
-53.057
-54.147
-55.24
-56.325
-57.402
-58.469
-59.526
-60.572
-61.597
-62.598
-63.58
-64.545
-65.494
-66.43
-67.353
-68.263
-69.162
-70.052
-70.937
-71.818
-72.699
-73.583
-74.473
-75.373
-76.286
-77.214
-78.16
-79.125
-80.11
-81.116
-82.142
-83.189
-84.254
-85.335
-86.432
-87.54
-88.657
-89.779
-90.901
-92.017
-93.123
-94.211
-95.277
-96.312
-97.31
-98.263
-99.165
-100.008
-100.787
-101.492
-102.118
-102.656
-103.099
-103.441
-103.674
-103.79
-103.784
-103.649
-103.382
-102.979
-102.436
-101.751
-100.923
-99.953
-98.841
-97.592
-96.208
-94.694
-93.055
-91.299
-89.435
-87.473
-85.424
-83.3
-81.113
-78.88
-76.62
-74.354
-72.099
-69.875
-67.7
-65.597
-63.585
-61.681
-59.896
-58.243
-56.739
-55.398
-54.239
-53.278
-52.526
-51.996
-51.698
-51.642
-51.834
-52.273
-52.953
-53.867
-55.011
-56.392
-58.024
-59.917
-62.073
-64.477
-67.103
-69.937
-72.958
-76.123
-79.375
-82.64
-85.838
-88.938
-91.932
-94.718
-97.196
-99.28
-100.855
-101.904
-102.464
-102.47
-101.856
-100.869
-99.826
-98.676
-97.524
-96.484
-95.143
-95.021
-97.617
-101.185
-105.243
-106.306
-100.37
-92.326
-85.299
-83.755
-93.471
-107.935
-121.861
-131.549
-130.753
-122.913
-112.243
-100.58
-92.094
-87.335
-84.113
-80.68
-78.04
-77.955
-83.877
-101.413
-124.977
-142.878
-144.097
-113.394
-49.002
37.413
135.874
233.206
322.621
408.077
489.993
565.798
631.11
678.22
702.021
701.717
678.004
631.432
563.257
476.318
374.391
262.698
147.089
31.846
-78.734
-179.248
-265.03
-332.582
-380.069
-408.131
-418.68
-413.538
-395.497
-368.547
-336.97
-305.072
-275.764
-250.156
-228.589
-211.081
-197.163
-185.854
-175.702
-165.02
-152.967
-139.581
-125.194
-110.349
-95.567
-81.335
-68.321
-57.267
-48.537
-42.094
-37.722
-35.059
-33.726
-33.424
-33.8
-34.413
-34.914
-35.086
-34.805
-34.041
-32.792
-31.019
-28.722
-25.956
-22.772
-19.243
-15.427
-11.353
-7.119
-2.844
1.37
5.402
9.151
12.567
15.607
18.242
20.491
22.375
23.926
25.204
26.257
27.124
27.843
28.44
28.969
29.493
30.066
30.74
31.565
32.579
33.826
35.347
37.162
39.284
41.725
44.487
47.582
51.02
54.807
58.948
63.442
68.286
73.472
78.994
84.837
90.984
97.412
104.093
111.002
118.112
125.391
132.807
140.322
147.897
155.495
163.075
170.595
178.011
185.28
192.358
199.202
205.772
212.026
217.923
223.426
228.498
233.105
237.214
240.797
243.825
246.274
248.122
249.351
249.945
249.892
249.184
247.815
245.785
243.096
239.756
235.774
231.164
225.943
220.131
213.754
206.837
199.41
191.504
183.155
174.4
165.278
155.829
146.096
136.12
125.946
115.617
105.178
94.672
84.142
73.631
63.182
52.836
42.631
32.607
22.8
13.245
3.974
-4.982
-13.596
-21.842
-29.697
-37.141
-44.157
-50.73
-56.849
-62.505
-67.692
-72.407
-76.65
-80.425
-83.737
-86.594
-89.006
-90.987
-92.552
-93.719
-94.508
-94.937
-95.025
-94.795
-94.267
-93.469
-92.429
-91.168
-89.702
-88.072
-86.313
-84.459
-82.548
-80.592
-78.587
-76.575
-74.599
-72.63
-70.649
-68.645
-66.59
-64.536
-62.569
-60.659
-58.742
-57.021
-55.734
-54.746
-54.074
-53.763
-53.314
-54.071
-57.338
-61.243
-65.214
-65.814
-58.926
-49.088
-39.322
-34.129
-39.699
-50.537
-61.985
-70.848
-71.853
-68.752
-65.348
-62.478
-62.456
-63.922
-65.128
-66.396
-67.492
-68.524
-69.836
-71.188
-72.391
-73.499
-74.521
-75.43
-76.227
-76.923
-77.522
-78.056
-78.563
-79.028
-79.436
-79.796
-80.11
-80.382
-80.618
-80.818
-80.98
-81.109
-81.207
-81.277
-81.317
-81.326
-81.303
-81.248
-81.163
-81.048
-80.906
-80.742
-80.559
-80.36
-80.147
-79.918
-79.671
-79.397
-79.089
-78.736
-78.33
-77.863
-77.329
-76.721
-76.036
-75.274
-74.431
-73.501
-72.468
-71.313
-70.021
-68.587
-67.012
-65.308
-63.5
-61.622
-59.715
-57.822
-55.976
-54.196
-52.479
-50.802
-49.14
-47.46
-45.753
-44.029
-42.296
-40.559
-38.811
-37.04
-35.211
-33.267
-31.138
-28.736
-26.009
-22.935
-19.544
-15.915
-12.151
-8.385
-4.724
-1.238
2.006
4.953
7.547
9.729
11.416
12.514
12.9
12.423
10.977
8.494
4.968
0.459
-4.937
-11.067
-17.794
-25.006
-32.603
-40.497
-48.601
-56.818
-65.015
-73.059
-80.786
-87.992
-94.508
-100.184
-104.908
-108.623
-111.313
-113.017
-113.784
-113.67
-112.706
-110.908
-108.328
-105.058
-101.264
-97.15
-92.933
-88.856
-85.197
-82.305
-80.411
-79.567
-79.622
-80.139
-80.661
-80.847
-80.277
-78.41
-75.019
-70.342
-65.088
-60.683
-58.584
-59.617
-64.495
-73.948
-87.821
-104.977
-123.35
-138.967
-147.174
-144.775
-128.657
-96.847
-50.275
11.746
89.908
183.825
295.117
418.073
540.186
647.836
724.488
764.932
775.898
764.683
741.431
708.228
657.906
588.019
498.354
392.315
278.595
162.65
47.415
-62.697
-163.282
-250.229
-319.569
-369.948
-402.44
-417.953
-417.629
-404.123
-381.087
-352.777
-323.575
-295.954
-270.62
-248.109
-228.602
-211.662
-196.426
-181.365
-164.668
-145.579
-124.308
-101.296
-77.242
-52.816
-28.606
-5.498
15.474
33.643
48.724
60.729
69.937
76.619
80.972
83.285
83.9
83.142
81.323
78.669
75.309
71.357
66.95
62.269
57.548
53.07
49.09
45.776
43.244
41.563
40.743
40.779
41.635
43.211
45.421
48.219
51.538
55.341
59.667
64.5
69.773
75.405
81.227
87.051
92.839
98.613
104.116
109.086
113.725
118.073
122.108
126.457
129.748
130.613
131.208
132.193
137.311
151.137
168.786
186.823
199.842
200.865
196.123
190.751
188.727
195.093
203.051
208.785
213.679
219.014
233.575
258.842
286.958
310.701
319.393
311.915
298.543
287.072
285.835
296.835
312.644
328.453
341.337
349.641
356.646
366.491
378.73
390.676
398.16
391.762
368.84
338.641
312.076
305.593
329.398
371.508
414.44
440.109
433.767
403.297
365.838
333.955
318.895
318.742
322.997
326.479
325.32
319.055
311.51
303.835
295.816
287.689
278.931
269.447
259.782
250.138
240.515
231.048
221.825
212.83
204.066
195.53
187.17
178.998
171.081
163.448
156.114
149.11
142.451
136.156
130.252
124.747
119.645
114.945
110.649
106.751
103.249
100.133
97.392
95.011
92.973
91.261
89.852
88.723
87.85
87.206
86.763
86.492
86.365
86.352
86.424
86.551
86.706
86.858
86.982
87.05
87.037
86.917
86.668
86.268
85.697
84.937
83.972
82.789
81.376
79.726
77.83
75.684
73.286
70.635
67.732
64.582
61.19
57.563
53.712
49.647
45.381
40.93
36.307
31.525
26.599
21.542
16.367
11.097
5.746
0.325
-5.133
-10.603
-16.072
-21.508
-26.896
-32.259
-37.597
-42.905
-48.252
-53.67
-59.139
-64.699
-70.357
-75.996
-81.554
-87.025
-92.122
-96.611
-100.771
-104.622
-107.993
-111.574
-114.537
-115.662
-116.705
-118.299
-123.385
-137.323
-158.695
-183.519
-204.222
-209.348
-195.198
-167.568
-138.944
-124.007
-132.404
-160.757
-195.596
-224.953
-239.712
-239.737
-235.356
-233.672
-236.693
-244.501
-250.095
-247.957
-242.596
-236.854
-235.772
-245.562
-260.261
-275.109
-286.992
-290.636
-289.731
-288.057
-286.45
-287.238
-289.16
-290.511
-291.57
-292.1
-292.21
-292.236
-291.95
-291.165
-289.928
-288.254
-286.13
-283.573
-280.605
-277.249
-273.557
-269.589
-265.352
-260.853
-256.127
-251.199
-246.099
-240.855
-235.486
-230.011
-224.459
-218.859
-213.243
-207.639
-202.071
-196.565
-191.144
-185.831
-180.647
-175.603
-170.703
-165.956
-161.373
-156.974
-152.792
-148.851
-145.16
-141.727
-138.551
-135.616
-132.905
-130.374
-127.954
-125.586
-123.214
-120.794
-118.301
-115.692
-112.913
-109.904
-106.59
-102.919
-98.85
-94.356
-89.444
-84.154
-78.556
-72.763
-66.919
-61.162
-55.656
-50.555
-46.001
-42.167
-39.18
-37.214
-36.529
-37.204
-39.16
-42.152
-45.595
-48.855
-51.481
-52.782
-51.925
-48.698
-43.235
-36.229
-29.384
-24.093
-21.187
-21.872
-27.047
-36.188
-48.02
-59.914
-67.359
-66.683
-54.909
-28.249
16.036
78.596
158.809
253.353
356.214
462.176
565.71
659.294
736.12
790.503
817.6
815.885
786.114
728.479
644.751
539.387
417.641
286.063
151.783
19.782
-105.382
-218.242
-314.666
-391.966
-448.952
-486.871
-508.038
-513.961
-506.806
-489.736
-465.638
-437.772
-408.591
-379.105
-350.148
-323.195
-299.723
-280.816
-267.388
-259.381
-256.658
-259.302
-266.89
-278.21
-291.334
-304.391
-315.736
-324.474
-330.214
-332.702
-332.058
-328.946
-324.583
-320.037
-316.115
-313.175
-311.093
-309.713
-308.824
-308.024
-306.771
-304.669
-301.488
-297.185
-291.945
-285.924
-279.239
-272.035
-264.445
-256.569
-248.483
-240.238
-231.849
-223.335
-214.717
-206.009
-197.224
-188.364
-179.415
-170.35
-161.128
-151.718
-142.099
-132.253
-122.174
-111.854
-101.282
-90.453
-79.362
-68.005
-56.382
-44.489
-32.325
-19.896
-7.216
5.698
18.822
32.131
45.604
59.215
72.937
86.741
100.596
114.468
128.323
142.12
155.816
169.368
182.728
195.847
208.68
221.178
233.293
244.976
256.183
266.865
276.98
286.483
295.332
303.49
310.919
317.586
323.461
328.517
332.729
336.08
338.553
340.136
340.822
340.606
339.49
337.477
334.577
330.804
326.174
320.71
314.436
307.381
299.579
291.067
281.883
272.07
261.673
250.739
239.318
227.459
215.215
202.639
189.782
176.7
163.443
150.065
136.616
123.145
109.699
96.325
83.066
69.963
57.055
44.378
31.966
19.849
8.055
-3.391
-14.468
-25.156
-35.441
-45.308
-54.75
-63.757
-72.327
-80.456
-88.147
-95.403
-102.228
-108.631
-114.621
-120.211
-125.414
-130.244
-134.718
-138.851
-142.661
-146.166
-149.383
-152.33
-155.024
-157.482
-159.721
-161.756
-163.603
-165.276
-166.789
-168.155
-169.385
-170.492
-171.483
-172.37
-173.16
-173.86
-174.477
-175.018
-175.486
-175.888
-176.227
-176.505
-176.726
-176.891
-177.002
-177.059
-177.062
-177.011
-176.906
-176.746
-176.53
-176.257
-175.926
-175.536
-175.087
-174.576
-174.004
-173.368
-172.669
-171.905
-171.075
-170.18
-169.217
-168.187
-167.088
-165.921
-164.683
-163.374
-161.992
-160.534
-159
-157.385
-155.687
-153.903
-152.028
-150.059
-147.99
-145.819
-143.539
-141.144
-138.63
-135.99
-133.218
-130.309
-127.255
-124.051
-120.691
-117.17
-113.484
-109.626
-105.595
-101.386
-96.997
-92.425
-87.668
-82.726
-77.599
-72.285
-66.786
-61.105
-55.245
-49.21
-43.006
-36.638
-30.115
-23.446
-16.642
-9.712
-2.67
4.471
11.697
18.989
26.332
33.707
41.093
48.472
55.822
63.12
70.345
77.474
84.486
91.36
98.074
104.607
110.936
117.043
122.908
128.509
133.825
138.832
143.509
147.837
151.797
155.37
158.541
161.296
163.625
165.526
166.995
168.029
168.622
168.774
168.487
167.768
166.626
165.069
163.111
160.769
158.069
155.039
151.706
148.088
144.197
140.037
135.621
130.97
126.11
121.073
115.894
110.614
105.294
100.012
94.84
89.845
85.085
80.611
76.492
72.798
69.605
66.992
65.027
63.758
63.2
63.351
64.18
65.652
67.72
70.281
73.182
76.251
79.319
82.216
84.809
86.915
88.225
88.611
88.151
87.1
85.997
85.355
85.448
86.727
89.82
94.789
101.27
108.356
114.444
118.43
119.518
116.745
109.606
98.478
86.243
77.082
73.699
79.026
92.489
113.465
148.664
201.318
274.645
370.879
478.681
588.472
691.695
776.351
840.042
881.482
898.217
892.291
863.608
811.238
737.71
646.897
543.894
435.027
325.112
217.246
114.983
22.464
-56.969
-120.952
-168.964
-202.508
-222.904
-231.153
-229.365
-220.472
-207.847
-195.029
-183.998
-175.215
-169.122
-166.008
-165.666
-167.541
-170.416
-172.715
-173.791
-173.757
-172.856
-171.505
-170.034
-168.696
-168.027
-168.691
-170.966
-174.796
-179.92
-185.909
-192.426
-199.229
-206.015
-212.426
-218.141
-222.941
-226.719
-229.467
-231.196
-231.893
-231.55
-230.194
-227.897
-224.749
-220.852
-216.292
-211.148
-205.512
-199.484
-193.172
-186.688
-180.106
-173.471
-166.814
-160.151
-153.493
-146.85
-140.218
-133.571
-126.895
-120.176
-113.404
-106.576
-99.682
-92.702
-85.623
-78.429
-71.11
-63.661
-56.075
-48.349
-40.482
-32.473
-24.328
-16.052
-7.649
0.878
9.526
18.293
27.175
36.163
45.252
54.435
63.698
73.031
82.417
91.84
101.282
110.723
120.144
129.522
138.835
148.058
157.166
166.135
174.938
183.546
191.932
200.068
207.925
215.475
222.688
229.536
235.992
242.028
247.619
252.738
257.362
261.469
265.037
268.046
270.48
272.322
273.56
274.181
274.178
273.544
272.276
270.373
267.837
264.674
260.89
256.494
251.501
245.923
239.778
233.086
225.867
218.145
209.945
201.296
192.224
182.762
172.939
162.79
152.347
141.645
130.719
119.604
108.336
96.95
85.483
73.969
62.444
50.941
39.493
28.134
16.895
5.804
-5.11
-15.819
-26.3
-36.53
-46.486
-56.151
-65.506
-74.538
-83.234
-91.582
-99.575
-107.205
-114.467
-121.36
-127.883
-134.035
-139.821
-145.244
-150.31
-155.026
-159.402
-163.448
-167.175
-170.595
-173.722
-176.569
-179.152
-181.485
-183.584
-185.465
-187.143
-188.635
-189.956
-191.122
-192.146
-193.045
-193.832
-194.519
-195.119
-195.643
-196.101
-196.503
-196.858
-197.173
-197.456
-197.71
-197.943
-198.157
-198.355
-198.54
-198.712
-198.87
-199.014
-199.14
-199.246
-199.327
-199.379
-199.396
-199.372
-199.3
-199.174
-198.985
-198.727
-198.392
-197.971
-197.457
-196.84
-196.114
-195.27
-194.302
-193.201
-191.961
-190.575
-189.038
-187.343
-185.485
-183.457
-181.255
-178.875
-176.311
-173.562
-170.622
-167.492
-164.171
-160.658
-156.955
-153.066
-148.992
-144.738
-140.31
-135.713
-130.953
-126.038
-120.974
-115.77
-110.434
-104.975
-99.404
-93.73
-87.964
-82.117
-76.2
-70.226
-64.205
-58.15
-52.073
-45.989
-39.91
-33.852
-27.829
-21.857
-15.951
-10.128
-4.405
1.205
6.685
12.024
17.207
22.224
27.062
31.712
36.165
40.409
44.435
48.231
51.785
55.085
58.121
60.885
63.367
65.563
67.468
69.082
70.408
71.447
72.202
72.677
72.878
72.812
72.493
71.931
71.142
70.146
68.962
67.608
66.109
64.478
62.724
60.85
58.849
56.72
54.467
52.095
49.609
47.022
44.355
41.642
38.94
36.305
33.79
31.457
29.359
27.554
26.113
25.106
24.603
24.652
25.282
26.498
28.318
30.76
33.788
37.299
41.106
44.958
48.617
51.862
54.421
55.931
56.152
55.03
52.76
49.854
46.822
43.988
41.719
40.516
40.537
41.377
42.031
40.743
35.807
26.32
11.678
-8.752
-34.627
-64.193
-94.39
-120.555
-137.73
-142.442
-131.768
-102.537
-53.157
15.854
102.105
200.343
304.073
408.132
507.141
594.353
663.945
711.2
732.508
727.394
696.804
640.822
560.8
460.344
343.838
216.932
85.922
-44.536
-169.743
-283.907
-382.249
-461.509
-520.103
-558.724
-579.089
-582.669
-572.218
-551.727
-525.07
-495.726
-465.612
-435.377
-405.959
-378.595
-353.533
-330.285
-308.111
-286.486
-266.261
-248.519
-233.195
-219.525
-207.048
-195.729
-185.946
-177.913
-170.885
-164.125
-157.701
-152.271
-148.427
-146.367
-145.855
-146.494
-148.186
-150.844
-154.106
-157.345
-159.959
-161.546
-161.861
-160.853
-158.49
-154.723
-149.609
-143.296
-135.911
-127.58
-118.495
-108.833
-98.744
-88.418
-77.974
-67.49
-57.107
-46.978
-37.142
-27.57
-18.473
-10.083
-2.236
5.073
11.805
18.527
23.84
26.39
28.293
30.257
36.085
50.307
68.014
85.928
99.152
100.94
97.265
93.184
92.167
99.952
112.435
125.457
138.083
147.758
155.939
164.496
173.046
181.808
190.631
199.107
207.467
215.888
224.285
232.621
240.898
249.081
257.127
264.997
272.62
279.921
286.885
293.495
299.713
305.51
310.857
315.725
320.094
323.946
327.26
330.013
332.19
333.777
334.764
335.145
334.915
334.075
332.627
330.578
327.937
324.718
320.937
316.614
311.769
306.426
300.612
294.357
287.69
280.647
273.261
265.569
257.609
249.42
241.043
232.515
223.878
215.169
206.427
197.689
188.992
180.37
171.858
163.486
155.285
147.282
139.502
131.969
124.701
117.716
111.027
104.646
98.58
92.835
87.413
82.315
77.538
73.077
68.924
65.07
61.503
58.208
55.172
52.377
49.804
47.436
45.253
43.235
41.362
39.612
37.967
36.405
34.907
33.452
32.022
30.598
29.164
27.703
26.203
24.65
23.033
21.344
19.574
17.719
15.775
13.739
11.61
9.39
7.082
4.688
2.214
-0.332
-2.944
-5.612
-8.329
-11.085
-13.871
-16.676
-19.493
-22.312
-25.123
-27.919
-30.691
-33.431
-36.131
-38.784
-41.384
-43.924
-46.401
-48.81
-51.149
-53.417
-55.613
-57.737
-59.793
-61.781
-63.706
-65.571
-67.383
-69.145
-70.865
-72.55
-74.207
-75.844
-77.467
-79.084
-80.703
-82.328
-83.966
-85.621
-87.296
-88.993
-90.716
-92.464
-94.238
-96.038
-97.862
-99.708
-101.573
-103.452
-105.341
-107.233
-109.119
-110.992
-112.842
-114.659
-116.433
-118.15
-119.793
-121.35
-122.804
-124.145
-125.361
-126.433
-127.338
-128.076
-128.647
-129.046
-129.277
-129.315
-129.125
-128.721
-128.119
-127.262
-126.108
-124.625
-122.763
-120.563
-118.107
-115.353
-112.227
-108.943
-105.756
-102.528
-99.285
-96.088
-92.423
-89.735
-89.432
-89.555
-89.526
-85.727
-73.823
-58.666
-43.497
-33.131
-34.168
-40.812
-48.149
-52.824
-49.274
-41.513
-33.611
-26.487
-22.626
-20.613
-18.622
-17.009
-15.541
-14.344
-13.796
-13.662
-13.766
-14.181
-14.923
-15.969
-17.316
-18.96
-20.877
-23.049
-25.447
-27.987
-30.591
-33.219
-35.837
-38.397
-40.848
-43.121
-45.138
-46.854
-48.244
-49.27
-49.907
-50.175
-50.142
-49.932
-49.725
-49.655
-49.804
-50.272
-51.152
-52.569
-54.691
-57.655
-61.549
-66.468
-72.523
-79.692
-87.831
-96.557
-105.162
-112.947
-119.291
-123.539
-125.22
-124.323
-121.121
-116.34
-111.236
-106.715
-103.471
-102.403
-103.649
-106.278
-108.738
-108.498
-102.555
-88.812
-65.153
-28.987
20.893
84.12
158.836
241.089
326.508
411.546
491.586
560.885
614.425
647.998
659.377
648.884
616.866
563.218
489.557
399.161
296.469
187.008
75.214
-35.819
-142.013
-238.476
-321.008
-386.427
-433.7
-463.903
-478.141
-477.559
-464.653
-442.998
-416.715
-389.98
-365.273
-343.396
-324.856
-309.788
-297.692
-287.637
-278.122
-267.385
-254.638
-240.021
-223.871
-206.784
-189.406
-172.271
-156.128
-141.798
-129.663
-119.778
-112.069
-106.321
-102.355
-100.042
-99.107
-99.215
-100.095
-101.478
-103.162
-104.986
-106.725
-108.195
-109.293
-109.957
-110.172
-109.933
-109.179
-107.826
-105.837
-103.2
-99.948
-96.134
-91.802
-87.028
-81.904
-76.555
-71.133
-65.74
-60.419
-55.185
-50.032
-44.951
-39.963
-35.086
-30.308
-25.61
-20.972
-16.367
-11.781
-7.182
-2.514
2.301
7.346
12.685
18.35
24.363
30.734
37.471
44.582
52.062
59.888
68.043
76.508
85.27
94.313
103.616
113.143
122.851
132.696
142.633
152.621
162.616
172.573
182.448
192.196
201.779
211.159
220.294
229.142
237.657
245.795
253.511
260.766
267.518
273.729
279.361
284.385
288.771
292.498
295.545
297.895
299.537
300.461
300.663
300.142
298.901
296.945
294.286
290.937
286.916
282.244
276.947
271.051
264.588
257.59
250.093
242.134
233.752
224.987
215.882
206.479
196.823
186.96
176.935
166.793
156.579
146.338
136.112
125.941
115.864
105.918
96.137
86.552
77.192
68.084
59.252
50.716
42.495
34.605
27.059
19.868
13.039
6.578
0.487
-5.236
-10.59
-15.576
-20.2
-24.466
-28.386
-31.975
-35.239
-38.185
-40.841
-43.234
-45.389
-47.338
-49.086
-50.626
-51.995
-53.233
-54.306
-55.195
-55.887
-56.35
-56.635
-56.83
-56.904
-56.793
-56.701
-56.867
-57.159
-57.597
-58.229
-58.561
-59.935
-63.657
-67.867
-72.001
-72.64
-65.692
-55.685
-45.636
-40.04
-45.068
-55.255
-65.967
-74.029
-74.191
-70.2
-65.849
-61.981
-60.906
-61.276
-61.358
-61.48
-61.417
-61.283
-61.425
-61.613
-61.662
-61.632
-61.535
-61.35
-61.083
-60.748
-60.352
-59.93
-59.524
-59.117
-58.695
-58.265
-57.825
-57.376
-56.919
-56.451
-55.963
-55.457
-54.932
-54.386
-53.818
-53.222
-52.594
-51.929
-51.224
-50.471
-49.666
-48.801
-47.871
-46.869
-45.787
-44.62
-43.36
-42.001
-40.534
-38.954
-37.252
-35.422
-33.458
-31.353
-29.102
-26.699
-24.142
-21.43
-18.56
-15.533
-12.351
-9.017
-5.536
-1.913
1.845
5.728
9.728
13.833
18.029
22.301
26.635
31.012
35.415
39.825
44.22
48.58
52.883
57.108
61.233
65.236
69.092
72.778
76.27
79.544
82.573
85.329
87.785
89.914
91.693
93.096
94.101
94.689
94.843
94.554
93.811
92.608
90.934
88.784
86.156
83.053
79.48
75.443
70.951
66.018
60.663
54.913
48.79
42.312
35.488
28.322
20.824
13.017
4.93
-3.407
-11.959
-20.682
-29.515
-38.373
-47.175
-55.846
-64.321
-72.542
-80.43
-87.898
-94.845
-101.179
-106.83
-111.749
-115.915
-119.314
-121.966
-123.913
-125.225
-126.035
-126.5
-126.786
-127.072
-127.537
-128.348
-129.739
-132.03
-135.38
-139.757
-144.926
-150.379
-155.641
-160.386
-164.157
-166.278
-166.387
-164.635
-161.737
-159.119
-158.054
-159.107
-162.74
-169.573
-179.59
-191.669
-203.464
-211.21
-210.996
-200.173
-176.519
-137.469
-81.307
-7.984
80.638
180.156
284.818
389.856
490.645
581.198
655.664
709.06
737.675
740.724
719.531
674.896
607.805
521.235
419.042
306.216
188.541
70.078
-46.255
-156.547
-256.6
-342.975
-412.587
-464.357
-499.073
-516.84
-517.988
-504.213
-477.633
-441.317
-399.479
-354.997
-309.817
-266.744
-227.818
-194.315
-167.856
-148.594
-135.072
-126.46
-121.635
-118.492
-115.922
-112.974
-108.029
-100.691
-91.541
-80.909
-69.842
-59.842
-51.425
-45.031
-41.327
-40.235
-41.439
-44.596
-48.815
-53.169
-57.236
-60.687
-63.289
-65.01
-65.7
-65.259
-63.793
-61.429
-58.275
-54.409
-49.844
-44.63
-38.92
-32.918
-26.84
-20.838
-14.976
-9.305
-3.864
1.308
6.153
10.662
14.865
18.777
22.417
25.801
28.931
31.851
34.641
37.386
40.182
43.104
46.191
49.478
52.993
56.754
60.779
65.066
69.6
74.375
79.389
84.64
90.132
95.853
101.782
107.896
114.166
120.566
127.069
133.647
140.27
146.91
153.541
160.136
166.671
173.119
179.447
185.622
191.609
197.375
202.885
208.106
213.005
217.549
221.71
225.461
228.779
231.642
234.03
235.926
237.315
238.184
238.524
238.327
237.59
236.31
234.49
232.133
229.247
225.843
221.935
217.539
212.674
207.361
201.622
195.483
188.97
182.113
174.941
167.487
159.782
151.861
143.757
135.507
127.145
118.704
110.22
101.724
93.25
84.827
76.485
68.252
60.156
52.221
44.472
36.931
29.619
22.555
15.755
9.234
3.005
-2.92
-8.534
-13.829
-18.801
-23.448
-27.767
-31.762
-35.433
-38.785
-41.825
-44.56
-46.997
-49.149
-51.025
-52.638
-54.001
-55.129
-56.034
-56.733
-57.239
-57.569
-57.737
-57.759
-57.649
-57.424
-57.097
-56.684
-56.2
-55.657
-55.071
-54.453
-53.816
-53.172
-52.531
-51.903
-51.297
-50.722
-50.185
-49.693
-49.252
-48.868
-48.543
-48.284
-48.092
-47.97
-47.919
-47.941
-48.037
-48.205
-48.446
-48.758
-49.141
-49.593
-50.113
-50.697
-51.345
-52.053
-52.819
-53.64
-54.513
-55.434
-56.401
-57.411
-58.459
-59.545
-60.665
-61.816
-62.997
-64.206
-65.44
-66.697
-67.975
-69.272
-70.586
-71.915
-73.257
-74.61
-75.972
-77.341
-78.715
-80.091
-81.467
-82.841
-84.209
-85.569
-86.916
-88.248
-89.562
-90.856
-92.123
-93.357
-94.555
-95.709
-96.817
-97.879
-98.883
-99.815
-100.683
-101.491
-102.24
-102.936
-103.558
-104.077
-104.504
-104.853
-105.071
-105.115
-104.952
-104.533
-103.89
-103.091
-102.09
-100.812
-99.445
-98.212
-96.978
-95.757
-94.592
-93.002
-92.293
-93.735
-95.524
-97.117
-95.196
-85.789
-73.309
-60.7
-52.343
-54.254
-61.134
-68.499
-73.284
-70.411
-63.546
-56.399
-49.813
-46.057
-43.846
-41.514
-39.398
-37.294
-35.328
-33.856
-32.67
-31.606
-30.738
-30.092
-29.659
-29.455
-29.502
-29.808
-30.4
-31.314
-32.535
-34.054
-35.891
-38.051
-40.533
-43.339
-46.454
-49.85
-53.487
-57.307
-61.224
-65.166
-69.065
-72.867
-76.528
-79.987
-83.178
-86.038
-88.509
-90.549
-92.132
-93.217
-93.777
-93.867
-93.597
-93.117
-92.632
-92.285
-92.141
-92.321
-92.976
-94.207
-96.161
-98.991
-102.689
-107.294
-113.018
-119.876
-127.68
-136.233
-144.947
-152.736
-158.944
-163.263
-164.7
-164.136
-163.027
-160.263
-156.481
-150.027
-136.838
-119.043
-99.931
-85.13
-83.22
-94.484
-110.727
-117.939
-99.986
-47.475
36.073
137.331
242.443
340.045
426.547
504.319
572.044
627.121
665.625
682.256
675.518
645.357
591.605
516.568
424.444
320.2
209.492
97.123
-13.172
-116.949
-208.776
-284.236
-341.244
-379.861
-401.679
-408.441
-401.905
-384.856
-361.537
-336.425
-312.494
-291.059
-272.329
-256.196
-242.527
-230.81
-219.64
-207.185
-192.493
-175.513
-156.702
-136.813
-116.467
-96.186
-76.814
-59.349
-44.385
-32.173
-22.715
-15.738
-11.03
-8.439
-7.682
-8.413
-10.288
-12.973
-16.247
-19.972
-23.975
-28.061
-32.009
-35.621
-38.777
-41.389
-43.355
-44.6
-45.072
-44.745
-43.66
-41.879
-39.48
-36.558
-33.183
-29.424
-25.367
-21.107
-16.764
-12.432
-8.161
-3.986
0.048
3.91
7.574
11.037
14.334
17.503
20.575
23.589
26.577
29.579
32.649
35.841
39.219
42.831
46.706
50.869
55.338
60.126
65.242
70.679
76.416
82.432
88.709
95.23
101.973
108.913
116.017
123.25
130.575
137.957
145.361
152.751
160.092
167.35
174.49
181.479
188.288
194.882
201.229
207.293
213.037
218.427
223.43
228.012
232.143
235.793
238.935
241.547
243.608
245.101
246.012
246.329
246.045
245.155
243.658
241.557
238.859
235.574
231.716
227.3
222.347
216.878
210.919
204.496
197.639
190.378
182.746
174.778
166.51
157.98
149.226
140.288
131.206
122.021
112.772
103.501
94.247
85.051
75.948
66.977
58.174
49.57
41.2
33.092
25.273
17.768
10.599
3.785
-2.657
-8.713
-14.374
-19.633
-24.483
-28.919
-32.939
-36.545
-39.743
-42.544
-44.951
-46.968
-48.622
-49.939
-50.943
-51.667
-52.115
-52.281
-52.207
-51.934
-51.435
-50.693
-49.702
-48.438
-46.962
-45.372
-43.648
-41.734
-39.85
-38.252
-36.818
-35.576
-34.587
-33.357
-33.272
-35.677
-38.675
-41.694
-41.237
-33.111
-21.964
-10.894
-4.509
-9.142
-19.189
-29.898
-38.013
-38.152
-34.153
-29.905
-26.267
-25.607
-26.537
-27.275
-28.151
-28.927
-29.714
-30.861
-32.122
-33.3
-34.447
-35.567
-36.631
-37.634
-38.583
-39.477
-40.345
-41.222
-42.085
-42.916
-43.718
-44.488
-45.224
-45.93
-46.602
-47.235
-47.833
-48.402
-48.941
-49.456
-49.949
-50.422
-50.877
-51.319
-51.751
-52.175
-52.595
-53.013
-53.432
-53.855
-54.283
-54.719
-55.165
-55.621
-56.088
-56.566
-57.055
-57.554
-58.062
-58.579
-59.1
-59.623
-60.146
-60.665
-61.176
-61.674
-62.154
-62.611
-63.039
-63.432
-63.784
-64.089
-64.338
-64.525
-64.644
-64.688
-64.652
-64.529
-64.313
-63.999
-63.583
-63.062
-62.43
-61.686
-60.826
-59.851
-58.76
-57.554
-56.234
-54.803
-53.265
-51.625
-49.89
-48.065
-46.16
-44.18
-42.137
-40.039
-37.898
-35.725
-33.533
-31.335
-29.147
-26.988
-24.876
-22.831
-20.872
-19.016
-17.283
-15.692
-14.257
-12.991
-11.905
-11.013
-10.329
-9.87
-9.649
-9.673
-9.952
-10.494
-11.304
-12.386
-13.735
-15.337
-17.186
-19.281
-21.627
-24.24
-27.12
-30.258
-33.641
-37.251
-41.06
-45.041
-49.141
-53.29
-57.427
-61.5
-65.474
-69.322
-72.992
-76.413
-79.509
-82.2
-84.445
-86.219
-87.493
-88.268
-88.576
-88.474
-88.066
-87.465
-86.761
-86.062
-85.471
-85.105
-85.136
-85.703
-86.993
-89.264
-92.54
-96.695
-101.463
-106.284
-110.675
-114.347
-116.777
-117.334
-115.926
-112.779
-108.739
-105.319
-103.296
-102.79
-104.056
-107.327
-112.352
-118.23
-122.592
-121.94
-114.001
-97.54
-71.467
-34.61
14.277
75.428
146.869
224.762
305.778
387.289
466.389
539.065
600.044
644.471
669.125
672.751
654.536
613.339
549.031
463.847
362.441
250.541
134.062
18.16
-92.128
-190.822
-272.657
-334.795
-376.726
-399.655
-406.028
-398.552
-380.433
-356.377
-331.116
-307.712
-287.804
-271.806
-259.236
-249.529
-241.848
-234.384
-225.186
-213.326
-198.677
-181.788
-163.605
-144.811
-125.975
-107.935
-91.584
-77.436
-65.666
-56.162
-48.621
-42.867
-38.826
-36.36
-35.232
-35.137
-35.734
-36.689
-37.74
-38.689
-39.376
-39.682
-39.525
-38.88
-37.772
-36.236
-34.297
-31.933
-29.078
-25.691
-21.777
-17.39
-12.658
-7.761
-2.873
1.861
6.335
10.524
14.437
18.076
21.548
25.016
28.569
32.276
36.157
40.07
43.874
47.558
50.885
53.366
55.041
56.241
56.922
57.722
58.307
56.13
51.808
48.05
48.777
63.66
95.719
137.702
179.049
199.428
185.797
144.356
89.65
48.403
42.601
72.987
127.665
183.617
220.987
234.635
231.343
224.924
223.252
228.354
235.154
235.392
231.868
227.971
228.852
241.589
260.105
278.796
294.009
300.044
300.872
300.596
300.145
302.059
304.979
307.103
308.778
309.72
310.03
310.079
309.616
308.44
306.608
304.13
300.993
297.218
292.841
287.886
282.411
276.478
270.095
263.273
256.047
248.447
240.505
232.259
223.736
214.968
205.992
196.846
187.565
178.185
168.739
159.259
149.779
140.33
130.943
121.646
112.469
103.437
94.577
85.913
77.465
69.255
61.299
53.614
46.212
39.105
32.299
25.803
19.62
13.751
8.199
2.961
-1.966
-6.586
-10.905
-14.929
-18.668
-22.132
-25.329
-28.271
-30.969
-33.435
-35.68
-37.717
-39.556
-41.21
-42.69
-44.007
-45.173
-46.199
-47.096
-47.875
-48.547
-49.121
-49.606
-50.013
-50.347
-50.617
-50.828
-50.986
-51.096
-51.162
-51.187
-51.173
-51.124
-51.04
-50.924
-50.777
-50.6
-50.394
-50.16
-49.9
-49.614
-49.304
-48.973
-48.624
-48.26
-47.885
-47.503
-47.118
-46.741
-46.373
-46.015
-45.669
-45.336
-45.021
-44.735
-44.479
-44.242
-44.036
-43.89
-43.826
-43.872
-44.031
-44.264
-44.571
-44.995
-45.505
-46.012
-46.448
-46.733
-46.862
-46.948
-47.019
-46.947
-46.863
-47.207
-48.054
-49.268
-50.9
-52.441
-54.83
-60.822
-69.699
-78.952
-84.279
-77.765
-60.172
-39.347
-23.209
-22.997
-39.011
-60.682
-79.868
-87.652
-82.787
-73.178
-63.574
-57.333
-55.328
-54.313
-52.889
-51.143
-48.97
-46.867
-44.935
-42.743
-40.172
-37.3
-34.123
-30.632
-26.857
-22.831
-18.61
-14.29
-9.909
-5.457
-0.946
3.597
8.15
12.684
17.175
21.606
25.953
30.183
34.268
38.175
41.874
45.333
48.522
51.412
53.973
56.178
58.001
59.417
60.41
60.964
61.064
60.694
59.838
58.483
56.62
54.244
51.351
47.941
44.017
39.592
34.686
29.321
23.516
17.281
10.62
3.545
-3.924
-11.763
-19.94
-28.411
-37.124
-46.012
-54.985
-63.961
-72.87
-81.651
-90.251
-98.613
-106.664
-114.325
-121.52
-128.186
-134.275
-139.732
-144.528
-148.692
-152.284
-155.407
-158.179
-160.669
-162.944
-165.124
-167.33
-169.711
-172.436
-175.592
-179.306
-183.801
-189.111
-195.12
-201.498
-207.496
-212.382
-215.688
-216.798
-215.096
-210.617
-203.671
-195.132
-186.905
-180.456
-176.601
-176.419
-180.445
-187.747
-196.746
-204.611
-206.847
-199.97
-181.128
-146.859
-95.044
-25.696
59.706
157.173
260.628
364.894
464.274
551.575
620.589
666.404
685.866
678.872
646.712
590.184
511.658
415.538
306.981
192.019
75.817
-38.187
-146.133
-243.314
-325.862
-391.043
-438.031
-468.067
-482.365
-481.988
-469.318
-447.857
-421.578
-394.496
-368.938
-345.565
-324.94
-307.372
-292.513
-279.513
-266.865
-252.815
-236.658
-218.609
-199.069
-178.662
-158.011
-137.699
-118.606
-101.692
-87.488
-76.147
-67.579
-61.48
-57.599
-55.758
-55.656
-56.91
-59.163
-62.094
-65.46
-69.097
-72.807
-76.343
-79.494
-82.097
-84.024
-85.18
-85.498
-84.931
-83.466
-81.129
-77.972
-74.074
-69.526
-64.429
-58.88
-52.974
-46.825
-40.562
-34.291
-28.081
-21.99
-16.059
-10.32
-4.799
0.504
5.617
10.571
15.396
20.127
24.798
29.451
34.135
38.905
43.82
48.928
54.256
59.83
65.66
71.757
78.123
84.75
91.612
98.69
105.963
113.41
121.011
128.74
136.564
144.449
152.359
160.259
168.115
175.894
183.562
191.087
198.437
205.582
212.494
219.143
225.497
231.525
237.195
242.475
247.336
251.751
255.691
259.134
262.059
264.447
266.285
267.56
268.262
268.386
267.928
266.887
265.267
263.074
260.316
257.007
253.162
248.8
243.94
238.607
232.826
226.622
220.025
213.065
205.772
198.182
190.327
182.245
173.972
165.545
157.001
148.379
139.715
131.045
122.405
113.828
105.347
96.993
88.795
80.779
72.971
65.393
58.067
51.009
44.236
37.76
31.591
25.737
20.203
14.992
10.104
5.538
1.291
-2.642
-6.269
-9.599
-12.641
-15.409
-17.916
-20.177
-22.208
-24.027
-25.651
-27.099
-28.388
-29.536
-30.562
-31.482
-32.314
-33.074
-33.778
-34.44
-35.074
-35.693
-36.307
-36.928
-37.563
-38.218
-38.9
-39.612
-40.356
-41.135
-41.949
-42.798
-43.679
-44.591
-45.53
-46.493
-47.474
-48.469
-49.469
-50.465
-51.455
-52.435
-53.397
-54.338
-55.25
-56.123
-56.959
-57.763
-58.516
-59.203
-59.814
-60.331
-60.769
-61.157
-61.476
-61.705
-61.903
-62.115
-62.38
-62.753
-63.202
-63.651
-64.155
-64.805
-65.393
-65.673
-65.807
-65.789
-65.58
-65.739
-64.792
-61.303
-57.342
-53.539
-53.688
-62.325
-74.437
-86.682
-94.084
-89.803
-79.887
-69.464
-62.045
-63.432
-69.469
-75.94
-81.901
-84.779
-86.052
-87.625
-89.122
-90.774
-92.442
-93.723
-94.861
-96.044
-97.192
-98.277
-99.309
-100.269
-101.129
-101.87
-102.441
-102.786
-102.912
-102.827
-102.516
-101.972
-101.19
-100.16
-98.885
-97.366
-95.602
-93.592
-91.337
-88.841
-86.11
-83.153
-79.979
-76.601
-73.029
-69.277
-65.36
-61.294
-57.098
-52.789
-48.385
-43.907
-39.375
-34.813
-30.243
-25.689
-21.173
-16.722
-12.362
-8.122
-4.028
-0.104
3.623
7.129
10.39
13.387
16.102
18.523
20.635
22.425
23.878
24.981
25.724
26.099
26.101
25.726
24.972
23.844
22.359
20.531
18.372
15.886
13.064
9.905
6.418
2.617
-1.479
-5.838
-10.42
-15.17
-20.005
-24.85
-29.641
-34.327
-38.881
-43.266
-47.426
-51.294
-54.791
-57.852
-60.44
-62.51
-64.03
-65.026
-65.557
-65.738
-65.739
-65.673
-65.63
-65.729
-66.057
-66.738
-67.947
-69.792
-72.436
-76.127
-80.92
-86.731
-93.301
-99.941
-105.898
-110.605
-113.261
-113.056
-109.884
-104.025
-96.406
-89.04
-83.597
-81.099
-82.817
-89.582
-100.728
-114.752
-128.668
-137.522
-137.184
-124.424
-95.584
-48.119
18.564
103.739
204.071
313.393
425.816
535.405
634.987
717.791
777.692
809.69
811.161
783.087
728.692
649.819
549.099
428.58
288.021
135.417
-15.537
-151.662
-257.054
-327.111
-370.047
-393.79
-408.605
-419.031
-421.108
-414.313
-399.911
-380.943
-362.902
-348.021
-336.11
-326.571
-318.036
-309.322
-299.349
-286.664
-270.541
-251.256
-229.576
-206.57
-183.205
-160.2
-138.4
-118.762
-101.916
-88.184
-77.594
-69.889
-64.835
-62.216
-61.749
-63.091
-65.871
-69.658
-74.038
-78.667
-83.213
-87.439
-91.148
-94.152
-96.31
-97.48
-97.581
-96.592
-94.52
-91.403
-87.297
-82.281
-76.467
-70.041
-63.204
-56.151
-49.08
-42.112
-35.334
-28.825
-22.634
-16.808
-11.371
-6.312
-1.608
2.765
6.834
10.63
14.19
17.589
20.911
24.241
27.672
31.272
35.088
39.164
43.533
48.217
53.234
58.584
64.259
70.255
76.572
83.207
90.158
97.408
104.936
112.716
120.718
128.912
137.267
145.748
154.32
162.948
171.598
180.235
188.825
197.329
205.707
213.915
221.908
229.64
237.067
244.143
250.822
257.062
262.821
268.063
272.751
276.854
280.342
283.19
285.375
286.878
287.684
287.782
287.166
285.831
283.781
281.022
277.565
273.425
268.622
263.18
257.126
250.489
243.303
235.604
227.429
218.819
209.817
200.468
190.818
180.915
170.808
160.546
150.18
139.759
129.33
118.942
108.639
98.465
88.463
78.671
69.126
59.861
50.908
42.295
34.045
26.18
18.718
11.67
5.047
-1.145
-6.903
-12.228
-17.123
-21.594
-25.65
-29.301
-32.56
-35.442
-37.965
-40.146
-42.007
-43.569
-44.854
-45.888
-46.695
-47.3
-47.728
-48.003
-48.151
-48.195
-48.157
-48.06
-47.925
-47.77
-47.614
-47.472
-47.358
-47.284
-47.26
-47.293
-47.388
-47.549
-47.779
-48.076
-48.441
-48.871
-49.362
-49.912
-50.515
-51.166
-51.86
-52.589
-53.346
-54.125
-54.918
-55.716
-56.512
-57.299
-58.069
-58.814
-59.529
-60.208
-60.844
-61.434
-61.972
-62.458
-62.888
-63.262
-63.58
-63.845
-64.058
-64.225
-64.35
-64.439
-64.499
-64.537
-64.561
-64.578
-64.595
-64.62
-64.66
-64.722
-64.812
-64.935
-65.097
-65.302
-65.555
-65.859
-66.217
-66.631
-67.102
-67.631
-68.217
-68.86
-69.557
-70.306
-71.101
-71.939
-72.813
-73.717
-74.641
-75.578
-76.518
-77.449
-78.362
-79.244
-80.082
-80.865
-81.579
-82.212
-82.752
-83.187
-83.503
-83.692
-83.742
-83.645
-83.392
-82.977
-82.393
-81.633
-80.695
-79.573
-78.267
-76.774
-75.093
-73.227
-71.177
-68.949
-66.546
-63.977
-61.248
-58.369
-55.351
-52.207
-48.95
-45.593
-42.153
-38.645
-35.09
-31.505
-27.91
-24.327
-20.777
-17.286
-13.88
-10.581
-7.415
-4.404
-1.572
1.059
3.468
5.64
7.561
9.215
10.587
11.658
12.412
12.836
12.919
12.651
12.027
11.04
9.692
7.996
5.961
3.595
0.896
-2.148
-5.543
-9.279
-13.346
-17.724
-22.379
-27.272
-32.349
-37.532
-42.752
-47.947
-53.068
-58.088
-62.968
-67.65
-72.071
-76.147
-79.815
-83.039
-85.775
-88.003
-89.761
-91.104
-92.139
-93.017
-93.823
-94.647
-95.613
-96.817
-98.391
-100.498
-103.215
-106.7
-111.202
-116.735
-123.164
-130.158
-136.97
-142.922
-147.604
-150.372
-150.55
-148.131
-143.425
-137.366
-131.859
-128.241
-127.055
-129.087
-134.763
-143.205
-152.934
-161.187
-163.51
-156.618
-138.307
-105.84
-57.467
6.844
86.24
177.483
274.912
373.943
470.106
557.323
630.188
683.964
714.211
719.32
699.689
654.992
586.051
496.024
388.846
269.994
146.021
21.915
-97.505
-206.341
-299.571
-373.58
-426.424
-458.717
-472.582
-470.057
-454.159
-429.178
-399.539
-369.572
-342.145
-318.202
-297.877
-281.043
-267.028
-254.606
-242.186
-227.966
-211.095
-191.819
-170.716
-148.586
-126.245
-104.419
-84.028
-66.108
-51.283
-39.719
-31.336
-25.822
-22.879
-22.309
-23.783
-26.882
-31.205
-36.331
-41.928
-47.753
-53.536
-59.024
-64.007
-68.276
-71.663
-74.076
-75.45
-75.759
-75.022
-73.263
-70.545
-66.977
-62.689
-57.851
-52.619
-47.142
-41.578
-36.049
-30.641
-25.436
-20.489
-15.824
-11.458
-7.385
-3.574
0.003
3.382
6.612
9.748
12.859
16.018
19.3
22.785
26.532
30.585
34.978
39.734
44.865
50.376
56.264
62.511
69.104
76.031
83.274
90.818
98.638
106.705
114.985
123.443
132.041
140.744
149.516
158.321
167.123
175.885
184.573
193.151
201.584
209.829
217.847
225.596
233.035
240.125
246.827
253.102
258.917
264.239
269.04
273.294
276.978
280.072
282.558
284.421
285.652
286.241
286.185
285.482
284.134
282.148
279.534
276.303
272.471
268.056
263.08
257.565
251.537
245.024
238.054
230.661
222.877
214.737
206.277
197.535
188.549
179.357
169.997
160.506
150.922
141.28
131.616
121.964
112.355
102.822
93.392
84.093
74.952
65.992
57.234
48.698
40.401
32.359
24.585
17.09
9.883
2.972
-3.637
-9.941
-15.936
-21.623
-27.001
-32.074
-36.844
-41.317
-45.5
-49.4
-53.025
-56.384
-59.487
-62.345
-64.966
-67.362
-69.544
-71.522
-73.306
-74.907
-76.335
-77.6
-78.712
-79.68
-80.511
-81.215
-81.799
-82.27
-82.635
-82.9
-83.072
-83.157
-83.16
-83.087
-82.945
-82.739
-82.473
-82.152
-81.782
-81.367
-80.911
-80.418
-79.892
-79.338
-78.759
-78.16
-77.545
-76.92
-76.288
-75.655
-75.025
-74.405
-73.798
-73.21
-72.647
-72.114
-71.617
-71.161
-70.752
-70.395
-70.094
-69.856
-69.683
-69.58
-69.548
-69.591
-69.709
-69.905
-70.179
-70.531
-70.962
-71.47
-72.056
-72.718
-73.455
-74.263
-75.141
-76.085
-77.091
-78.154
-79.269
-80.429
-81.629
-82.862
-84.119
-85.395
-86.68
-87.965
-89.241
-90.5
-91.731
-92.925
-94.072
-95.164
-96.191
-97.146
-98.019
-98.805
-99.496
-100.087
-100.569
-100.938
-101.187
-101.311
-101.303
-101.158
-100.87
-100.434
-99.845
-99.101
-98.198
-97.134
-95.906
-94.515
-92.96
-91.241
-89.361
-87.321
-85.124
-82.776
-80.281
-77.646
-74.878
-71.986
-68.978
-65.866
-62.658
-59.367
-56.003
-52.576
-49.097
-45.58
-42.037
-38.482
-34.929
-31.395
-27.899
-24.463
-21.108
-17.856
-14.727
-11.742
-8.922
-6.285
-3.848
-1.62
0.385
2.151
3.664
4.909
5.876
6.557
6.946
7.035
6.825
6.316
5.518
4.443
3.096
1.48
-0.411
-2.589
-5.057
-7.806
-10.821
-14.082
-17.563
-21.228
-25.027
-28.889
-32.751
-36.557
-40.257
-43.804
-47.137
-50.186
-52.879
-55.144
-56.917
-58.163
-58.878
-59.063
-58.757
-58.001
-56.84
-55.393
-53.805
-52.225
-50.829
-49.783
-49.206
-49.302
-50.35
-52.416
-55.4
-59.008
-62.641
-65.821
-68.327
-69.732
-69.45
-67.426
-63.98
-59.957
-56.931
-55.855
-56.804
-60.127
-66.273
-74.635
-83.893
-91.556
-93.748
-87.803
-72.505
-46.034
-6.351
47.195
114.172
192.374
277.074
364.342
452.055
534.766
605.52
660.779
696.152
712.157
714.367
698.716
659.001
590.844
487.569
356.291
213.425
71.081
-55.979
-160.097
-244.987
-311.424
-362.85
-403.651
-430.126
-440.785
-436.651
-418.528
-392.81
-365.886
-340.294
-317.554
-297.597
-279.804
-264.305
-250.828
-237.869
-223.548
-206.969
-188.174
-167.814
-146.785
-125.689
-104.979
-85.47
-68.218
-53.917
-42.824
-34.862
-29.663
-26.886
-26.305
-27.582
-30.222
-33.746
-37.702
-41.633
-45.222
-48.25
-50.492
-51.819
-52.192
-51.497
-49.566
-46.566
-42.995
-38.974
-34.416
-29.467
-23.762
-18.502
-16.683
-17.637
-18.985
-16.348
-1.795
23.474
51.569
74.112
79.365
67.716
49.862
33.982
29.732
36.659
45.506
53.491
57.775
61.09
70.83
83.93
97.41
106.982
106.112
100.094
93.916
90.806
95.835
105.355
115.67
125.943
133.87
140.69
147.957
155.242
162.725
170.255
177.453
184.536
191.673
198.797
205.902
213.018
220.139
227.262
234.369
241.396
248.293
255.095
261.891
268.803
275.922
283.29
290.915
298.771
306.822
315.008
323.203
331.23
338.903
346.04
352.517
358.27
363.21
367.221
370.114
371.639
371.609
369.884
366.361
360.974
353.667
344.443
333.448
320.94
307.211
292.552
277.174
261.213
244.825
228.181
211.504
195.052
179.03
163.624
149.016
135.387
122.932
111.778
101.893
93.13
85.292
78.168
71.622
65.582
59.962
54.687
49.677
44.848
40.158
35.563
30.989
26.336
21.473
16.309
10.855
5.191
-0.561
-6.257
-11.803
-17.137
-22.188
-26.913
-31.289
-35.305
-38.989
-42.366
-45.433
-48.166
-50.518
-52.454
-53.977
-55.117
-55.924
-56.462
-56.784
-56.933
-56.965
-56.917
-56.811
-56.662
-56.465
-56.209
-55.899
-55.546
-55.168
-54.787
-54.416
-54.065
-53.742
-53.448
-53.185
-52.951
-52.74
-52.548
-52.373
-52.215
-52.08
-51.973
-51.899
-51.86
-51.858
-51.895
-51.967
-52.075
-52.214
-52.379
-52.568
-52.777
-53.004
-53.247
-53.504
-53.775
-54.057
-54.35
-54.651
-54.958
-55.268
-55.578
-55.885
-56.186
-56.477
-56.757
-57.023
-57.275
-57.511
-57.731
-57.935
-58.123
-58.295
-58.451
-58.593
-58.72
-58.835
-58.937
-59.031
-59.117
-59.199
-59.279
-59.361
-59.445
-59.535
-59.63
-59.734
-59.846
-59.966
-60.094
-60.231
-60.376
-60.531
-60.695
-60.867
-61.048
-61.235
-61.428
-61.625
-61.823
-62.019
-62.211
-62.394
-62.567
-62.725
-62.864
-62.979
-63.065
-63.117
-63.131
-63.1
-63.019
-62.88
-62.68
-62.413
-62.076
-61.665
-61.177
-60.609
-59.961
-59.234
-58.428
-57.544
-56.584
-55.55
-54.447
-53.28
-52.054
-50.776
-49.456
-48.102
-46.73
-45.354
-43.989
-42.649
-41.351
-40.109
-38.942
-37.863
-36.883
-36.014
-35.27
-34.668
-34.225
-33.959
-33.882
-34.007
-34.346
-34.91
-35.709
-36.743
-38.004
-39.49
-41.205
-43.159
-45.372
-47.853
-50.598
-53.602
-56.851
-60.323
-63.992
-67.81
-71.708
-75.628
-79.519
-83.346
-87.083
-90.682
-94.072
-97.179
-99.925
-102.261
-104.152
-105.562
-106.482
-106.937
-106.983
-106.719
-106.253
-105.669
-105.066
-104.548
-104.234
-104.29
-104.857
-106.122
-108.339
-111.563
-115.685
-120.453
-125.311
-129.693
-133.215
-135.268
-135.105
-132.599
-128.064
-122.356
-117.093
-113.444
-111.869
-113.1
-117.945
-126.092
-136.238
-145.724
-150.418
-147.058
-133.601
-107.568
-66.303
-8.524
65.465
152.89
248.432
347.262
445.42
537.626
617.521
679.218
717.929
731.525
720.647
685.849
627.36
547.391
450.358
341.974
228.399
114.409
3.421
-100.53
-192.567
-268.863
-327.803
-369.866
-396.77
-410.052
-411.145
-402.382
-387.518
-370.59
-354.165
-339.203
-325.727
-313.613
-302.832
-293.113
-283.268
-271.598
-257.296
-240.453
-221.705
-201.969
-181.955
-162.162
-143.338
-126.442
-112.057
-100.468
-91.732
-85.593
-81.839
-80.309
-80.727
-82.757
-86.058
-90.236
-94.914
-99.796
-104.568
-108.993
-112.918
-116.188
-118.709
-120.401
-121.153
-120.917
-119.692
-117.488
-114.35
-110.346
-105.544
-100.079
-94.131
-87.873
-81.489
-75.101
-68.768
-62.545
-56.463
-50.544
-44.826
-39.315
-33.987
-28.827
-23.816
-18.929
-14.151
-9.433
-4.7
0.127
5.13
10.369
15.874
21.673
27.786
34.222
40.989
48.08
55.475
63.159
71.121
79.35
87.835
96.555
105.478
114.567
123.787
133.098
142.466
151.852
161.216
170.521
179.729
188.807
197.72
206.432
214.902
223.09
230.956
238.459
245.561
252.225
258.413
264.092
269.23
273.802
277.783
281.151
283.888
285.978
287.408
288.169
288.256
287.666
286.399
284.46
281.857
278.602
274.709
270.196
265.085
259.4
253.167
246.415
239.176
231.482
223.369
214.874
206.036
196.893
187.487
177.858
168.047
158.095
148.043
137.929
127.793
117.671
107.599
97.612
87.743
78.022
68.48
59.144
50.039
41.187
32.612
24.331
16.361
8.717
1.412
-5.546
-12.148
-18.388
-24.263
-29.772
-34.916
-39.697
-44.121
-48.194
-51.925
-55.324
-58.402
-61.171
-63.644
-65.835
-67.759
-69.431
-70.866
-72.08
-73.091
-73.914
-74.566
-75.064
-75.424
-75.662
-75.793
-75.834
-75.799
-75.703
-75.56
-75.383
-75.185
-74.979
-74.777
-74.587
-74.421
-74.287
-74.192
-74.142
-74.142
-74.198
-74.311
-74.485
-74.721
-75.021
-75.383
-75.807
-76.292
-76.835
-77.434
-78.083
-78.78
-79.519
-80.294
-81.101
-81.933
-82.784
-83.648
-84.519
-85.391
-86.255
-87.106
-87.936
-88.739
-89.508
-90.237
-90.92
-91.552
-92.128
-92.644
-93.097
-93.483
-93.801
-94.049
-94.226
-94.332
-94.367
-94.332
-94.228
-94.058
-93.825
-93.532
-93.183
-92.782
-92.334
-91.844
-91.317
-90.758
-90.171
-89.562
-88.934
-88.292
-87.64
-86.983
-86.325
-85.669
-85.017
-84.374
-83.74
-83.117
-82.506
-81.906
-81.316
-80.736
-80.162
-79.591
-79.02
-78.444
-77.858
-77.256
-76.633
-75.983
-75.299
-74.572
-73.797
-72.966
-72.073
-71.11
-70.072
-68.952
-67.747
-66.453
-65.066
-63.586
-62.01
-60.339
-58.574
-56.717
-54.773
-52.745
-50.64
-48.462
-46.223
-43.932
-41.599
-39.237
-36.859
-34.482
-32.125
-29.81
-27.555
-25.383
-23.314
-21.372
-19.577
-17.949
-16.502
-15.251
-14.211
-13.401
-12.836
-12.533
-12.503
-12.757
-13.303
-14.148
-15.296
-16.743
-18.477
-20.488
-22.773
-25.331
-28.177
-31.313
-34.735
-38.431
-42.379
-46.548
-50.904
-55.391
-59.932
-64.457
-68.899
-73.202
-77.326
-81.215
-84.807
-88.035
-90.813
-93.076
-94.776
-95.878
-96.386
-96.337
-95.789
-94.84
-93.61
-92.218
-90.822
-89.575
-88.622
-88.139
-88.242
-89.084
-90.919
-93.824
-97.719
-102.35
-107.111
-111.364
-114.697
-116.51
-116.108
-113.342
-108.362
-101.853
-95.444
-90.426
-87.539
-87.72
-91.47
-98.229
-106.799
-114.385
-116.724
-110.537
-92.82
-61.834
-16.823
44.214
120.675
212.421
317.58
426.574
531.714
622.372
686.75
725.652
739.938
731.832
708.088
665.877
602.318
519.473
418.65
305.946
188.834
71.023
-44.45
-153.782
-252.913
-337.929
-405.495
-454.663
-486.485
-501.328
-499.439
-482.318
-452.245
-412.536
-367.277
-319.287
-270.192
-222.319
-178.24
-139.94
-109.133
-86.194
-70.202
-60.436
-56.297
-56.367
-58.708
-61.602
-63.344
-63.079
-60.954
-57.121
-51.812
-45.801
-40.187
-35.812
-33.386
-33.101
-34.521
-37.274
-41.014
-45.181
-49.156
-52.433
-54.581
-55.414
-55.011
-53.444
-50.803
-47.218
-42.811
-37.744
-32.202
-26.368
-20.428
-14.518
-8.72
-3.11
2.254
7.316
12.014
16.333
20.304
23.947
27.284
30.332
33.095
35.618
37.974
40.248
42.533
44.903
47.401
50.076
52.969
56.11
59.525
63.222
67.187
71.417
75.917
80.69
85.744
91.076
96.669
102.507
108.573
114.847
121.311
127.943
134.715
141.606
148.593
155.654
162.768
169.91
177.048
184.151
191.184
198.111
204.897
211.504
217.893
224.027
229.871
235.389
240.55
245.322
249.674
253.579
257.011
259.947
262.366
264.249
265.582
266.352
266.549
266.167
265.201
263.652
261.521
258.815
255.542
251.713
247.342
242.446
237.045
231.161
224.82
218.05
210.882
203.346
195.478
187.314
178.89
170.245
161.417
152.444
143.366
134.22
125.045
115.878
106.754
97.708
88.775
79.985
71.37
62.958
54.775
46.847
39.197
31.844
24.809
18.107
11.754
5.762
0.14
-5.103
-9.962
-14.435
-18.521
-22.222
-25.541
-28.487
-31.065
-33.287
-35.165
-36.71
-37.938
-38.863
-39.503
-39.873
-39.993
-39.88
-39.552
-39.029
-38.329
-37.469
-36.47
-35.347
-34.119
-32.803
-31.415
-29.971
-28.488
-26.979
-25.46
-23.944
-22.445
-20.973
-19.541
-18.157
-16.831
-15.571
-14.382
-13.271
-12.242
-11.3
-10.447
-9.688
-9.022
-8.453
-7.981
-7.606
-7.327
-7.145
-7.058
-7.065
-7.164
-7.353
-7.63
-7.994
-8.441
-8.969
-9.577
-10.26
-11.015
-11.84
-12.731
-13.683
-14.693
-15.756
-16.87
-18.03
-19.234
-20.477
-21.757
-23.07
-24.413
-25.783
-27.176
-28.588
-30.015
-31.453
-32.898
-34.345
-35.789
-37.228
-38.656
-40.07
-41.464
-42.836
-44.179
-45.489
-46.762
-47.992
-49.176
-50.308
-51.385
-52.403
-53.358
-54.246
-55.065
-55.811
-56.482
-57.072
-57.579
-57.999
-58.329
-58.565
-58.703
-58.741
-58.677
-58.509
-58.237
-57.861
-57.379
-56.792
-56.1
-55.305
-54.408
-53.411
-52.315
-51.123
-49.838
-48.465
-47.009
-45.473
-43.864
-42.187
-40.448
-38.653
-36.81
-34.926
-33.007
-31.062
-29.1
-27.134
-25.174
-23.231
-21.319
-19.451
-17.646
-15.92
-14.289
-12.767
-11.37
-10.113
-9.01
-8.074
-7.313
-6.734
-6.346
-6.159
-6.183
-6.429
-6.906
-7.618
-8.571
-9.771
-11.217
-12.907
-14.829
-16.971
-19.328
-21.901
-24.701
-27.735
-30.996
-34.474
-38.151
-41.999
-45.978
-50.036
-54.099
-58.101
-61.989
-65.722
-69.276
-72.623
-75.721
-78.516
-80.951
-82.977
-84.558
-85.663
-86.284
-86.463
-86.27
-85.819
-85.251
-84.665
-84.152
-83.822
-83.765
-84.084
-84.903
-86.284
-88.33
-91.251
-95.068
-99.646
-104.671
-109.438
-113.258
-115.676
-116.043
-113.666
-108.506
-100.844
-91.547
-82.529
-75.257
-70.575
-69.65
-73.119
-80.269
-89.792
-99.041
-103.676
-100.264
-85.908
-57.172
-11.966
50.014
127.836
218.123
315.378
414.57
510.011
594.321
660.815
704.081
719.82
707.673
670.586
608.89
523.541
416.138
285.156
138.485
-8.98
-143.47
-247.413
-315.004
-355.04
-376.122
-389.171
-398.952
-400.34
-391.563
-373.913
-351.031
-329.189
-311.357
-297.593
-287.283
-279.303
-272.764
-266.313
-258.093
-247.017
-232.893
-216.271
-198.05
-178.853
-159.145
-139.628
-121.216
-104.558
-89.968
-77.442
-66.745
-57.705
-50.274
-44.415
-39.987
-36.803
-34.66
-33.36
-32.815
-32.966
-33.74
-35.068
-36.835
-38.923
-41.227
-43.631
-46.029
-48.331
-50.42
-52.159
-53.466
-54.3
-54.66
-54.587
-54.096
-53.182
-51.845
-50.089
-47.945
-45.456
-42.676
-39.675
-36.513
-33.238
-29.905
-26.567
-23.251
-19.971
-16.714
-13.439
-10.116
-6.721
-3.225
0.396
4.179
8.165
12.4
16.936
21.816
27.067
32.713
38.769
45.24
52.123
59.401
67.038
75.003
83.265
91.789
100.543
109.485
118.574
127.761
136.998
146.238
155.435
164.541
173.51
182.298
190.86
199.155
207.146
214.795
222.06
228.905
235.288
241.175
246.533
251.329
255.534
259.124
262.076
264.375
266.007
266.964
267.241
266.836
265.752
263.996
261.576
258.509
254.809
250.499
245.601
240.141
234.151
227.659
220.702
213.313
205.529
197.388
188.931
180.196
171.225
162.058
152.737
143.302
133.795
124.256
114.723
105.235
95.828
86.536
77.394
68.429
59.671
51.144
42.873
34.876
27.173
19.778
12.705
5.965
-0.435
-6.487
-12.19
-17.542
-22.544
-27.2
-31.515
-35.497
-39.154
-42.498
-45.54
-48.293
-50.771
-52.99
-54.964
-56.71
-58.246
-59.588
-60.752
-61.757
-62.619
-63.355
-63.98
-64.509
-64.958
-65.339
-65.665
-65.949
-66.203
-66.436
-66.658
-66.879
-67.107
-67.348
-67.608
-67.894
-68.208
-68.554
-68.933
-69.347
-69.796
-70.279
-70.794
-71.341
-71.916
-72.516
-73.138
-73.778
-74.433
-75.098
-75.769
-76.443
-77.116
-77.783
-78.443
-79.091
-79.726
-80.345
-80.946
-81.528
-82.088
-82.627
-83.142
-83.632
-84.098
-84.537
-84.951
-85.338
-85.699
-86.034
-86.346
-86.635
-86.904
-87.154
-87.39
-87.613
-87.826
-88.034
-88.239
-88.443
-88.652
-88.866
-89.088
-89.32
-89.563
-89.82
-90.089
-90.371
-90.664
-90.967
-91.277
-91.592
-91.908
-92.221
-92.527
-92.823
-93.103
-93.364
-93.601
-93.809
-93.984
-94.119
-94.21
-94.25
-94.233
-94.15
-93.996
-93.761
-93.439
-93.024
-92.508
-91.885
-91.147
-90.291
-89.311
-88.203
-86.964
-85.591
-84.082
-82.438
-80.66
-78.751
-76.716
-74.558
-72.285
-69.906
-67.429
-64.864
-62.221
-59.511
-56.743
-53.932
-51.091
-48.231
-45.369
-42.521
-39.704
-36.941
-34.252
-31.658
-29.181
-26.841
-24.659
-22.652
-20.834
-19.219
-17.825
-16.669
-15.768
-15.139
-14.787
-14.724
-14.975
-15.536
-16.381
-17.491
-18.828
-20.38
-22.183
-24.236
-26.494
-29.006
-31.871
-35.153
-38.928
-43.176
-47.735
-52.537
-57.666
-62.897
-67.677
-71.868
-75.57
-78.683
-81.707
-83.495
-80.915
-74.712
-67.583
-64.27
-73.493
-94.272
-117.968
-135.845
-135.527
-116.921
-91.774
-69.156
-59.051
-62.839
-71.939
-81.265
-87.267
-89.248
-90.814
-93.364
-96.524
-99.826
-102.233
-103.269
-102.84
-100.646
-96.713
-91.559
-86.254
-82.123
-79.861
-79.757
-82.202
-87.239
-94.125
-101.058
-104.992
-102.786
-92.387
-72.402
-41.306
2.298
58.893
127.203
203.853
284.89
367.111
447.751
523.197
588.759
639.814
672.936
686.881
681.654
656.871
611.931
547.709
467.042
374.258
274.435
171.584
68.908
-29.438
-118.606
-194.435
-253.994
-296.527
-323.176
-334.986
-333.051
-319.72
-298.305
-272.613
-246.363
-221.582
-198.824
-178.551
-161
-145.907
-132.568
-119.647
-105.64
-90.011
-73.019
-55.124
-36.92
-18.915
-1.594
14.297
27.894
38.672
46.5
51.497
53.967
54.204
52.442
48.992
44.303
38.828
32.953
27.012
21.195
15.618
10.429
5.755
1.706
-1.586
-4.057
-5.697
-6.501
-6.496
-5.733
-4.261
-2.207
0.249
2.936
5.675
8.346
10.901
13.293
15.49
17.473
19.212
20.708
21.993
23.091
24.025
24.825
25.516
26.154
26.824
27.612
28.611
29.89
31.489
33.442
35.778
38.514
41.662
45.222
49.177
53.516
58.235
63.324
68.78
74.584
80.708
87.122
93.791
100.68
107.756
114.982
122.322
129.737
137.191
144.651
152.083
159.45
166.713
173.828
180.755
187.452
193.879
199.995
205.76
211.138
216.094
220.597
224.62
228.137
231.127
233.57
235.45
236.756
237.479
237.611
237.151
236.099
234.459
232.237
229.445
226.095
222.206
217.796
212.888
207.507
201.68
195.436
188.805
181.821
174.516
166.925
159.085
151.032
142.802
134.431
125.958
117.417
108.844
100.271
91.73
83.251
74.863
66.591
58.459
50.49
42.704
35.119
27.75
20.613
13.719
7.079
0.7
-5.412
-11.252
-16.818
-22.111
-27.131
-31.883
-36.371
-40.6
-44.577
-48.31
-51.809
-55.082
-58.139
-60.991
-63.649
-66.124
-68.427
-70.569
-72.559
-74.409
-76.128
-77.724
-79.205
-80.579
-81.852
-83.03
-84.119
-85.123
-86.047
-86.896
-87.671
-88.377
-89.016
-89.589
-90.098
-90.544
-90.927
-91.247
-91.504
-91.699
-91.83
-91.898
-91.902
-91.843
-91.721
-91.536
-91.288
-90.979
-90.608
-90.178
-89.689
-89.144
-88.546
-87.898
-87.204
-86.467
-85.692
-84.883
-84.047
-83.186
-82.307
-81.414
-80.512
-79.606
-78.7
-77.799
-76.909
-76.033
-75.176
-74.343
-73.538
-72.763
-72.024
-71.323
-70.663
-70.045
-69.473
-68.947
-68.47
-68.042
-67.663
-67.335
-67.056
-66.827
-66.645
-66.51
-66.418
-66.367
-66.353
-66.373
-66.422
-66.497
-66.592
-66.702
-66.824
-66.952
-67.082
-67.208
-67.326
-67.429
-67.512
-67.571
-67.599
-67.59
-67.54
-67.441
-67.29
-67.08
-66.807
-66.465
-66.05
-65.557
-64.981
-64.318
-63.565
-62.718
-61.773
-60.727
-59.58
-58.331
-56.979
-55.525
-53.969
-52.315
-50.564
-48.722
-46.793
-44.782
-42.694
-40.536
-38.317
-36.044
-33.727
-31.377
-29.008
-26.634
-24.273
-21.943
-19.66
-17.444
-15.313
-13.285
-11.377
-9.602
-7.974
-6.504
-5.21
-4.109
-3.218
-2.55
-2.118
-1.933
-2.005
-2.346
-2.955
-3.828
-4.96
-6.352
-8.014
-9.97
-12.232
-14.802
-17.676
-20.844
-24.285
-27.978
-31.879
-35.92
-40.04
-44.177
-48.287
-52.342
-56.296
-60.087
-63.637
-66.847
-69.652
-72.015
-73.904
-75.311
-76.26
-76.798
-77.02
-77.059
-77.033
-77.068
-77.299
-77.847
-78.874
-80.537
-83.039
-86.678
-91.588
-97.681
-104.699
-112.094
-119.235
-125.65
-130.727
-133.608
-133.907
-131.855
-128.194
-124.492
-122.339
-122.598
-126.07
-133.717
-145.546
-160.218
-175.355
-186.991
-190.458
-182.461
-160.006
-119.339
-59.82
17.22
111.341
217.936
333.962
457.848
578.702
685.936
768.26
814.09
825.809
808.205
766.135
706.407
628.477
533.807
427.319
312.764
196.658
84.153
-21.924
-117.89
-201.524
-272.243
-329.704
-374.335
-406.86
-427.732
-437.886
-438.672
-431.164
-416.035
-393.79
-365.244
-331.375
-293.351
-252.417
-210.133
-168.553
-129.87
-96.168
-68.692
-48.082
-34.493
-27.548
-26.117
-28.309
-32.291
-36.341
-39.316
-40.645
-40.018
-37.464
-33.561
-29.363
-25.642
-22.959
-21.549
-21.272
-22.001
-23.515
-25.349
-26.842
-27.49
-27.002
-25.3
-22.52
-18.78
-14.203
-8.979
-3.385
2.274
7.773
12.97
17.819
22.314
26.422
30.105
33.333
36.096
38.411
40.312
41.824
42.96
43.762
44.287
44.624
44.895
45.192
45.585
46.132
46.873
47.848
49.1
50.656
52.526
54.723
57.258
60.145
63.406
67.053
71.086
75.499
80.277
85.403
90.864
96.641
102.711
109.051
115.632
122.429
129.419
136.572
143.854
151.227
158.65
166.081
173.475
180.79
187.975
194.987
201.779
208.307
214.53
220.405
225.892
230.953
235.552
239.655
243.232
246.253
248.695
250.536
251.758
252.349
252.299
251.603
250.26
248.275
245.654
242.409
238.556
234.113
229.101
223.545
217.474
210.918
203.91
196.487
188.685
180.545
172.106
163.412
154.504
145.424
136.215
126.918
117.574
108.225
98.91
89.666
80.53
71.538
62.72
54.109
45.731
37.612
29.774
22.237
15.016
8.127
1.58
-4.615
-10.454
-15.933
-21.051
-25.809
-30.211
-34.264
-37.974
-41.353
-44.41
-47.159
-49.613
-51.789
-53.7
-55.365
-56.8
-58.023
-59.053
-59.906
-60.601
-61.156
-61.587
-61.913
-62.147
-62.306
-62.403
-62.452
-62.464
-62.45
-62.42
-62.382
-62.345
-62.313
-62.293
-62.289
-62.304
-62.341
-62.401
-62.485
-62.595
-62.728
-62.885
-63.065
-63.266
-63.487
-63.726
-63.98
-64.248
-64.527
-64.814
-65.108
-65.405
-65.704
-66.002
-66.297
-66.589
-66.876
-67.158
-67.434
-67.705
-67.972
-68.235
-68.495
-68.756
-69.017
-69.282
-69.552
-69.83
-70.118
-70.419
-70.734
-71.067
-71.418
-71.789
-72.181
-72.594
-73.028
-73.483
-73.958
-74.452
-74.964
-75.49
-76.031
-76.583
-77.144
-77.71
-78.279
-78.845
-79.404
-79.952
-80.482
-80.988
-81.465
-81.905
-82.302
-82.652
-82.946
-83.172
-83.325
-83.393
-83.368
-83.253
-83.034
-82.699
-82.257
-81.712
-81.063
-80.328
-79.499
-78.53
-77.432
-76.215
-74.812
-73.194
-71.359
-69.246
-66.876
-64.387
-61.778
-58.998
-56.313
-53.955
-51.697
-49.579
-47.718
-45.36
-43.709
-44.365
-45.334
-45.932
-43.065
-31.027
-13.382
4.55
17.315
14.747
-1.634
-22.19
-40.184
-44.731
-33.196
-15.625
2.209
13.901
16.251
18.032
22.216
27.224
30.862
22.978
2.68
-21.175
-40.404
-43.052
-28.376
-7.502
10.998
17.595
10.981
-0.45
-12.372
-20.062
-21.072
-20.721
-21.064
-25.055
-38.396
-57.113
-75.996
-90.183
-89.844
-76.388
-59.2
-44.598
-42.498
-55.156
-72.951
-90.166
-101.124
-101.929
-98.177
-93.411
-88.784
-86.63
-85.419
-83.841
-82.566
-81.442
-80.714
-80.856
-81.772
-83.544
-86.319
-90.059
-94.659
-99.804
-105.087
-110.339
-115.385
-119.418
-121.815
-122.528
-121.275
-120.054
-122.678
-129.485
-139.972
-150.287
-149.9
-136.697
-115.781
-97.415
-101.932
-133.323
-176.27
-205.02
-183.677
-98.127
40.823
210.255
379.571
532.844
665.698
774.759
854.781
895.431
891.204
843.179
760.188
654.25
529.492
391.497
248.53
108.809
-12.308
-106.381
-176.776
-228.421
-270.647
-307.778
-335.004
-349.89
-351.744
-343.498
-332.752
-323.706
-317.341
-313.629
-311.028
-308.602
-306.035
-301.81
-293.981
-281.569
-264.454
-243.288
-219.253
-193.394
-166.555
-139.835
-114.482
-91.352
-70.949
-53.498
-38.978
-27.348
-18.588
-12.564
-9.035
-7.779
-8.523
-10.945
-14.728
-19.472
-24.784
-30.32
-35.746
-40.783
-45.221
-48.867
-51.548
-53.164
-53.646
-52.955
-51.108
-48.14
-44.13
-39.204
-33.519
-27.268
-20.636
-13.807
-6.965
-0.253
6.227
12.391
18.172
23.536
28.454
32.919
36.955
40.583
43.834
46.757
49.405
51.851
54.174
56.458
58.791
61.242
63.861
66.69
69.762
73.097
76.714
80.619
84.806
89.276
94.028
99.062
104.374
109.955
115.788
121.853
128.128
134.59
141.216
147.981
154.861
161.829
168.86
175.926
183.001
190.051
197.042
203.936
210.691
217.267
223.622
229.715
235.501
240.941
245.997
250.63
254.807
258.495
261.663
264.284
266.331
267.784
268.623
268.832
268.397
267.311
265.566
263.163
260.103
256.392
252.038
247.056
241.46
235.27
228.51
221.206
213.385
205.082
196.332
187.172
177.644
167.789
157.653
147.282
136.722
126.021
115.227
104.386
93.546
82.752
72.048
61.478
51.083
40.903
30.974
21.332
12.01
3.038
-5.555
-13.746
-21.511
-28.832
-35.692
-42.077
-47.976
-53.382
-58.29
-62.697
-66.604
-70.015
-72.936
-75.375
-77.346
-78.861
-79.937
-80.594
-80.851
-80.732
-80.26
-79.46
-78.357
-76.979
-75.35
-73.499
-71.451
-69.233
-66.871
-64.39
-61.816
-59.171
-56.48
-53.765
-51.047
-48.345
-45.679
-43.068
-40.527
-38.072
-35.719
-33.481
-31.371
-29.398
-27.574
-25.907
-24.403
-23.069
-21.907
-20.92
-20.111
-19.478
-19.02
-18.737
-18.624
-18.679
-18.896
-19.271
-19.799
-20.474
-21.291
-22.242
-23.322
-24.524
-25.841
-27.268
-28.798
-30.424
-32.138
-33.935
-35.805
-37.742
-39.737
-41.781
-43.866
-45.982
-48.12
-50.272
-52.427
-54.577
-56.713
-58.827
-60.909
-62.952
-64.946
-66.884
-68.758
-70.561
-72.284
-73.921
-75.465
-76.908
-78.248
-79.474
-80.577
-81.548
-82.377
-83.059
-83.6
-83.99
-84.218
-84.296
-84.226
-84.018
-83.702
-83.254
-82.619
-81.802
-80.805
-79.578
-78.125
-76.418
-74.373
-72.079
-69.721
-67.338
-64.934
-62.735
-60.892
-59.238
-57.913
-56.814
-54.914
-53.667
-54.707
-55.906
-57.195
-53.602
-37.675
-15.54
6.835
19.627
7.595
-21.548
-54.413
-79.057
-77.498
-54.235
-24.736
1.756
13.239
9.582
2.066
-3.597
-5.547
-3.438
-5.586
-19.951
-42.509
-68.672
-86.829
-81.195
-53.869
-14.067
21.627
32.443
15.25
-21.316
-61.402
-88.228
-96.899
-91.792
-82.23
-75.963
-75.283
-78.999
-84.005
-88.693
-93.147
-97.526
-102.129
-106.836
-111.152
-114.888
-118.003
-120.358
-121.902
-122.638
-122.592
-121.881
-120.638
-118.945
-116.891
-114.596
-112.2
-109.863
-107.738
-105.997
-104.828
-104.38
-104.89
-106.617
-109.593
-113.765
-118.856
-124.191
-129.177
-133.329
-135.907
-136.433
-135.073
-132.002
-127.976
-124.737
-123.287
-124.278
-129.039
-136.242
-143.39
-150.195
-153.832
-153.706
-150.995
-138.769
-111.371
-63.092
11.756
105.608
209.379
314.767
412.105
500.01
576.491
636.672
677.719
696.169
690.434
662.758
616.742
554.033
475.908
382.649
272.016
147.236
17.51
-105.095
-206.563
-279.875
-329.003
-365.457
-400.434
-439.82
-481.434
-513.832
-528.614
-521.828
-493.956
-453.919
-406.761
-355.566
-301.625
-242.619
-184.721
-133.866
-96.079
-77.994
-73.126
-75.211
-78.968
-76.663
-70.384
-62.316
-52.112
-42.107
-31.483
-19.21
-6.821
4.542
13.893
20.139
23.119
23.241
20.887
16.585
11.122
5.361
-0.144
-4.973
-8.847
-11.762
-13.667
-14.511
-14.389
-13.41
-11.64
-9.178
-6.115
-2.483
1.609
6.035
10.686
15.382
19.978
24.414
28.627
32.533
36.087
39.248
41.988
44.385
46.541
48.462
50.134
51.792
53.722
55.855
58.267
61.085
63.895
68.056
74.886
82.596
90.633
95.656
93.661
89.024
84.653
84.881
95.665
111.657
128.338
142.627
149.431
152.381
155.13
158.441
164.505
171.982
179.183
186.433
193.501
200.484
207.718
215.007
222.217
229.402
236.502
243.361
249.848
255.885
261.43
266.491
271.078
275.115
278.516
281.227
283.217
284.449
284.862
284.338
282.745
280.032
276.248
271.524
265.988
259.718
252.764
245.164
236.983
228.303
219.197
209.712
199.876
189.743
179.404
169
158.68
148.534
138.573
128.752
119.037
109.428
99.939
90.584
81.353
72.237
63.255
54.452
45.88
37.568
29.514
21.692
14.07
6.65
-0.541
-7.456
-14.057
-20.321
-26.23
-31.763
-36.891
-41.594
-45.875
-49.756
-53.261
-56.405
-59.195
-61.631
-63.718
-65.472
-66.909
-68.049
-68.91
-69.507
-69.862
-69.997
-69.937
-69.703
-69.311
-68.771
-68.097
-67.301
-66.4
-65.407
-64.335
-63.197
-62.006
-60.777
-59.526
-58.265
-57.005
-55.756
-54.528
-53.33
-52.169
-51.051
-49.982
-48.965
-48.004
-47.101
-46.26
-45.482
-44.768
-44.119
-43.537
-43.023
-42.576
-42.196
-41.885
-41.64
-41.462
-41.351
-41.306
-41.326
-41.412
-41.562
-41.778
-42.058
-42.4
-42.804
-43.267
-43.787
-44.362
-44.988
-45.663
-46.385
-47.151
-47.958
-48.805
-49.69
-50.611
-51.564
-52.549
-53.561
-54.597
-55.654
-56.727
-57.813
-58.906
-60.003
-61.098
-62.187
-63.264
-64.324
-65.361
-66.369
-67.341
-68.272
-69.155
-69.983
-70.75
-71.451
-72.08
-72.633
-73.105
-73.493
-73.793
-74.003
-74.118
-74.137
-74.056
-73.873
-73.586
-73.193
-72.692
-72.083
-71.368
-70.547
-69.621
-68.593
-67.466
-66.244
-64.93
-63.528
-62.043
-60.48
-58.845
-57.146
-55.39
-53.584
-51.737
-49.857
-47.952
-46.034
-44.109
-42.187
-40.274
-38.379
-36.511
-34.678
-32.889
-31.153
-29.479
-27.876
-26.36
-24.942
-23.636
-22.451
-21.4
-20.492
-19.738
-19.146
-18.719
-18.458
-18.366
-18.445
-18.701
-19.141
-19.765
-20.577
-21.578
-22.767
-24.146
-25.708
-27.437
-29.325
-31.362
-33.55
-35.9
-38.422
-41.114
-43.977
-47
-50.159
-53.422
-56.743
-60.05
-63.282
-66.383
-69.302
-72.009
-74.463
-76.613
-78.415
-79.812
-80.757
-81.23
-81.205
-80.685
-79.751
-78.489
-77.033
-75.557
-74.159
-72.941
-72.034
-71.529
-71.586
-72.395
-74.043
-76.677
-80.541
-85.749
-92.37
-100.225
-108.601
-116.734
-123.962
-129.559
-132.882
-133.364
-130.694
-125.534
-119.495
-114.528
-110.951
-106.897
-100.868
-91.971
-84.869
-89.335
-109.763
-144.246
-177.003
-179.522
-131.262
-24.605
127.176
289.771
430.732
528.571
578.435
593.855
592.541
586.591
579.48
565.752
536.151
485.727
415.553
330.695
238.461
143.759
48.899
-44.345
-133.689
-215.65
-286.864
-344.895
-388.649
-417.993
-433.162
-434.528
-423.429
-402.449
-374.403
-342.801
-310.85
-280.254
-252.117
-227.518
-206.915
-190.434
-178.217
-168.878
-160.45
-152.151
-143.636
-134.739
-125.652
-116.169
-105.744
-95.001
-85.234
-77.137
-71.086
-67.04
-64.563
-63.522
-64.022
-65.698
-67.837
-69.918
-71.546
-72.569
-73.095
-73.121
-72.521
-71.261
-69.369
-66.842
-63.726
-60.077
-55.903
-51.307
-46.465
-41.525
-36.643
-31.943
-27.475
-23.273
-19.354
-15.69
-12.246
-8.996
-5.919
-3.025
-0.329
2.187
4.555
6.831
9.098
11.423
13.876
16.529
19.435
22.632
26.148
29.986
34.139
38.607
43.394
48.508
53.963
59.761
65.898
72.368
79.157
86.247
93.617
101.236
109.072
117.096
125.275
133.582
141.989
150.463
158.969
167.473
175.936
184.319
192.58
200.675
208.561
216.194
223.533
230.537
237.165
243.381
249.147
254.43
259.197
263.418
267.068
270.12
272.555
274.353
275.501
275.987
275.806
274.953
273.431
271.243
268.401
264.917
260.807
256.091
250.791
244.932
238.543
231.654
224.296
216.503
208.312
199.761
190.889
181.737
172.346
162.758
153.015
143.158
133.23
123.27
113.319
103.415
93.597
83.9
74.359
65.007
55.873
46.985
38.37
30.048
22.039
14.361
7.026
0.047
-6.569
-12.816
-18.689
-24.189
-29.314
-34.069
-38.458
-42.487
-46.165
-49.5
-52.505
-55.19
-57.571
-59.661
-61.477
-63.033
-64.347
-65.436
-66.318
-67.011
-67.531
-67.896
-68.124
-68.23
-68.229
-68.138
-67.97
-67.738
-67.453
-67.126
-66.767
-66.388
-65.994
-65.587
-65.169
-64.742
-64.31
-63.881
-63.458
-63.026
-62.593
-62.187
-61.825
-61.531
-61.306
-61.109
-60.934
-60.821
-60.739
-60.6
-60.333
-59.862
-59.177
-58.39
-57.533
-56.485
-55.369
-54.62
-54.333
-54.378
-54.815
-55.18
-56.336
-60.989
-68.574
-76.606
-81.01
-74.096
-56.302
-35.362
-18.972
-18.062
-33.376
-54.578
-73.671
-82.038
-78.135
-69.691
-61.465
-56.69
-56.364
-57.334
-58.161
-58.953
-59.597
-60.564
-61.972
-63.393
-64.692
-65.939
-67.116
-68.197
-69.192
-70.113
-70.99
-71.89
-72.826
-73.757
-74.663
-75.539
-76.376
-77.167
-77.902
-78.561
-79.134
-79.615
-80.001
-80.283
-80.455
-80.509
-80.44
-80.241
-79.909
-79.438
-78.824
-78.063
-77.153
-76.092
-74.879
-73.514
-72
-70.338
-68.533
-66.59
-64.516
-62.319
-60.007
-57.59
-55.079
-52.487
-49.827
-47.114
-44.364
-41.593
-38.822
-36.073
-33.368
-30.728
-28.174
-25.729
-23.414
-21.249
-19.251
-17.433
-15.811
-14.398
-13.212
-12.272
-11.591
-11.183
-11.058
-11.225
-11.691
-12.459
-13.526
-14.878
-16.507
-18.41
-20.59
-23.062
-25.827
-28.876
-32.195
-35.76
-39.539
-43.496
-47.573
-51.692
-55.786
-59.796
-63.677
-67.398
-70.908
-74.146
-77.039
-79.508
-81.495
-82.955
-83.859
-84.209
-84.036
-83.399
-82.393
-81.13
-79.723
-78.304
-76.993
-75.91
-75.2
-74.974
-75.409
-76.755
-79.07
-82.243
-85.983
-89.712
-92.88
-95.153
-95.972
-94.607
-90.903
-85.127
-78.115
-71.468
-66.331
-63.087
-62.375
-64.943
-70.403
-77.52
-83.845
-85.469
-79.441
-64.028
-36.892
4.396
60.849
132.309
216.361
308.162
403.653
499.464
590.492
670.408
733.226
773.47
787.903
777.369
742.213
680.517
594.092
483.979
352.624
212.026
71.069
-60.594
-170.983
-260.349
-329.273
-378.8
-414.794
-435.883
-440.431
-430.46
-407.193
-375.023
-339.525
-303.533
-268.854
-236.766
-207.888
-182.518
-161.111
-144.126
-130.718
-120.07
-111.536
-103.688
-95.851
-87.981
-79.438
-69.522
-58.374
-46.287
-33.988
-22.956
-13.895
-6.914
-2.354
-0.401
-0.983
-3.944
-8.668
-14.116
-19.618
-24.847
-29.54
-33.604
-36.906
-39.218
-40.491
-40.818
-40.263
-38.884
-36.7
-33.679
-29.864
-25.404
-20.471
-15.26
-9.953
-4.655
0.562
5.629
10.498
15.113
19.446
23.502
27.304
30.87
34.217
37.357
40.31
43.136
45.909
48.711
51.628
54.715
58.011
61.548
65.349
69.433
73.809
78.471
83.403
88.595
94.041
99.736
105.676
111.843
118.215
124.764
131.464
138.286
145.204
152.19
159.214
166.25
173.272
180.253
187.171
193.999
200.704
207.257
213.623
219.771
225.67
231.287
236.592
241.553
246.145
250.342
254.121
257.463
260.347
262.756
264.675
266.093
266.998
267.383
267.242
266.575
265.379
263.66
261.421
258.674
255.427
251.694
247.491
242.836
237.746
232.246
226.357
220.104
213.516
206.619
199.444
192.022
184.383
176.56
168.584
160.489
152.305
144.064
135.796
127.532
119.302
111.133
103.053
95.088
87.263
79.6
72.123
64.85
57.798
50.984
44.422
38.129
32.116
26.394
20.969
15.841
11.022
6.52
2.323
-1.58
-5.201
-8.557
-11.642
-14.437
-16.969
-19.269
-21.297
-23.03
-24.452
-25.531
-26.316
-26.891
-27.229
-27.274
-27.225
-27.319
-27.437
-27.605
-27.88
-27.796
-28.653
-31.712
-35.199
-38.586
-38.604
-31.337
-21.141
-10.92
-4.996
-9.299
-18.598
-28.456
-35.837
-35.714
-31.689
-27.411
-23.691
-22.755
-23.315
-23.713
-24.267
-24.765
-25.317
-26.258
-27.366
-28.462
-29.602
-30.795
-32.016
-33.264
-34.549
-35.871
-37.258
-38.74
-40.298
-41.909
-43.574
-45.284
-47.034
-48.819
-50.628
-52.449
-54.279
-56.112
-57.941
-59.76
-61.562
-63.338
-65.083
-66.789
-68.447
-70.052
-71.596
-73.072
-74.473
-75.792
-77.025
-78.166
-79.209
-80.151
-80.987
-81.712
-82.325
-82.822
-83.201
-83.46
-83.597
-83.613
-83.507
-83.281
-82.934
-82.469
-81.886
-81.188
-80.376
-79.453
-78.42
-77.28
-76.036
-74.69
-73.246
-71.709
-70.083
-68.373
-66.584
-64.721
-62.791
-60.798
-58.748
-56.646
-54.499
-52.312
-50.092
-47.846
-45.579
-43.299
-41.015
-38.731
-36.453
-34.187
-31.935
-29.705
-27.509
-25.35
-23.229
-21.167
-19.18
-17.281
-15.5
-13.845
-12.29
-10.854
-9.562
-8.361
-7.238
-6.199
-5.184
-4.208
-3.395
-2.744
-2.213
-2.048
-2.444
-3.188
-4.332
-5.991
-7.467
-9.864
-14.609
-19.809
-24.842
-26.775
-20.173
-8.281
3.996
11.586
4.875
-14.767
-38.133
-58.988
-67.522
-61.225
-49.332
-37.281
-30.537
-32.982
-39.066
-45.255
-50.406
-52.213
-52.328
-52.247
-51.492
-50.414
-48.972
-46.797
-44.15
-41.327
-38.368
-35.369
-32.461
-29.706
-27.198
-25.282
-24.466
-25.011
-27.242
-31.502
-37.422
-44.293
-51.501
-57.676
-62.711
-69.064
-77.805
-88.111
-95.413
-89.579
-64.063
-23.744
15.466
29.499
-3.205
-82.49
-187.13
-283.495
-329.886
-303.872
-206.762
-54.595
115.563
272.069
399.324
489.362
553.216
604.327
645.51
679.082
699.575
697.637
671.508
620.088
544.785
452.602
349.458
240.599
130.471
21.217
-84.703
-183.37
-270.43
-342.644
-399.108
-440.99
-469.405
-484.867
-488.385
-481.843
-468.294
-451.11
-431.736
-409.54
-383.958
-355.287
-324.099
-291.279
-257.485
-222.56
-187.453
-154.829
-126.988
-105.19
-89.933
-80.393
-75.102
-73.495
-74.703
-76.875
-78.622
-79.056
-77.689
-75.264
-73.1
-71.695
-71.309
-72.318
-74.646
-78.222
-82.961
-88.172
-92.935
-96.705
-99.146
-100.111
-99.73
-98.063
-95.131
-91.102
-86.193
-80.622
-74.617
-68.368
-62.006
-55.652
-49.411
-43.388
-37.692
-32.396
-27.526
-23.068
-18.981
-15.234
-11.802
-8.647
-5.719
-2.944
-0.241
2.473
5.287
8.272
11.484
14.977
18.795
22.96
27.496
32.409
37.67
43.262
49.173
55.381
61.892
68.715
75.806
83.121
90.684
98.504
106.582
114.932
123.486
132.138
140.898
149.814
158.655
167.15
175.403
183.361
190.935
198.592
204.917
208.529
211.295
213.755
219.378
232.33
247.929
263.047
273.042
271.551
264.161
255.605
249.126
250.095
254.659
258.915
261.997
261.534
258.912
255.919
252.231
248.093
243.406
237.834
231.636
225.033
217.998
210.552
202.756
194.643
186.235
177.574
168.677
159.533
150.192
140.708
131.101
121.431
111.763
102.116
92.513
83.045
73.783
64.788
56.136
47.817
39.782
32.097
24.859
17.886
10.961
4.238
-2.286
-8.646
-14.329
-20.694
-29.063
-37.545
-45.566
-49.654
-45.65
-38.173
-30.304
-26.629
-33.444
-45.206
-57.22
-66.273
-67.048
-63.378
-59.145
-55.228
-54.001
-54.114
-53.825
-53.485
-52.886
-52.159
-51.676
-51.215
-50.602
-49.909
-49.161
-48.344
-47.472
-46.567
-45.642
-44.737
-43.898
-43.113
-42.369
-41.675
-41.032
-40.443
-39.91
-39.43
-38.997
-38.614
-38.28
-37.996
-37.758
-37.566
-37.417
-37.307
-37.235
-37.199
-37.196
-37.225
-37.285
-37.374
-37.492
-37.639
-37.814
-38.018
-38.252
-38.516
-38.811
-39.138
-39.499
-39.895
-40.327
-40.799
-41.311
-41.866
-42.466
-43.114
-43.81
-44.557
-45.356
-46.206
-47.11
-48.065
-49.072
-50.129
-51.235
-52.388
-53.585
-54.823
-56.098
-57.404
-58.737
-60.091
-61.459
-62.834
-64.208
-65.573
-66.921
-68.245
-69.535
-70.783
-71.98
-73.118
-74.186
-75.177
-76.079
-76.883
-77.58
-78.16
-78.613
-78.933
-79.111
-79.141
-79.018
-78.735
-78.289
-77.677
-76.897
-75.946
-74.826
-73.535
-72.077
-70.456
-68.676
-66.744
-64.665
-62.448
-60.102
-57.638
-55.065
-52.395
-49.638
-46.807
-43.915
-40.978
-38.011
-35.031
-32.056
-29.107
-26.205
-23.373
-20.631
-18.002
-15.506
-13.164
-10.996
-9.016
-7.241
-5.685
-4.363
-3.289
-2.477
-1.938
-1.683
-1.726
-2.077
-2.747
-3.74
-5.048
-6.668
-8.597
-10.838
-13.401
-16.286
-19.48
-22.975
-26.762
-30.823
-35.134
-39.64
-44.258
-48.908
-53.515
-58.024
-62.399
-66.584
-70.514
-74.127
-77.357
-80.179
-82.597
-84.588
-86.111
-87.185
-87.858
-88.257
-88.608
-89.066
-89.748
-90.78
-92.249
-94.221
-96.804
-100.1
-104.171
-109.095
-114.887
-121.514
-129.022
-137.5
-146.839
-156.242
-164.696
-171.344
-175.144
-177.01
-177.79
-175.605
-170.335
-159.594
-141.164
-121.308
-104.024
-93.855
-96.431
-105.115
-113.263
-115.358
-102.635
-74.629
-32.137
25.244
94.812
175.432
265.082
359.548
453.263
538.778
608.955
658.323
683.38
682.84
656.448
603.994
527.49
431.524
321.921
205.22
87.045
-28.128
-135.497
-229.459
-305.64
-362.148
-399.256
-418.884
-423.13
-414.135
-395.066
-370.511
-345.107
-321.846
-302.028
-285.763
-272.832
-262.988
-255.527
-248.791
-240.812
-230.591
-218.063
-203.793
-188.587
-173.021
-157.581
-143.023
-130.214
-119.628
-111.37
-105.236
-100.804
-97.756
-95.859
-94.851
-94.425
-94.274
-94.116
-93.737
-93.038
-91.956
-90.44
-88.457
-85.987
-83.057
-79.738
-76.125
-72.31
-68.373
-64.383
-60.4
-56.5
-52.768
-49.282
-46.112
-43.297
-40.846
-38.756
-37.021
-35.608
-34.471
-33.564
-32.832
-32.221
-31.693
-31.187
-30.63
-29.993
-29.244
-28.287
-27.037
-25.426
-23.375
-20.889
-18.017
-14.697
-10.837
-6.626
-2.293
2.307
7.16
12.224
17.996
23.112
26.237
29.242
32.679
39.99
55.297
73.971
92.914
107.526
111.502
110.337
108.679
109.699
118.664
131.721
144.967
157.492
166.898
174.497
181.994
189.007
195.714
201.954
207.331
212.042
216.238
219.827
222.77
225.066
226.691
227.618
227.829
227.285
225.944
223.825
220.952
217.33
212.978
207.915
202.164
195.756
188.73
181.118
172.956
164.287
155.152
145.599
135.676
125.431
114.916
104.183
93.281
82.264
71.182
60.085
49.022
38.041
27.187
16.504
6.032
-4.191
-14.127
-23.745
-33.013
-41.907
-50.401
-58.475
-66.112
-73.299
-80.025
-86.282
-92.067
-97.377
-102.217
-106.589
-110.502
-113.965
-116.993
-119.599
-121.802
-123.62
-125.074
-126.187
-126.982
-127.483
-127.715
-127.703
-127.473
-127.051
-126.46
-125.725
-124.871
-123.919
-122.893
-121.813
-120.698
-119.568
-118.439
-117.328
-116.249
-115.214
-114.237
-113.326
-112.491
-111.739
-111.076
-110.506
-110.032
-109.655
-109.376
-109.195
-109.108
-109.114
-109.207
-109.384
-109.64
-109.967
-110.361
-110.815
-111.322
-111.875
-112.468
-113.095
-113.749
-114.423
-115.113
-115.814
-116.519
-117.225
-117.927
-118.621
-119.305
-119.975
-120.628
-121.263
-121.879
-122.473
-123.045
-123.596
-124.125
-124.634
-125.124
-125.595
-126.05
-126.491
-126.92
-127.339
-127.75
-128.154
-128.554
-128.95
-129.345
-129.739
-130.133
-130.527
-130.92
-131.313
-131.705
-132.095
-132.48
-132.858
-133.227
-133.584
-133.926
-134.248
-134.546
-134.817
-135.054
-135.254
-135.411
-135.521
-135.577
-135.574
-135.505
-135.365
-135.147
-134.847
-134.458
-133.974
-133.39
-132.704
-131.911
-131.007
-129.991
-128.86
-127.612
-126.248
-124.768
-123.173
-121.465
-119.648
-117.727
-115.707
-113.596
-111.403
-109.138
-106.813
-104.441
-102.035
-99.611
-97.185
-94.773
-92.39
-90.054
-87.777
-85.577
-83.468
-81.466
-79.59
-77.857
-76.283
-74.889
-73.69
-72.703
-71.945
-71.428
-71.151
-71.118
-71.334
-71.808
-72.559
-73.599
-74.923
-76.53
-78.414
-80.563
-82.959
-85.558
-88.29
-91.097
-93.927
-96.746
-99.545
-102.301
-104.974
-107.516
-109.86
-111.96
-113.81
-115.394
-116.685
-117.672
-118.377
-118.909
-119.441
-120.12
-121.03
-122.176
-123.543
-125.181
-127.184
-129.688
-132.835
-136.66
-141.199
-146.581
-152.813
-159.768
-167.058
-173.817
-179.122
-182.299
-182.722
-180.027
-174.394
-166.222
-156.493
-146.971
-139.142
-134.258
-133.507
-137.082
-144.094
-152.662
-159.369
-160.069
-151.244
-130.83
-98.285
-53.275
5.172
80.891
178.408
295.96
423.698
541.994
628.247
670.245
669.965
642.279
604.305
564.684
521.906
468.12
398.771
315.366
223.281
129.084
36.321
-53.536
-138.501
-216.263
-284.493
-341.161
-385.393
-416.809
-435.145
-440.573
-434.148
-417.647
-393.113
-363.103
-330.071
-296.224
-263.317
-232.556
-204.699
-180.432
-160.355
-144.15
-130.903
-119.282
-108.32
-97.774
-87.514
-77.219
-66.418
-55.077
-43.81
-33.806
-25.914
-20.083
-16.036
-13.785
-13.352
-14.573
-17.315
-19.415
-18.953
-17.394
-15.162
-15.551
-22.363
-30.978
-38.424
-40.393
-30.999
-15.694
0.96
15.809
23.585
27.701
31.554
35.722
42.343
50.053
57.132
63.828
69.86
75.397
80.947
86.435
91.754
96.904
101.822
106.572
111.159
