Name,John Breau
Date of Birth,"Dec 20, 1971"
Recorded Date,2025-05-02 16:22:28 -0500
Classification,Sinus Rhythm
Symptoms,
Software Version,1.90
Device,"Watch6,18"
Sample Rate,512 hertz


Lead,Lead I
Unit,µV

105.824
103.732
101.472
99.047
96.464
93.727
90.841
87.814
84.65
81.358
77.944
74.417
70.784
67.054
63.236
59.339
55.373
51.348
47.273
43.159
39.018
34.858
30.693
26.533
22.39
18.275
14.199
10.175
6.213
2.324
-1.482
-5.194
-8.804
-12.301
-15.677
-18.922
-22.029
-24.99
-27.795
-30.44
-32.917
-35.22
-37.345
-39.288
-41.045
-42.614
-43.992
-45.179
-46.174
-46.976
-47.587
-48.01
-48.247
-48.303
-48.182
-47.892
-47.439
-46.832
-46.08
-45.194
-44.182
-43.055
-41.825
-40.503
-39.104
-37.64
-36.124
-34.571
-32.997
-31.42
-29.859
-28.331
-26.853
-25.442
-24.115
-22.894
-21.796
-20.838
-20.035
-19.4
-18.947
-18.694
-18.653
-18.836
-19.249
-19.897
-20.784
-21.913
-23.29
-24.911
-26.77
-28.855
-31.155
-33.668
-36.393
-39.327
-42.461
-45.783
-49.272
-52.91
-56.677
-60.539
-64.461
-68.399
-72.298
-76.113
-79.803
-83.336
-86.695
-89.852
-92.753
-95.329
-97.499
-99.208
-100.463
-101.301
-101.742
-101.768
-101.403
-100.817
-100.339
-100.304
-100.888
-102.004
-103.491
-105.465
-108.088
-111.215
-114.311
-116.543
-117.238
-116.395
-114.381
-111.095
-106.262
-100.031
-93.102
-86.88
-82.999
-82.284
-84.853
-91.353
-101.416
-112.886
-123.798
-131.242
-135.084
-139.648
-145.68
-150.926
-146.808
-117.231
-53.231
47.699
179.982
325.49
467.634
591.011
682.684
741.075
769.583
775.533
767.315
747.634
714.624
664.068
594.486
508.409
411.005
309.276
207.894
109.753
18.494
-62.964
-132.4
-187.837
-229.258
-257.952
-274.674
-280.778
-278.767
-270.915
-259.541
-246.692
-232.719
-217.444
-201.101
-183.489
-164.24
-143.364
-120.797
-97.039
-73.662
-52.033
-33.163
-18.041
-7.062
-0.216
2.739
2.823
1.416
-0.549
-2.327
-3.388
-3.666
-3.186
-2.238
-1.613
-1.967
-3.587
-6.59
-10.842
-16.083
-22.113
-28.567
-34.913
-40.759
-45.854
-50.09
-53.528
-56.225
-58.21
-59.553
-60.35
-60.686
-60.648
-60.291
-59.64
-58.724
-57.585
-56.293
-54.926
-53.554
-52.251
-51.053
-49.977
-49.034
-48.214
-47.496
-46.858
-46.266
-45.675
-45.051
-44.362
-43.578
-42.675
-41.62
-40.372
-38.89
-37.129
-35.056
-32.651
-29.895
-26.778
-23.299
-19.455
-15.257
-10.72
-5.859
-0.687
4.78
10.53
16.545
22.8
29.273
35.933
42.753
49.703
56.752
63.867
71.014
78.16
85.273
92.318
99.264
106.072
112.709
119.135
125.315
131.213
136.794
142.021
146.861
151.283
155.257
158.754
161.75
164.222
166.147
167.51
168.294
168.486
168.079
167.064
165.439
163.204
160.361
156.915
152.877
148.258
143.074
137.343
131.085
124.325
117.088
109.403
101.3
92.814
83.978
74.829
65.405
55.747
45.895
35.891
25.778
15.599
5.397
-4.785
-14.904
-24.919
-34.789
-44.475
-53.938
-63.141
-72.049
-80.63
-88.852
-96.687
-104.107
-111.09
-117.614
-123.66
-129.213
-134.26
-138.791
-142.798
-146.277
-149.227
-151.649
-153.548
-154.93
-155.805
-156.185
-156.085
-155.524
-154.519
-153.094
-151.272
-149.078
-146.54
-143.686
-140.544
-137.145
-133.52
-129.697
-125.71
-121.588
-117.362
-113.062
-108.718
-104.358
-100.011
-95.703
-91.459
-87.305
-83.262
-79.352
-75.593
-72.005
-68.603
-65.401
-62.412
-59.646
-57.112
-54.815
-52.761
-50.952
-49.387
-48.065
-46.983
-46.134
-45.513
-45.109
-44.915
-44.919
-45.11
-45.475
-46
-46.672
-47.476
-48.397
-49.419
-50.528
-51.706
-52.939
-54.211
-55.508
-56.815
-58.118
-59.403
-60.658
-61.869
-63.025
-64.115
-65.129
-66.057
-66.892
-67.628
-68.258
-68.78
-69.19
-69.488
-69.673
-69.746
-69.71
-69.567
-69.319
-68.971
-68.528
-67.996
-67.38
-66.688
-65.928
-65.11
-64.241
-63.331
-62.391
-61.428
-60.454
-59.478
-58.509
-57.557
-56.633
-55.745
-54.904
-54.12
-53.402
-52.758
-52.194
-51.719
-51.336
-51.049
-50.861
-50.773
-50.784
-50.894
-51.102
-51.408
-51.809
-52.305
-52.892
-53.57
-54.334
-55.179
-56.098
-57.082
-58.12
-59.199
-60.306
-61.429
-62.555
-63.671
-64.765
-65.826
-66.844
-67.809
-68.707
-69.52
-70.23
-70.819
-71.276
-71.596
-71.776
-71.822
-71.747
-71.566
-71.299
-70.956
-70.542
-70.053
-69.473
-68.786
-67.973
-67.029
-65.959
-64.771
-63.471
-62.06
-60.537
-58.886
-57.084
-55.098
-52.89
-50.436
-47.731
-44.8
-41.691
-38.474
-35.232
-32.036
-28.938
-25.986
-23.223
-20.69
-18.434
-16.509
-14.972
-13.895
-13.368
-13.464
-14.239
-15.714
-17.865
-20.638
-23.949
-27.716
-31.867
-36.327
-41.014
-45.849
-50.756
-55.656
-60.484
-65.154
-69.554
-73.572
-77.094
-80.039
-82.369
-84.08
-85.199
-85.779
-85.88
-85.591
-85.032
-84.311
-83.526
-82.763
-82.108
-81.672
-81.606
-82.077
-83.265
-85.37
-88.519
-92.721
-97.796
-103.316
-108.762
-113.62
-117.343
-119.383
-119.301
-116.908
-112.757
-108.172
-104.397
-102.484
-102.404
-102.893
-104.291
-107.276
-112.605
-122.31
-132.64
-135.826
-124.654
-89.653
-29.1
49.743
139.875
232.006
320.431
406.401
489.12
565.826
632.744
684.079
715.516
725.651
714.501
681.877
629.419
560.075
475.484
379.245
273.917
161.112
48.042
-58.429
-150.908
-221.898
-272.835
-306.372
-325.808
-336.33
-337.27
-328.933
-313.805
-293.348
-271.582
-251.426
-233.221
-217.345
-203.475
-190.68
-178.357
-165.609
-151.276
-135.05
-117.253
-98.394
-79.209
-60.428
-42.693
-26.752
-13.367
-2.905
4.614
9.351
11.633
11.764
9.998
6.659
2.134
-3.227
-9.116
-15.271
-21.486
-27.543
-33.17
-38.115
-42.196
-45.296
-47.378
-48.456
-48.55
-47.706
-46.003
-43.545
-40.453
-36.857
-32.869
-28.588
-24.12
-19.567
-15.056
-10.717
-6.638
-2.87
0.563
3.662
6.432
8.884
11.057
13.001
14.767
16.404
17.951
19.439
20.907
22.399
23.962
25.65
27.498
29.531
31.767
34.216
36.887
39.785
42.904
46.229
49.75
53.458
57.346
61.409
65.635
70.01
74.519
79.145
83.87
88.677
93.549
98.463
103.402
108.346
113.275
118.172
123.018
127.791
132.47
137.034
141.461
145.732
149.827
153.726
157.41
160.863
164.07
167.016
169.689
172.077
174.169
175.958
177.435
178.594
179.432
179.945
180.132
179.995
179.534
178.755
177.663
176.265
174.571
172.589
170.331
167.81
165.04
162.034
158.807
155.376
151.757
147.966
144.021
139.939
135.736
131.431
127.04
122.58
118.067
113.517
108.946
104.369
99.8
95.255
90.747
86.288
81.892
77.571
73.335
69.196
65.161
61.24
57.44
53.767
50.228
46.826
43.567
40.452
37.483
34.663
31.99
29.466
27.088
24.854
22.763
20.811
18.994
17.31
15.755
14.323
13.01
11.812
10.722
9.736
8.848
8.05
7.337
6.703
6.14
5.643
5.203
4.816
4.473
4.17
3.898
3.652
3.427
3.215
3.012
2.811
2.61
2.402
2.184
1.953
1.706
1.439
1.151
0.838
0.5
0.134
-0.262
-0.688
-1.145
-1.635
-2.158
-2.713
-3.301
-3.919
-4.569
-5.248
-5.956
-6.689
-7.448
-8.229
-9.03
-9.848
-10.681
-11.525
-12.377
-13.233
-14.09
-14.944
-15.793
-16.632
-17.459
-18.272
-19.067
-19.843
-20.597
-21.325
-22.027
-22.698
-23.338
-23.943
-24.512
-25.043
-25.534
-25.984
-26.392
-26.757
-27.077
-27.352
-27.582
-27.765
-27.902
-27.993
-28.038
-28.039
-27.997
-27.915
-27.793
-27.635
-27.442
-27.218
-26.964
-26.683
-26.376
-26.045
-25.693
-25.321
-24.933
-24.529
-24.113
-23.687
-23.253
-22.813
-22.369
-21.923
-21.476
-21.03
-20.585
-20.143
-19.706
-19.273
-18.846
-18.426
-18.013
-17.606
-17.205
-16.807
-16.412
-16.017
-15.619
-15.215
-14.803
-14.38
-13.944
-13.492
-13.022
-12.532
-12.02
-11.483
-10.921
-10.33
-9.71
-9.059
-8.377
-7.662
-6.914
-6.136
-5.328
-4.494
-3.638
-2.766
-1.881
-0.99
-0.099
0.785
1.656
2.509
3.34
4.142
4.908
5.628
6.294
6.897
7.43
7.886
8.26
8.545
8.739
8.846
8.866
8.801
8.642
8.376
7.986
7.465
6.807
6.011
5.082
4.024
2.855
1.606
0.312
-0.992
-2.278
-3.528
-4.718
-5.816
-6.77
-7.515
-7.987
-8.135
-7.921
-7.328
-6.345
-4.981
-3.276
-1.293
0.879
3.131
5.366
7.477
9.339
10.841
11.797
11.951
11.133
9.273
6.467
3.054
-0.594
-4.161
-7.186
-9.113
-9.59
-8.512
-6.335
-4.159
-3.151
-4.311
-8.485
-16.289
-27.854
-42.594
-58.864
-73.866
-84.003
-85.709
-76.009
-52.062
-12.819
41.552
111.327
194.179
288.125
390.7
493.671
589.68
670.192
726.443
758.908
768.75
758.15
732.097
689.554
630.435
557.702
473.26
381.671
287.936
194.679
104.322
19.341
-58.6
-128.202
-188.137
-237.649
-276.828
-305.808
-324.76
-334.468
-335.714
-329.152
-316.152
-298.415
-277.182
-253.637
-229.236
-205.337
-183.273
-164.457
-149.444
-138.003
-129.911
-124.806
-121.845
-119.935
-117.985
-114.842
-109.953
-103.442
-95.552
-86.684
-77.533
-68.947
-61.621
-56.149
-52.819
-51.513
-52.025
-54.062
-57.176
-60.863
-64.751
-68.55
-72.04
-75.135
-77.738
-79.738
-81.121
-81.904
-82.094
-81.711
-80.767
-79.266
-77.254
-74.804
-71.983
-68.862
-65.497
-61.932
-58.243
-54.509
-50.814
-47.255
-43.891
-40.76
-37.893
-35.301
-32.98
-30.923
-29.104
-27.483
-26.029
-24.71
-23.498
-22.375
-21.31
-20.267
-19.206
-18.08
-16.852
-15.497
-13.994
-12.328
-10.49
-8.474
-6.283
-3.927
-1.414
1.25
4.059
7.009
10.095
13.303
16.62
20.03
23.516
27.06
30.645
34.249
37.853
41.437
44.98
48.465
51.87
55.173
58.351
61.38
64.235
66.894
69.333
71.527
73.455
75.094
76.425
77.43
78.091
78.392
78.32
77.86
77.004
75.742
74.066
71.972
69.457
66.519
63.162
59.388
55.205
50.621
45.649
40.302
34.596
28.548
22.179
15.51
8.565
1.367
-6.057
-13.68
-21.474
-29.408
-37.453
-45.578
-53.752
-61.944
-70.123
-78.26
-86.322
-94.282
-102.11
-109.779
-117.26
-124.528
-131.558
-138.325
-144.809
-150.988
-156.844
-162.36
-167.521
-172.315
-176.732
-180.763
-184.402
-187.645
-190.49
-192.938
-194.989
-196.648
-197.922
-198.818
-199.345
-199.514
-199.339
-198.832
-198.007
-196.881
-195.47
-193.789
-191.857
-189.691
-187.309
-184.73
-181.972
-179.054
-175.995
-172.813
-169.526
-166.152
-162.709
-159.213
-155.681
-152.127
-148.568
-145.016
-141.485
-137.988
-134.534
-131.134
-127.796
-124.528
-121.338
-118.228
-115.205
-112.272
-109.43
-106.683
-104.032
-101.477
-99.02
-96.66
-94.397
-92.23
-90.159
-88.181
-86.295
-84.498
-82.788
-81.163
-79.619
-78.154
-76.763
-75.442
-74.188
-72.996
-71.862
-70.779
-69.743
-68.749
-67.792
-66.868
-65.973
-65.103
-64.255
-63.427
-62.616
-61.821
-61.04
-60.269
-59.507
-58.752
-58
-57.25
-56.499
-55.744
-54.982
-54.212
-53.431
-52.637
-51.828
-51.001
-50.155
-49.289
-48.4
-47.489
-46.555
-45.6
-44.624
-43.63
-42.621
-41.599
-40.566
-39.525
-38.477
-37.423
-36.364
-35.3
-34.228
-33.149
-32.062
-30.968
-29.868
-28.764
-27.657
-26.551
-25.453
-24.365
-23.29
-22.231
-21.187
-20.159
-19.147
-18.149
-17.165
-16.192
-15.229
-14.277
-13.34
-12.417
-11.506
-10.602
-9.692
-8.771
-7.839
-6.897
-5.946
-4.995
-4.058
-3.158
-2.335
-1.614
-1.009
-0.524
-0.149
0.126
0.308
0.408
0.441
0.42
0.366
0.29
0.194
0.1
0.042
0.073
0.277
0.708
1.385
2.315
3.477
4.84
6.366
7.988
9.62
11.188
12.625
13.881
14.928
15.714
16.17
16.207
15.713
14.606
12.845
10.393
7.237
3.393
-1.099
-6.156
-11.649
-17.476
-23.546
-29.774
-36.087
-42.387
-48.558
-54.487
-60.046
-65.12
-69.604
-73.383
-76.355
-78.453
-79.655
-79.994
-79.536
-78.336
-76.452
-73.954
-70.952
-67.601
-64.061
-60.499
-57.081
-53.967
-51.383
-49.64
-48.952
-49.406
-50.901
-53.078
-55.605
-58.28
-60.8
-62.757
-63.833
-63.833
-63.082
-62.572
-63.169
-65.325
-69.244
-74.79
-81.665
-89.551
-97.154
-101.993
-101.486
-93.345
-75.884
-48.344
-10.076
39.926
101.5
172.97
251.943
335.222
419.702
503.041
582.284
653.117
711.62
754.599
779.375
784.93
770.768
736.001
681.081
608.486
521.442
424.046
321.154
216.607
114.22
18.598
-66.6
-138.995
-196.991
-240.463
-270.544
-288.208
-294.985
-293.427
-285.732
-273.758
-259.018
-241.95
-222.519
-200.985
-177.324
-151.159
-122.614
-92.151
-60.837
-30.72
-3.592
19.414
37.27
49.254
55.245
55.512
51.209
44.471
36.967
29.727
23.593
18.93
15.813
14.279
13.786
13.242
11.996
9.8
6.584
2.667
-1.59
-5.97
-10.075
-13.392
-15.668
-16.797
-16.784
-15.822
-14.065
-11.618
-8.644
-5.292
-1.67
2.117
5.994
9.895
13.705
17.334
20.727
23.84
26.668
29.217
31.487
33.51
35.333
37.003
38.565
40.054
41.489
42.903
44.333
45.821
47.417
49.156
51.062
53.156
55.45
57.952
60.666
63.586
66.695
69.981
73.433
77.043
80.804
84.705
88.731
92.866
97.091
101.391
105.748
110.143
114.556
118.969
123.361
127.715
132.014
136.237
140.364
144.375
148.248
151.963
155.498
158.833
161.95
164.83
167.456
169.813
171.887
173.666
175.139
176.296
177.129
177.634
177.804
177.637
177.132
176.291
175.116
173.611
171.782
169.637
167.185
164.437
161.405
158.101
154.541
150.74
146.715
142.483
138.063
133.475
128.737
123.87
118.894
113.829
108.696
103.514
98.305
93.087
87.878
82.699
77.565
72.495
67.505
62.609
57.823
53.159
48.63
44.248
40.023
35.964
32.078
28.374
24.856
21.529
18.398
15.464
12.729
10.193
7.856
5.715
3.769
2.013
0.443
-0.945
-2.158
-3.201
-4.081
-4.807
-5.384
-5.821
-6.126
-6.307
-6.373
-6.332
-6.193
-5.964
-5.652
-5.267
-4.816
-4.306
-3.745
-3.14
-2.497
-1.822
-1.123
-0.403
0.331
1.076
1.827
2.579
3.331
4.08
4.822
5.556
6.28
6.993
7.693
8.38
9.052
9.709
10.351
10.977
11.587
12.18
12.756
13.316
13.858
14.382
14.887
15.373
15.838
16.283
16.705
17.103
17.477
17.824
18.144
18.433
18.69
18.912
19.098
19.242
19.344
19.398
19.402
19.353
19.246
19.078
18.845
18.545
18.174
17.728
17.205
16.602
15.917
15.149
14.295
13.354
12.327
11.213
10.012
8.726
7.356
5.903
4.37
2.76
1.075
-0.68
-2.502
-4.385
-6.326
-8.316
-10.351
-12.423
-14.526
-16.649
-18.786
-20.927
-23.064
-25.185
-27.283
-29.346
-31.365
-33.33
-35.231
-37.059
-38.805
-40.46
-42.015
-43.463
-44.797
-46.01
-47.095
-48.047
-48.86
-49.531
-50.054
-50.428
-50.649
-50.715
-50.625
-50.379
-49.976
-49.419
-48.709
-47.849
-46.841
-45.692
-44.406
-42.99
-41.452
-39.799
-38.041
-36.186
-34.247
-32.233
-30.155
-28.025
-25.855
-23.656
-21.441
-19.222
-17.011
-14.822
-12.67
-10.569
-8.536
-6.584
-4.729
-2.986
-1.37
0.108
1.436
2.606
3.609
4.436
5.075
5.519
5.76
5.793
5.615
5.223
4.617
3.8
2.783
1.576
0.186
-1.383
-3.141
-5.09
-7.228
-9.551
-12.048
-14.705
-17.506
-20.42
-23.402
-26.405
-29.384
-32.3
-35.128
-37.833
-40.371
-42.684
-44.694
-46.337
-47.557
-48.313
-48.583
-48.362
-47.663
-46.533
-45.047
-43.288
-41.365
-39.388
-37.46
-35.692
-34.185
-33.11
-32.728
-33.248
-34.756
-37.112
-39.98
-43.046
-46.027
-48.513
-49.965
-49.88
-48.026
-44.999
-41.876
-39.454
-38.72
-40.574
-45.42
-53.989
-65.363
-75.571
-82.118
-83.725
-80.122
-74.891
-65.662
-43.654
-1.177
70.016
168.301
281.149
396.719
503.443
595.485
673.338
735.674
781.153
807.55
811.574
792.937
752.032
689.972
610.469
517.394
414.855
307.877
200.08
94.428
-4.826
-93.796
-169.701
-230.232
-274.727
-304.083
-318.78
-319.55
-308.773
-289.482
-265.076
-239.263
-214.615
-192.382
-173.794
-159.987
-151.067
-146.364
-144.505
-143.404
-141.336
-137.594
-131.739
-123.245
-112.017
-98.342
-82.865
-66.888
-51.78
-38.248
-26.69
-17.437
-10.555
-6.035
-3.779
-3.303
-3.985
-5.425
-7.33
-9.533
-12.02
-14.705
-17.466
-20.246
-22.982
-25.603
-28.055
-30.231
-31.99
-33.253
-33.984
-34.197
-33.963
-33.343
-32.387
-31.135
-29.608
-27.84
-25.871
-23.743
-21.498
-19.182
-16.838
-14.532
-12.347
-10.338
-8.535
-6.94
-5.525
-4.268
-3.147
-2.134
-1.198
-0.309
0.567
1.454
2.372
3.346
4.409
5.598
6.962
8.533
10.335
12.379
14.671
17.21
19.995
23.016
26.254
29.692
33.314
37.106
41.057
45.148
49.358
53.663
58.036
62.453
66.886
71.31
75.697
80.019
84.251
88.367
92.344
96.157
99.781
103.19
106.36
109.266
111.887
114.202
116.189
117.833
119.116
120.027
120.556
120.695
120.437
119.78
118.723
117.267
115.417
113.179
110.561
107.573
104.23
100.544
96.535
92.219
87.618
82.753
77.648
72.325
66.812
61.132
55.313
49.382
43.365
37.29
31.182
25.07
18.979
12.933
6.957
1.075
-4.692
-10.325
-15.803
-21.112
-26.234
-31.157
-35.868
-40.357
-44.616
-48.639
-52.42
-55.957
-59.249
-62.296
-65.1
-67.666
-69.999
-72.105
-73.992
-75.67
-77.147
-78.435
-79.546
-80.491
-81.283
-81.936
-82.464
-82.878
-83.194
-83.424
-83.581
-83.678
-83.726
-83.737
-83.722
-83.69
-83.65
-83.611
-83.581
-83.565
-83.571
-83.602
-83.662
-83.756
-83.883
-84.046
-84.245
-84.48
-84.748
-85.048
-85.378
-85.734
-86.114
-86.514
-86.929
-87.356
-87.789
-88.224
-88.656
-89.081
-89.494
-89.89
-90.266
-90.616
-90.939
-91.229
-91.485
-91.704
-91.884
-92.024
-92.122
-92.177
-92.189
-92.159
-92.085
-91.971
-91.816
-91.623
-91.395
-91.133
-90.842
-90.524
-90.183
-89.823
-89.447
-89.059
-88.664
-88.264
-87.863
-87.467
-87.077
-86.699
-86.337
-85.994
-85.674
-85.381
-85.119
-84.89
-84.697
-84.543
-84.43
-84.361
-84.336
-84.357
-84.425
-84.542
-84.709
-84.925
-85.191
-85.507
-85.873
-86.286
-86.745
-87.25
-87.797
-88.384
-89.011
-89.673
-90.369
-91.096
-91.853
-92.634
-93.438
-94.259
-95.094
-95.937
-96.784
-97.627
-98.46
-99.278
-100.074
-100.843
-101.58
-102.278
-102.935
-103.547
-104.11
-104.62
-105.073
-105.461
-105.778
-106.017
-106.17
-106.232
-106.196
-106.058
-105.815
-105.464
-105.008
-104.446
-103.775
-102.992
-102.089
-101.061
-99.91
-98.641
-97.265
-95.801
-94.271
-92.704
-91.129
-89.569
-88.04
-86.548
-85.092
-83.664
-82.259
-80.879
-79.54
-78.256
-77.04
-75.894
-74.817
-73.79
-72.785
-71.767
-70.691
-69.532
-68.279
-66.951
-65.592
-64.263
-63.036
-61.968
-61.088
-60.425
-60
-59.843
-59.992
-60.497
-61.412
-62.805
-64.757
-67.319
-70.517
-74.33
-78.682
-83.469
-88.565
-93.855
-99.254
-104.679
-110.053
-115.295
-120.314
-125.012
-129.307
-133.095
-136.263
-138.747
-140.506
-141.559
-141.994
-141.906
-141.423
-140.699
-139.854
-139.007
-138.293
-137.809
-137.716
-138.259
-139.559
-141.64
-144.437
-147.681
-151.068
-154.319
-156.946
-158.327
-158.035
-155.937
-152.339
-147.911
-143.517
-140.132
-138.452
-139.327
-142.571
-146.146
-149.013
-150.423
-150.549
-151.934
-151.766
-142.488
-116.134
-63.356
15.581
111
213.48
312.013
401.496
483.232
554.869
613.561
656.109
677.358
675.684
652.023
606.615
541.237
459.51
365.096
262.576
157.052
51.954
-49.781
-144.183
-227.992
-298.941
-355.153
-396.575
-424.149
-438.094
-439.082
-428.871
-409.466
-383.559
-354.265
-323.452
-292.64
-263.842
-238.582
-218.024
-202.824
-192.399
-185.474
-181.191
-178.513
-176.043
-172.748
-167.531
-159.663
-149.349
-137.22
-123.916
-110.322
-97.444
-85.954
-76.492
-69.461
-64.788
-62.244
-61.489
-62.021
-63.314
-65.033
-66.938
-68.86
-70.734
-72.482
-74.05
-75.43
-76.629
-77.608
-78.273
-78.556
-78.41
-77.838
-76.895
-75.627
-74.071
-72.257
-70.209
-67.964
-65.57
-63.067
-60.475
-57.823
-55.147
-52.501
-49.962
-47.578
-45.359
-43.302
-41.386
-39.588
-37.891
-36.268
-34.68
-33.097
-31.487
-29.827
-28.103
-26.29
-24.358
-22.27
-19.982
-17.462
-14.695
-11.667
-8.374
-4.814
-0.989
3.091
7.406
11.94
16.679
21.608
26.715
31.983
37.388
42.907
48.512
54.178
59.877
65.583
71.267
76.902
82.462
87.92
93.253
98.437
103.447
108.256
112.841
117.179
121.246
125.022
128.487
131.622
134.412
136.843
138.903
140.584
141.877
142.778
143.283
143.391
143.104
142.426
141.361
139.919
138.109
135.943
133.437
130.606
127.469
124.044
120.353
116.418
112.263
107.912
103.388
98.718
93.927
89.04
84.083
79.081
74.058
69.041
64.052
59.114
54.25
49.48
44.825
40.304
35.933
31.73
27.708
23.88
20.259
16.854
13.673
10.724
8.01
5.535
3.301
1.308
-0.448
-1.968
-3.258
-4.324
-5.174
-5.816
-6.259
-6.514
-6.592
-6.504
-6.262
-5.878
-5.365
-4.735
-4.002
-3.177
-2.275
-1.306
-0.284
0.78
1.874
2.987
4.109
5.23
6.34
7.432
8.497
9.528
10.519
11.464
12.357
13.196
13.978
14.7
15.361
15.96
16.498
16.976
17.395
17.757
18.063
18.316
18.519
18.676
18.789
18.863
18.9
18.906
18.885
18.84
18.776
18.697
18.607
18.51
18.41
18.31
18.215
18.128
18.052
17.991
17.948
17.927
17.929
17.956
18.012
18.097
18.213
18.359
18.539
18.75
18.995
19.273
19.584
19.929
20.306
20.716
21.157
21.628
22.129
22.658
23.213
23.793
24.396
25.021
25.666
26.329
27.01
27.706
28.415
29.136
29.866
30.604
31.348
32.095
32.845
33.596
34.347
35.097
35.846
36.592
37.336
38.077
38.816
39.553
40.287
41.02
41.751
42.483
43.216
43.953
44.695
45.445
46.205
46.978
47.767
48.575
49.404
50.257
51.137
52.047
52.991
53.97
54.988
56.048
57.152
58.303
59.504
60.754
62.056
63.41
64.816
66.276
67.789
69.35
70.953
72.594
74.27
75.98
77.72
79.471
81.232
83.013
84.82
86.658
88.517
90.357
92.158
93.936
95.658
97.247
98.637
99.762
100.601
101.222
101.643
101.771
101.669
101.634
101.742
101.884
102.091
102.048
102.283
104.742
109.165
113.712
115.592
109.307
94.774
77.609
63.27
59.526
67.443
79.569
90.114
93.016
86.801
77.056
67.386
60.107
56.146
53.307
50.507
47.873
45.371
43.428
42.191
41.34
40.761
40.452
40.377
40.545
40.905
41.318
41.814
42.634
43.756
44.96
46.151
46.894
47.617
49.881
53.127
55.702
54.949
46.093
30.073
12.515
-0.762
-1.639
10.385
28.145
45.757
55.943
56.289
51.012
42.142
31.933
23.029
15.283
9.273
4.942
0.396
-3.285
-0.272
20.24
69.049
149.784
256.75
375.127
489.545
590.923
675.574
744.243
797.398
832.869
847.723
840.123
810.411
759.979
691.415
608.318
514.152
412.988
309.396
206.636
107.647
16.219
-64.719
-132.782
-185.771
-223.447
-246.95
-257.028
-255.026
-243.412
-224.372
-200.814
-176.266
-152.47
-130.046
-109.79
-91.907
-76.239
-62.981
-51.183
-38.976
-25.705
-11.377
3.97
19.824
35.919
52.455
68.797
83.678
96.426
106.671
114.302
119.678
122.918
123.887
122.862
120.382
116.904
112.907
108.624
104.026
99.214
94.382
89.681
85.307
81.354
77.759
74.683
72.499
71.289
70.951
71.449
72.364
74.2
78.679
85.316
92.403
97.117
94.245
84.119
71.847
62.55
63.512
75.053
90.222
103.676
109.633
107.178
101.518
95.839
92.355
91.745
91.937
92.025
92.111
92.143
92.469
93.196
94.073
95.065
96.254
97.653
99.263
101.105
103.196
105.571
108.275
111.301
114.605
118.157
121.934
125.913
130.061
134.329
138.661
143.008
147.331
151.603
155.794
159.871
163.796
167.533
171.058
174.369
177.47
180.354
183.02
185.466
187.703
189.769
191.686
193.456
195.065
196.481
197.665
198.594
199.238
199.56
199.509
199.016
198.007
196.43
194.234
191.36
187.734
183.256
177.852
171.488
164.154
155.858
146.603
136.386
125.213
113.11
100.109
86.25
71.562
56.066
39.801
22.829
5.249
-12.82
-31.274
-50.032
-69.02
-88.151
-107.308
-126.364
-145.196
-163.673
-181.656
-198.978
-215.432
-230.836
-245.04
-257.933
-269.449
-279.535
-288.136
-295.212
-300.743
-304.74
-307.257
-308.361
-308.12
-306.643
-304.066
-300.573
-296.402
-291.756
-286.795
-281.66
-276.454
-271.276
-266.227
-261.38
-256.78
-252.458
-248.422
-244.682
-241.248
-238.1
-235.191
-232.442
-229.745
-227.02
-224.22
-221.308
-218.268
-215.086
-211.751
-208.27
-204.674
-200.989
-197.239
-193.444
-189.614
-185.774
-181.961
-178.217
-174.59
-171.114
-167.808
-164.685
-161.75
-159.002
-156.44
-154.048
-151.802
-149.683
-147.678
-145.772
-143.957
-142.22
-140.545
-138.917
-137.321
-135.746
-134.18
-132.614
-131.037
-129.444
-127.828
-126.186
-124.517
-122.819
-121.089
-119.323
-117.52
-115.677
-113.793
-111.869
-109.904
-107.9
-105.86
-103.789
-101.691
-99.573
-97.44
-95.3
-93.158
-91.024
-88.904
-86.804
-84.732
-82.694
-80.697
-78.748
-76.851
-75.011
-73.234
-71.522
-69.88
-68.311
-66.818
-65.402
-64.065
-62.809
-61.633
-60.539
-59.524
-58.589
-57.73
-56.945
-56.23
-55.581
-54.993
-54.459
-53.975
-53.533
-53.125
-52.745
-52.385
-52.036
-51.69
-51.339
-50.975
-50.59
-50.175
-49.723
-49.227
-48.68
-48.076
-47.409
-46.674
-45.866
-44.98
-44.013
-42.96
-41.82
-40.59
-39.268
-37.854
-36.35
-34.757
-33.078
-31.317
-29.48
-27.572
-25.6
-23.572
-21.496
-19.38
-17.236
-15.074
-12.906
-10.745
-8.604
-6.5
-4.45
-2.473
-0.585
1.196
2.852
4.366
5.717
6.89
7.868
8.639
9.189
9.502
9.561
9.355
8.873
8.111
7.064
5.729
4.101
2.181
-0.025
-2.508
-5.257
-8.269
-11.55
-15.105
-18.929
-23.01
-27.332
-31.878
-36.632
-41.563
-46.63
-51.78
-56.953
-62.097
-67.158
-72.094
-76.865
-81.41
-85.669
-89.561
-92.995
-95.921
-98.303
-100.116
-101.388
-102.113
-102.254
-101.957
-101.491
-101.11
-101.145
-101.703
-102.662
-104.195
-106.601
-109.812
-113.463
-116.86
-119.043
-119.713
-119.149
-117.188
-113.565
-108.472
-102.588
-97.548
-95.43
-97.3
-103.296
-113.552
-127.924
-145.629
-165.023
-182.847
-194.816
-197.265
-187.396
-162.628
-121.998
-65.284
8.245
96.418
197.62
309.799
424.869
535.948
634.621
711.434
766.101
798.872
810.281
803.917
777.736
730.16
663.126
578.402
480.726
375.916
268.302
161.895
60.829
-31.054
-110.48
-174.926
-223.512
-257.146
-277.414
-286.179
-286.124
-280.15
-271.21
-262.06
-253.908
-246.523
-239.062
-230.491
-219.828
-206.413
-189.546
-168.922
-145.495
-120.946
-97.441
-77.055
-61.069
-50.057
-44.215
-43.066
-45.375
-49.785
-54.691
-58.675
-60.984
-61.267
-59.568
-56.413
-52.579
-48.649
-45.089
-42.137
-39.777
-37.97
-36.566
-35.245
-33.605
-31.373
-28.465
-24.951
-20.985
-16.662
-12.011
-7.085
-2.016
3.053
7.989
12.679
17.095
21.226
25.015
28.427
31.448
34.078
36.385
38.453
40.294
41.904
43.28
44.367
45.111
45.5
45.513
45.171
44.565
43.737
42.641
41.4
40.336
39.523
38.859
38.361
37.712
37.509
39.618
43.697
48.071
49.994
44.261
31.148
15.922
3.802
2.188
11.626
25.093
37.159
41.99
38.504
31.945
25.551
21.502
20.486
20.359
20.126
19.853
19.448
19.22
19.246
19.231
19.079
18.831
18.472
17.978
17.354
16.605
15.75
14.829
13.853
12.791
11.633
10.377
9.021
7.565
6.007
4.342
2.571
0.699
-1.27
-3.33
-5.475
-7.7
-9.998
-12.361
-14.779
-17.244
-19.746
-22.274
-24.817
-27.363
-29.902
-32.422
-34.91
-37.355
-39.745
-42.071
-44.325
-46.499
-48.578
-50.548
-52.405
-54.143
-55.745
-57.201
-58.494
-59.602
-60.539
-61.328
-61.956
-62.418
-62.737
-62.921
-63.005
-63.038
-62.96
-62.698
-62.264
-61.683
-60.851
-59.667
-58.204
-56.405
-54.391
-52.682
-50.256
-46.226
-41.931
-37.413
-36.027
-41.572
-49.556
-57.472
-59.746
-49.131
-32.695
-15.872
-4.106
-5.487
-13.549
-22.342
-29.024
-28.292
-23.728
-19.142
-14.847
-12.621
-11.251
-9.158
-6.898
-4.382
-1.688
0.249
2.339
5.643
8.795
11.754
11.316
2.459
-12.006
-28.536
-39.101
-32.096
-9.306
21.857
49.309
57.657
45.576
20.717
-5.558
-20.94
-22.612
-15.017
-4.705
2.813
6.059
6.452
6.063
5.82
5.658
5.332
4.625
3.679
2.782
2.002
1.332
0.814
0.439
0.177
-0.008
-0.184
-0.393
-0.63
-0.876
-1.127
-1.385
-1.65
-1.921
-2.192
-2.459
-2.722
-2.988
-3.259
-3.538
-3.826
-4.126
-4.439
-4.769
-5.117
-5.487
-5.88
-6.3
-6.747
-7.226
-7.737
-8.282
-8.864
-9.482
-10.139
-10.834
-11.567
-12.337
-13.144
-13.986
-14.862
-15.768
-16.703
-17.665
-18.648
-19.652
-20.67
-21.698
-22.732
-23.764
-24.79
-25.802
-26.792
-27.753
-28.677
-29.557
-30.382
-31.147
-31.843
-32.461
-32.994
-33.433
-33.772
-34.003
-34.12
-34.116
-33.985
-33.724
-33.328
-32.794
-32.121
-31.308
-30.353
-29.259
-28.026
-26.658
-25.158
-23.53
-21.781
-19.916
-17.945
-15.876
-13.719
-11.487
-9.193
-6.852
-4.481
-2.096
0.285
2.643
4.959
7.215
9.394
11.479
13.454
15.305
17.015
18.569
19.952
21.148
22.145
22.931
23.497
23.836
23.947
23.833
23.498
22.942
22.16
21.151
19.91
18.438
16.736
14.813
12.686
10.383
7.946
5.421
2.855
0.291
-2.235
-4.686
-7.021
-9.193
-11.143
-12.809
-14.139
-15.082
-15.588
-15.632
-15.231
-14.43
-13.321
-12.001
-10.526
-8.946
-7.328
-5.76
-4.317
-3.123
-2.297
-1.957
-2.377
-3.801
-6.293
-9.739
-13.833
-18.087
-21.797
-24.389
-25.182
-23.25
-19.44
-15.101
-10.303
-6.757
-2.692
5.585
14.836
23.147
24.536
8.73
-20.191
-54.525
-81.076
-78.352
-40.234
32.804
134.865
249.585
370.115
490.108
600.825
699.385
776.093
825.355
851.021
854.57
841.784
816.347
773.812
712.706
633.737
539.173
435.348
329.003
224.096
122.251
26.468
-62.334
-143.538
-211.234
-262.829
-295.988
-306.966
-300.488
-281.864
-256.005
-230.284
-206.225
-183.443
-162.438
-142.637
-125.662
-113.055
-104.279
-97.85
-91.411
-83.609
-74.397
-63.917
-52.267
-39.309
-25.192
-10.95
1.884
12.326
20.035
25.048
27.575
27.57
25.01
20.295
14.11
7.09
-0.302
-7.833
-15.413
-22.829
-29.789
-36.066
-41.487
-45.982
-49.543
-52.143
-53.753
-54.374
-54.05
-52.875
-50.977
-48.483
-45.506
-42.138
-38.451
-34.541
-30.522
-26.512
-22.63
-18.955
-15.521
-12.356
-9.475
-6.883
-4.569
-2.5
-0.623
1.109
2.731
4.274
5.759
7.22
8.697
10.232
11.872
13.647
15.577
17.678
19.963
22.438
25.104
27.953
30.97
34.144
37.466
40.929
44.528
48.251
52.088
56.025
60.048
64.141
68.293
72.486
76.706
80.937
85.163
89.369
93.543
97.667
101.725
105.699
109.57
113.321
116.933
120.389
123.669
126.759
129.641
132.301
134.726
136.904
138.824
140.475
141.848
142.938
143.737
144.24
144.444
144.348
143.949
143.248
142.246
140.946
139.352
137.469
135.303
132.861
130.152
127.184
123.968
120.516
116.839
112.95
108.862
104.589
100.147
95.55
90.813
85.954
80.986
75.926
70.789
65.591
60.347
55.071
49.778
44.481
39.195
33.931
28.703
23.523
18.401
13.348
8.376
3.493
-1.292
-5.969
-10.532
-14.973
-19.285
-23.464
-27.503
-31.399
-35.149
-38.749
-42.198
-45.494
-48.638
-51.629
-54.469
-57.158
-59.7
-62.096
-64.351
-66.468
-68.45
-70.303
-72.03
-73.638
-75.13
-76.512
-77.789
-78.967
-80.05
-81.045
-81.956
-82.79
-83.552
-84.248
-84.884
-85.464
-85.994
-86.48
-86.925
-87.336
-87.715
-88.066
-88.394
-88.702
-88.992
-89.268
-89.532
-89.785
-90.029
-90.264
-90.493
-90.714
-90.928
-91.13
-91.323
-91.509
-91.688
-91.863
-92.031
-92.187
-92.332
-92.475
-92.61
-92.717
-92.783
-92.79
-92.737
-92.652
-92.536
-92.36
-92.146
-91.955
-91.833
-91.836
-91.966
-92.143
-92.35
-92.672
-93.015
-93.077
-92.808
-92.294
-91.498
-90.766
-89.432
-85.618
-79.846
-73.8
-70.433
-75.131
-87.263
-101.505
-112.449
-112.427
-101.374
-86.46
-73.2
-67.678
-70.624
-76.658
-82.582
-86.091
-86.633
-86.417
-86.366
-86.425
-86.659
-86.728
-86.569
-86.477
-86.529
-86.676
-86.923
-87.283
-87.739
-88.276
-88.863
-89.444
-90.002
-90.557
-91.111
-91.656
-92.19
-92.705
-93.198
-93.671
-94.12
-94.537
-94.917
-95.253
-95.54
-95.776
-95.956
-96.077
-96.135
-96.128
-96.052
-95.905
-95.685
-95.39
-95.017
-94.566
-94.036
-93.424
-92.733
-91.962
-91.112
-90.183
-89.178
-88.098
-86.945
-85.722
-84.431
-83.077
-81.663
-80.195
-78.678
-77.119
-75.525
-73.905
-72.268
-70.625
-68.988
-67.367
-65.776
-64.226
-62.732
-61.304
-59.954
-58.693
-57.53
-56.478
-55.546
-54.749
-54.097
-53.605
-53.281
-53.138
-53.185
-53.427
-53.868
-54.507
-55.344
-56.383
-57.634
-59.106
-60.806
-62.738
-64.905
-67.301
-69.913
-72.716
-75.669
-78.733
-81.868
-85.036
-88.211
-91.364
-94.464
-97.476
-100.345
-103.02
-105.453
-107.591
-109.394
-110.848
-111.969
-112.806
-113.45
-113.98
-114.462
-114.979
-115.601
-116.409
-117.489
-118.932
-120.837
-123.369
-126.763
-131.126
-136.441
-142.543
-148.996
-155.292
-160.959
-165.39
-167.902
-168.256
-166.539
-163.112
-159.251
-156.456
-155.778
-158.427
-164.207
-170.84
-176.611
-180.46
-183.426
-188.546
-194.828
-195.705
-179.109
-132.526
-52.477
54.278
172.422
285.715
385.398
469.322
539.361
596.764
639.547
664.176
667.806
650.027
611.771
554.874
481.975
395.841
299.903
198.361
95.069
-6.555
-102.626
-189.588
-264.407
-324.618
-369.355
-399.015
-414.365
-416.439
-407.058
-388.638
-364.058
-336.273
-307.263
-278.318
-250.707
-225.852
-204.863
-188.019
-174.822
-164.359
-155.978
-149.31
-143.744
-138.138
-131.367
-122.921
-112.862
-101.694
-89.995
-78.132
-66.626
-56.348
-48.037
-42.096
-38.631
-37.388
-38.001
-40.173
-43.496
-47.449
-51.631
-55.718
-59.454
-62.708
-65.355
-67.282
-68.463
-68.906
-68.617
-67.611
-65.906
-63.531
-60.56
-57.084
-53.193
-48.972
-44.484
-39.814
-35.067
-30.353
-25.787
-21.443
-17.36
-13.572
-10.098
-6.943
-4.102
-1.546
0.769
2.886
4.838
6.662
8.383
10.037
11.671
13.33
15.065
16.912
18.896
21.038
23.355
25.856
28.545
31.419
34.463
37.669
41.03
44.54
48.194
51.981
55.888
59.902
64.007
68.187
72.425
76.705
81.008
85.317
89.613
93.879
98.1
102.257
106.329
110.296
114.137
117.83
121.355
124.691
127.818
130.718
133.374
135.769
137.89
139.725
141.263
142.495
143.412
144.011
144.285
144.235
143.859
143.16
142.14
140.805
139.162
137.219
134.987
132.478
129.703
126.678
123.417
119.938
116.258
112.396
108.371
104.204
99.916
95.529
91.064
86.545
81.994
77.433
72.884
68.368
63.905
59.515
55.218
51.03
46.969
43.05
39.288
35.696
32.284
29.064
26.044
23.232
20.634
18.254
16.096
14.163
12.456
10.976
9.721
8.688
7.876
7.279
6.892
6.708
6.718
6.915
7.289
7.827
8.521
9.357
10.323
11.407
12.596
13.877
15.237
16.663
18.144
19.665
21.217
22.788
24.368
25.946
27.514
29.064
30.588
32.079
33.529
34.934
36.287
37.583
38.818
39.987
41.088
42.118
43.076
43.959
44.768
45.503
46.166
46.758
47.282
47.74
48.137
48.476
48.762
48.999
49.192
49.346
49.467
49.559
49.628
49.677
49.711
49.734
49.749
49.759
49.768
49.778
49.791
49.81
49.836
49.872
49.92
49.981
50.057
50.148
50.256
50.381
50.522
50.681
50.855
51.043
51.246
51.46
51.684
51.915
52.152
52.39
52.628
52.862
53.089
53.305
53.508
53.695
53.863
54.01
54.134
54.234
54.307
54.354
54.373
54.363
54.323
54.253
54.153
54.022
53.859
53.664
53.439
53.182
52.896
52.579
52.235
51.863
51.465
51.043
50.599
50.134
49.651
49.153
48.642
48.121
47.594
47.065
46.537
46.014
45.498
44.995
44.507
44.037
43.587
43.161
42.762
42.392
42.053
41.749
41.482
41.254
41.069
40.929
40.836
40.793
40.801
40.864
40.981
41.156
41.39
41.684
42.039
42.457
42.937
43.482
44.09
44.76
45.491
46.282
47.129
48.031
48.984
49.984
51.026
52.108
53.225
54.371
55.542
56.731
57.934
59.143
60.35
61.549
62.728
63.876
64.984
66.04
67.031
67.946
68.773
69.5
70.12
70.625
71.004
71.252
71.356
71.309
71.105
70.736
70.198
69.488
68.603
67.544
66.321
64.939
63.405
61.721
59.877
57.87
55.698
53.361
50.865
48.218
45.432
42.532
39.557
36.547
33.544
30.585
27.699
24.921
22.29
19.859
17.694
15.855
14.395
13.351
12.745
12.584
12.855
13.522
14.523
15.768
17.153
18.587
19.971
21.214
22.216
22.787
22.675
21.712
19.815
17.035
13.582
9.672
5.57
1.77
-1.101
-2.6
-2.512
-1.014
1.206
3.276
4.224
2.73
-1.55
-7.266
-13.09
-17.493
-21.896
-31.278
-46.574
-64.076
-72.394
-54.4
-2.084
83.016
190.817
305.783
420.267
531.47
634.814
722.779
783.461
807.264
794.389
754.754
699.961
637.689
570.066
493.621
406.73
312.026
213.528
116.469
24.863
-59.092
-133.583
-197.014
-248.181
-286.63
-312.239
-325.135
-325.86
-315.543
-296.228
-270.723
-242.055
-212.783
-184.778
-159.576
-138.626
-122.736
-111.697
-104.517
-99.451
-94.732
-89.469
-83.092
-74.931
-64.773
-52.856
-39.771
-26.789
-15.283
-5.909
0.999
5.195
6.753
5.8
2.564
-2.284
-7.925
-13.799
-19.498
-24.759
-29.491
-33.497
-36.497
-38.515
-39.881
-40.69
-40.88
-40.503
-39.24
-37.804
-38.227
-40.181
-42.059
-41.048
-31.807
-14.911
4.068
19.55
23.706
16.165
4.198
-6.574
-10.027
-5.222
2.407
9.59
14.065
15.241
15.396
15.553
15.696
15.948
16.031
15.916
15.935
16.203
16.685
17.404
18.387
19.626
21.106
22.793
24.632
26.607
28.74
31.036
33.482
36.067
38.778
41.603
44.537
47.569
50.681
53.854
57.073
60.322
63.584
66.843
70.077
73.265
76.384
79.41
82.321
85.095
87.708
90.138
92.364
94.369
96.132
97.638
98.872
99.818
100.464
100.801
100.818
100.507
99.865
98.886
97.569
95.915
93.927
91.609
88.966
86.009
82.745
79.189
75.353
71.252
66.903
62.324
57.534
52.554
47.404
42.107
36.685
31.162
25.561
19.904
14.216
8.519
2.835
-2.814
-8.407
-13.925
-19.347
-24.656
-29.835
-34.866
-39.736
-44.43
-48.937
-53.245
-57.345
-61.229
-64.89
-68.324
-71.527
-74.497
-77.231
-79.732
-82.001
-84.039
-85.852
-87.444
-88.821
-89.99
-90.958
-91.734
-92.327
-92.747
-93.001
-93.101
-93.057
-92.878
-92.575
-92.158
-91.636
-91.018
-90.316
-89.537
-88.691
-87.786
-86.83
-85.831
-84.796
-83.731
-82.642
-81.535
-80.414
-79.284
-78.148
-77.011
-75.875
-74.743
-73.617
-72.499
-71.391
-70.293
-69.209
-68.137
-67.079
-66.036
-65.009
-63.997
-63.004
-62.028
-61.072
-60.137
-59.224
-58.334
-57.469
-56.631
-55.819
-55.037
-54.285
-53.565
-52.879
-52.229
-51.617
-51.045
-50.517
-50.035
-49.597
-49.202
-48.848
-48.536
-48.271
-48.055
-47.881
-47.76
-47.713
-47.753
-47.899
-48.157
-48.498
-48.904
-49.382
-49.881
-50.32
-50.657
-50.849
-50.876
-50.83
-50.784
-50.729
-50.851
-51.54
-52.823
-54.529
-56.728
-58.999
-61.801
-67.076
-74.245
-81.364
-85.366
-79.445
-62.441
-39.704
-18.41
-11.815
-26.527
-57.325
-95.183
-123.729
-131.333
-119.086
-93.53
-67.874
-52.937
-50.647
-58.415
-69.46
-78.292
-83.564
-85.779
-86.937
-88.231
-89.56
-90.765
-91.596
-92.101
-92.6
-93.217
-93.966
-94.872
-95.911
-97.054
-98.266
-99.482
-100.655
-101.772
-102.844
-103.875
-104.86
-105.796
-106.68
-107.511
-108.29
-109.014
-109.672
-110.259
-110.769
-111.196
-111.537
-111.787
-111.939
-111.99
-111.934
-111.768
-111.488
-111.09
-110.572
-109.93
-109.164
-108.274
-107.259
-106.122
-104.865
-103.491
-102.005
-100.413
-98.722
-96.936
-95.062
-93.11
-91.085
-88.997
-86.856
-84.672
-82.457
-80.225
-77.992
-75.773
-73.585
-71.443
-69.365
-67.365
-65.458
-63.655
-61.968
-60.409
-58.992
-57.727
-56.624
-55.694
-54.946
-54.385
-54.016
-53.84
-53.85
-54.043
-54.419
-54.97
-55.692
-56.591
-57.67
-58.936
-60.408
-62.071
-63.901
-65.921
-68.131
-70.505
-73.026
-75.626
-78.207
-80.759
-83.288
-85.589
-87.432
-88.828
-89.696
-89.971
-89.96
-88.704
-85.291
-80.991
-76.228
-73.464
-75.625
-79.703
-83.77
-84.863
-78.943
-70.071
-61.631
-55.936
-56.626
-60.926
-65.984
-70.99
-73.92
-75.165
-75.639
-74.91
-73.227
-71.327
-69.968
-70.414
-74.08
-81.038
-89.984
-99.71
-109.507
-120.857
-136.665
-156.542
-174.533
-178.403
-154.883
-97.062
-8.03
99.316
211.109
317.834
415.833
506.926
590.442
662.492
718.374
752.497
762.373
748.466
711.337
652.663
575.814
484.679
383.994
279.045
173.871
72.267
-21.218
-102.684
-169.504
-220.383
-255.851
-277.515
-286.757
-285.648
-277.332
-265.109
-252.208
-240.77
-231.41
-224.1
-218.704
-214.657
-211.005
-206.509
-199.678
-189.796
-177.031
-161.853
-144.994
-127.214
-109.176
-91.684
-75.65
-61.634
-49.891
-40.498
-33.289
-28.101
-24.815
-23.21
-23.05
-24.112
-26.155
-28.972
-32.384
-36.186
-40.199
-44.264
-48.196
-51.818
-54.974
-57.506
-59.328
-60.404
-60.717
-60.279
-59.12
-57.283
-54.847
-51.901
-48.532
-44.822
-40.841
-36.646
-32.314
-27.936
-23.601
-19.408
-15.418
-11.663
-8.167
-4.938
-1.972
0.741
3.229
5.536
7.695
9.736
11.685
13.56
15.391
17.215
19.071
21.005
23.049
25.223
27.547
30.032
32.686
35.512
38.502
41.645
44.93
48.351
51.901
55.573
59.36
63.249
67.225
71.272
75.376
79.519
83.685
87.856
92.014
96.141
100.221
104.238
108.175
112.011
115.729
119.306
122.725
125.965
129.008
131.835
134.43
136.776
138.86
140.67
142.194
143.422
144.347
144.962
145.263
145.245
144.907
144.25
143.274
141.984
140.383
138.48
136.281
133.797
131.038
128.018
124.751
121.253
117.54
113.63
109.543
105.298
100.917
96.421
91.831
87.171
82.461
77.724
72.981
68.254
63.563
58.927
54.364
49.893
45.531
41.292
37.192
33.245
29.462
25.854
22.433
19.206
16.181
13.364
10.76
8.373
6.205
4.256
2.526
1.013
-0.287
-1.378
-2.268
-2.963
-3.472
-3.806
-3.975
-3.99
-3.864
-3.607
-3.233
-2.754
-2.183
-1.531
-0.812
-0.036
0.784
1.638
2.516
3.407
4.302
5.191
6.068
6.923
7.75
8.541
9.29
9.993
10.644
11.238
11.774
12.247
12.658
13.004
13.287
13.508
13.668
13.771
13.819
13.816
13.766
13.673
13.543
13.379
13.186
12.969
12.73
12.475
12.206
11.926
11.64
11.347
11.052
10.755
10.458
10.162
9.868
9.578
9.291
9.008
8.73
8.456
8.186
7.92
7.657
7.395
7.134
6.87
6.601
6.326
6.041
5.744
5.432
5.102
4.751
4.378
3.979
3.554
3.102
2.621
2.11
1.572
1.005
0.411
-0.208
-0.85
-1.514
-2.197
-2.896
-3.608
-4.332
-5.063
-5.798
-6.536
-7.273
-8.005
-8.731
-9.446
-10.149
-10.835
-11.502
-12.147
-12.766
-13.357
-13.918
-14.445
-14.936
-15.391
-15.807
-16.185
-16.523
-16.823
-17.085
-17.309
-17.499
-17.656
-17.782
-17.88
-17.954
-18.008
-18.043
-18.065
-18.077
-18.082
-18.083
-18.084
-18.088
-18.097
-18.114
-18.14
-18.177
-18.227
-18.291
-18.37
-18.465
-18.575
-18.701
-18.842
-18.996
-19.162
-19.337
-19.517
-19.699
-19.879
-20.052
-20.213
-20.357
-20.478
-20.569
-20.625
-20.639
-20.603
-20.512
-20.359
-20.136
-19.839
-19.462
-18.999
-18.448
-17.804
-17.067
-16.233
-15.303
-14.276
-13.153
-11.934
-10.624
-9.226
-7.744
-6.184
-4.556
-2.869
-1.137
0.626
2.407
4.191
5.963
7.707
9.403
11.034
12.584
14.036
15.372
16.572
17.617
18.486
19.163
19.638
19.9
19.938
19.744
19.312
18.636
17.714
16.546
15.128
13.452
11.518
9.323
6.873
4.186
1.278
-1.827
-5.101
-8.517
-12.04
-15.633
-19.256
-22.861
-26.403
-29.845
-33.149
-36.286
-39.214
-41.862
-44.167
-46.105
-47.68
-48.952
-49.963
-50.66
-51.078
-51.403
-51.951
-53.106
-55.079
-57.769
-61.091
-65.222
-70.186
-75.694
-80.958
-84.747
-86.263
-85.527
-82.79
-77.992
-71.241
-63.102
-55.063
-49.591
-48.612
-52.694
-61.61
-75.134
-92.648
-112.749
-132.765
-148.445
-155.291
-150.089
-130.844
-95.557
-43.949
23.087
104.983
198.163
299.662
406.972
512.401
609.053
688.842
743.34
773.119
779.752
765.89
736.387
689.785
625.656
546.582
454.461
354.439
251.965
149.891
51.287
-40.367
-122.308
-191.805
-246.679
-286.602
-312.214
-324.106
-323.352
-311.837
-291.98
-266.931
-240.029
-213.543
-188.807
-166.77
-148.191
-133.665
-123.049
-115.325
-108.927
-102.47
-95.363
-87.54
-78.889
-69.13
-58.33
-47.006
-36.129
-26.856
-19.757
-14.897
-12.276
-11.92
-13.77
-17.609
-22.928
-28.978
-35.213
-41.324
-47.078
-52.282
-56.722
-60.199
-62.628
-64.051
-64.526
-64.093
-62.782
-60.618
-57.669
-54.058
-49.917
-45.376
-40.563
-35.589
-30.572
-25.644
-20.919
-16.475
-12.365
-8.61
-5.212
-2.176
0.508
2.865
4.931
6.748
8.36
9.805
11.124
12.361
13.563
14.784
16.067
17.44
18.926
20.54
22.292
24.193
26.245
28.446
30.789
33.274
35.897
38.66
41.56
44.589
47.739
50.999
54.358
57.806
61.332
64.923
68.564
72.24
75.937
79.641
83.333
86.996
90.608
94.148
97.596
100.931
104.132
107.178
110.05
112.728
115.196
117.436
119.435
121.177
122.649
123.838
124.735
125.329
125.611
125.576
125.217
124.532
123.517
122.173
120.502
118.506
116.192
113.565
110.635
107.414
103.913
100.147
96.131
91.883
87.42
82.763
77.931
72.943
67.822
62.588
57.262
51.864
46.416
40.937
35.447
29.965
24.51
19.101
13.754
8.488
3.319
-1.738
-6.667
-11.453
-16.085
-20.549
-24.834
-28.93
-32.829
-36.523
-40.006
-43.275
-46.325
-49.155
-51.766
-54.159
-56.337
-58.302
-60.061
-61.618
-62.981
-64.155
-65.15
-65.973
-66.632
-67.136
-67.494
-67.715
-67.809
-67.784
-67.65
-67.417
-67.094
-66.692
-66.22
-65.687
-65.103
-64.479
-63.823
-63.144
-62.451
-61.753
-61.056
-60.369
-59.697
-59.046
-58.421
-57.826
-57.265
-56.74
-56.253
-55.807
-55.402
-55.039
-54.717
-54.438
-54.2
-54.004
-53.848
-53.733
-53.657
-53.619
-53.618
-53.654
-53.724
-53.828
-53.963
-54.129
-54.323
-54.543
-54.788
-55.054
-55.34
-55.644
-55.962
-56.294
-56.637
-56.99
-57.35
-57.716
-58.089
-58.466
-58.847
-59.232
-59.62
-60.013
-60.408
-60.808
-61.211
-61.619
-62.03
-62.445
-62.863
-63.285
-63.709
-64.135
-64.562
-64.99
-65.417
-65.842
-66.264
-66.682
-67.095
-67.501
-67.9
-68.291
-68.671
-69.041
-69.399
-69.743
-70.073
-70.388
-70.685
-70.964
-71.224
-71.462
-71.678
-71.87
-72.037
-72.176
-72.288
-72.371
-72.425
-72.447
-72.439
-72.4
-72.33
-72.229
-72.099
-71.94
-71.754
-71.541
-71.305
-71.046
-70.767
-70.47
-70.158
-69.834
-69.499
-69.157
-68.809
-68.46
-68.11
-67.762
-67.418
-67.081
-66.752
-66.433
-66.126
-65.831
-65.551
-65.285
-65.035
-64.801
-64.582
-64.379
-64.189
-64.012
-63.845
-63.686
-63.531
-63.379
-63.225
-63.065
-62.895
-62.711
-62.508
-62.279
-62.022
-61.729
-61.395
-61.014
-60.581
-60.092
-59.541
-58.924
-58.237
-57.476
-56.638
-55.722
-54.726
-53.648
-52.487
-51.244
-49.92
-48.516
-47.035
-45.482
-43.862
-42.184
-40.455
-38.687
-36.892
-35.084
-33.274
-31.477
-29.705
-27.97
-26.286
-24.669
-23.134
-21.695
-20.369
-19.172
-18.122
-17.233
-16.52
-15.991
-15.651
-15.502
-15.547
-15.79
-16.24
-16.909
-17.799
-18.912
-20.246
-21.802
-23.572
-25.541
-27.678
-29.939
-32.287
-34.688
-37.117
-39.551
-41.959
-44.296
-46.507
-48.536
-50.349
-51.932
-53.275
-54.352
-55.133
-55.607
-55.812
-55.845
-55.813
-55.756
-55.657
-55.567
-55.676
-56.317
-57.86
-60.473
-64.094
-68.691
-74.307
-80.809
-87.738
-94.058
-98.464
-100.147
-98.892
-94.732
-87.897
-78.868
-68.459
-58.726
-52.369
-51.225
-56.361
-66.874
-79.961
-93.327
-105.364
-116.386
-127.892
-137.933
-140.749
-126.151
-83.135
-8.07
97.236
225.514
364.219
502.867
628.013
722.823
777.985
790.49
767.013
724.787
675.785
624.34
569.119
503.299
424.468
335.542
241.392
147.768
58.068
-25.716
-101.897
-169.342
-226.55
-272.341
-306.754
-330.046
-342.626
-345.643
-340.13
-327.031
-308.089
-285.124
-259.189
-231.313
-202.586
-173.899
-146.683
-122.427
-101.528
-83.925
-69.827
-59.174
-51.735
-47.032
-43.695
-40.352
-36.507
-32.022
-26.837
-21.097
-14.863
-8.43
-2.731
1.442
3.806
4.326
3.261
0.961
-2.381
-6.458
-10.712
-14.671
-17.994
-20.48
-22.151
-23.066
-23.235
-22.702
-21.535
-19.805
-17.606
-15.025
-12.118
-8.942
-5.551
-2.014
1.575
5.105
8.465
11.578
14.407
16.935
19.158
21.075
22.69
24.03
25.143
26.073
26.859
27.536
28.127
28.672
29.217
29.815
30.521
31.375
32.402
33.625
35.059
36.719
38.611
40.734
43.076
45.627
48.382
51.335
54.481
57.812
61.312
64.966
68.758
72.67
76.686
80.787
84.953
89.163
93.398
97.637
101.861
106.05
110.179
114.226
118.166
121.975
125.63
129.109
132.389
135.448
138.268
140.83
143.118
145.119
146.818
148.206
149.271
150.009
150.412
150.478
150.204
149.591
148.64
147.356
145.743
143.809
141.562
139.011
136.171
133.053
129.672
126.046
122.191
118.127
113.872
109.448
104.876
100.176
95.372
90.485
85.537
80.55
75.546
70.546
65.569
60.635
55.762
50.968
46.268
41.678
37.211
32.88
28.697
24.672
20.815
17.133
13.634
10.323
7.205
4.283
1.558
-0.968
-3.297
-5.43
-7.37
-9.12
-10.687
-12.076
-13.294
-14.348
-15.248
-16.003
-16.621
-17.114
-17.49
-17.761
-17.937
-18.026
-18.039
-17.984
-17.871
-17.708
-17.502
-17.261
-16.992
-16.701
-16.395
-16.078
-15.755
-15.43
-15.108
-14.791
-14.482
-14.182
-13.894
-13.618
-13.354
-13.104
-12.866
-12.639
-12.422
-12.213
-12.011
-11.812
-11.614
-11.414
-11.21
-10.998
-10.776
-10.542
-10.295
-10.032
-9.753
-9.455
-9.14
-8.806
-8.453
-8.082
-7.695
-7.291
-6.873
-6.442
-6.002
-5.554
-5.101
-4.647
-4.194
-3.745
-3.303
-2.873
-2.456
-2.056
-1.678
-1.323
-0.997
-0.701
-0.439
-0.215
-0.03
0.113
0.212
0.265
0.273
0.233
0.145
0.011
-0.171
-0.399
-0.671
-0.986
-1.341
-1.734
-2.162
-2.62
-3.106
-3.615
-4.144
-4.687
-5.24
-5.8
-6.361
-6.92
-7.472
-8.013
-8.539
-9.046
-9.531
-9.991
-10.421
-10.821
-11.188
-11.52
-11.817
-12.077
-12.301
-12.489
-12.641
-12.759
-12.844
-12.899
-12.926
-12.928
-12.908
-12.87
-12.819
-12.759
-12.695
-12.63
-12.571
-12.522
-12.488
-12.474
-12.485
-12.525
-12.598
-12.71
-12.863
-13.062
-13.307
-13.603
-13.95
-14.35
-14.803
-15.307
-15.863
-16.468
-17.12
-17.815
-18.55
-19.32
-20.12
-20.945
-21.786
-22.638
-23.493
-24.342
-25.177
-25.99
-26.772
-27.514
-28.207
-28.843
-29.413
-29.907
-30.319
-30.64
-30.863
-30.98
-30.987
-30.876
-30.645
-30.289
-29.806
-29.195
-28.455
-27.587
-26.593
-25.478
-24.244
-22.899
-21.449
-19.904
-18.272
-16.566
-14.798
-12.983
-11.137
-9.277
-7.421
-5.588
-3.797
-2.068
-0.421
1.129
2.562
3.863
5.016
6.003
6.81
7.42
7.819
7.993
7.931
7.624
7.067
6.258
5.2
3.895
2.344
0.543
-1.509
-3.812
-6.363
-9.156
-12.179
-15.409
-18.814
-22.349
-25.968
-29.626
-33.28
-36.895
-40.431
-43.847
-47.096
-50.119
-52.863
-55.276
-57.308
-58.913
-60.074
-60.809
-61.168
-61.238
-61.091
-60.78
-60.367
-59.925
-59.543
-59.31
-59.315
-59.634
-60.403
-61.835
-64.032
-66.992
-70.542
-74.247
-77.638
-80.283
-81.621
-81.055
-78.382
-73.654
-67.244
-60.344
-54.221
-49.963
-49.073
-51.667
-55.722
-59.362
-60.233
-58.285
-57.982
-60.541
-63.523
-58.768
-29.511
34.74
135.864
266.91
405.419
530.162
626.731
685.716
713.753
721.305
712.803
690.624
648.307
578.631
486.106
382.45
282.254
197.271
127.539
63.423
-2.618
-73.072
-146.06
-212.934
-269.216
-315.941
-350.323
-372.409
-380.577
-370.481
-346.695
-314.585
-278.947
-245.509
-213.527
-182.019
-152.189
-124.81
-102.225
-85.451
-73.565
-66.176
-62.549
-61.874
-63.226
-64.667
-64.83
-63.45
-60.647
-56.777
-52.157
-46.877
-41.409
-36.863
-33.956
-32.845
-33.368
-35.02
-37.389
-40.288
-43.424
-46.278
-48.369
-49.536
-50.018
-50.023
-49.539
-48.635
-47.07
-45.471
-45.883
-48.141
-50.496
-50.218
-41.895
-25.57
-6.936
8.473
12.847
5.131
-7.261
-18.55
-22.66
-18.106
-10.388
-3.004
1.838
3.316
3.7
4.142
4.582
5.16
5.604
5.85
6.241
6.905
7.807
8.966
10.41
12.134
14.121
16.344
18.747
21.309
24.054
26.986
30.093
33.365
36.784
40.337
44.017
47.811
51.7
55.666
59.69
63.754
67.843
71.938
76.017
80.058
84.037
87.932
91.719
95.375
98.876
102.201
105.329
108.24
110.916
113.342
115.502
117.382
118.969
120.252
121.224
121.878
122.207
122.209
121.882
121.227
120.248
118.948
117.334
115.413
113.195
110.691
107.913
104.875
101.592
98.08
94.357
90.441
86.352
82.109
77.732
73.243
68.662
64.009
59.305
54.569
49.821
45.08
40.365
35.692
31.078
26.54
22.092
17.748
13.521
9.422
5.461
1.647
-2.011
-5.508
-8.837
-11.995
-14.977
-17.782
-20.409
-22.859
-25.131
-27.229
-29.156
-30.914
-32.51
-33.949
-35.236
-36.376
-37.378
-38.248
-38.992
-39.619
-40.135
-40.549
-40.867
-41.098
-41.25
-41.328
-41.342
-41.296
-41.197
-41.052
-40.866
-40.645
-40.392
-40.114
-39.815
-39.497
-39.166
-38.824
-38.474
-38.118
-37.758
-37.396
-37.034
-36.672
-36.312
-35.955
-35.602
-35.256
-34.916
-34.585
-34.263
-33.951
-33.65
-33.36
-33.084
-32.821
-32.572
-32.34
-32.123
-31.925
-31.745
-31.585
-31.447
-31.33
-31.236
-31.165
-31.118
-31.096
-31.099
-31.128
-31.184
-31.267
-31.379
-31.518
-31.685
-31.881
-32.104
-32.353
-32.627
-32.924
-33.243
-33.582
-33.939
-34.311
-34.698
-35.096
-35.504
-35.918
-36.338
-36.759
-37.179
-37.596
-38.008
-38.412
-38.807
-39.191
-39.562
-39.919
-40.262
-40.589
-40.899
-41.191
-41.465
-41.72
-41.955
-42.171
-42.368
-42.547
-42.709
-42.855
-42.987
-43.106
-43.215
-43.316
-43.409
-43.498
-43.585
-43.671
-43.759
-43.85
-43.948
-44.053
-44.168
-44.295
-44.435
-44.588
-44.757
-44.94
-45.139
-45.354
-45.585
-45.832
-46.094
-46.372
-46.666
-46.974
-47.296
-47.632
-47.98
-48.339
-48.708
-49.083
-49.465
-49.851
-50.24
-50.628
-51.015
-51.398
-51.775
-52.144
-52.503
-52.849
-53.181
-53.497
-53.794
-54.071
-54.326
-54.556
-54.762
-54.941
-55.09
-55.208
-55.293
-55.342
-55.354
-55.325
-55.253
-55.136
-54.971
-54.754
-54.484
-54.158
-53.772
-53.325
-52.813
-52.235
-51.587
-50.869
-50.078
-49.213
-48.272
-47.255
-46.163
-44.994
-43.75
-42.431
-41.039
-39.576
-38.046
-36.451
-34.796
-33.088
-31.334
-29.543
-27.725
-25.892
-24.056
-22.23
-20.429
-18.666
-16.955
-15.308
-13.739
-12.26
-10.886
-9.632
-8.514
-7.547
-6.744
-6.12
-5.686
-5.451
-5.419
-5.593
-5.974
-6.567
-7.384
-8.436
-9.73
-11.274
-13.07
-15.113
-17.391
-19.88
-22.541
-25.331
-28.209
-31.135
-34.081
-37.011
-39.887
-42.665
-45.283
-47.677
-49.793
-51.574
-52.972
-53.964
-54.56
-54.8
-54.773
-54.558
-54.214
-53.819
-53.45
-53.19
-53.158
-53.473
-54.248
-55.661
-57.949
-61.223
-65.443
-70.415
-75.648
-80.583
-84.738
-87.522
-88.242
-86.616
-82.886
-77.61
-72.013
-67.656
-65.45
-66.123
-70.754
-78.257
-86.556
-94.918
-100.075
-100.177
-95.155
-79.057
-47.935
0.503
70.655
158.694
260.363
373.956
490.512
601.689
698.043
766.258
803.638
814.393
803.327
778.926
742.578
689.557
619.506
532.979
433.479
328.731
223.3
120.042
23.051
-64.73
-140.705
-202.001
-247.954
-279.583
-297.4
-302.55
-297.195
-283.237
-263.484
-241.348
-218.844
-197.232
-177.639
-160.391
-145.718
-134.196
-125.236
-117.528
-110.192
-102.27
-93.282
-83.449
-72.653
-60.475
-47.138
-33.265
-19.605
-7.256
3.184
11.7
18.152
22.394
24.484
24.563
23.015
20.514
17.52
14.237
10.853
7.465
4.19
1.241
-1.26
-3.281
-4.757
-5.648
-5.921
-5.517
-4.445
-2.769
-0.566
2.063
5.018
8.243
11.673
15.246
18.925
22.639
26.319
29.909
33.321
36.485
39.38
41.995
44.294
46.271
47.931
49.283
50.401
51.371
52.196
52.856
53.508
54.347
55.313
56.455
57.847
59.18
61.415
65.482
70.099
74.88
77.446
74.939
70.507
66.249
65.29
71.93
82.354
93.325
102.617
106.559
107.747
108.811
110.32
113.87
118.499
122.982
127.523
131.948
136.316
140.846
145.356
149.69
153.864
157.862
161.644
165.186
168.474
171.488
174.229
176.706
178.887
180.745
182.269
183.444
184.259
184.706
184.775
184.457
183.75
182.654
181.17
179.301
177.052
174.432
171.448
168.114
164.44
160.445
156.143
151.555
146.698
141.593
136.263
130.734
125.034
119.191
113.229
107.17
101.044
94.887
88.719
82.551
76.392
70.253
64.156
58.154
52.273
46.504
40.89
35.512
30.436
25.733
21.421
17.433
13.755
10.483
7.534
4.597
1.615
-1.32
-4.25
-6.834
-9.723
-14.867
-21.816
-28.808
-32.874
-28.475
-16.067
-1.205
10.536
11.251
0.567
-14.101
-27.035
-32.014
-28.078
-20.809
-13.603
-8.825
-7.155
-6.334
-5.372
-4.355
-3.22
-2.326
-1.763
-1.238
-0.671
-0.124
0.404
0.919
1.405
1.843
2.201
2.425
2.499
2.446
2.275
1.986
1.582
1.065
0.44
-0.28
-1.087
-1.978
-2.948
-3.988
-5.091
-6.248
-7.45
-8.687
-9.951
-11.231
-12.519
-13.805
-15.079
-16.331
-17.553
-18.736
-19.871
-20.95
-21.967
-22.914
-23.787
-24.58
-25.29
-25.914
-26.45
-26.898
-27.257
-27.528
-27.713
-27.814
-27.833
-27.774
-27.64
-27.438
-27.172
-26.847
-26.47
-26.048
-25.588
-25.097
-24.582
-24.054
-23.519
-22.986
-22.463
-21.961
-21.487
-21.05
-20.659
-20.321
-20.043
-19.834
-19.698
-19.641
-19.667
-19.779
-19.981
-20.272
-20.656
-21.13
-21.694
-22.347
-23.087
-23.909
-24.81
-25.786
-26.832
-27.942
-29.109
-30.328
-31.591
-32.89
-34.218
-35.566
-36.926
-38.289
-39.644
-40.985
-42.3
-43.581
-44.819
-46.006
-47.132
-48.191
-49.174
-50.077
-50.893
-51.618
-52.248
-52.78
-53.213
-53.544
-53.775
-53.906
-53.937
-53.873
-53.714
-53.465
-53.13
-52.713
-52.219
-51.653
-51.023
-50.333
-49.591
-48.805
-47.982
-47.131
-46.26
-45.376
-44.489
-43.606
-42.736
-41.886
-41.064
-40.278
-39.535
-38.841
-38.204
-37.629
-37.121
-36.685
-36.322
-36.038
-35.832
-35.709
-35.669
-35.713
-35.844
-36.063
-36.374
-36.78
-37.286
-37.894
-38.606
-39.425
-40.354
-41.4
-42.566
-43.854
-45.264
-46.799
-48.461
-50.254
-52.182
-54.241
-56.428
-58.74
-61.174
-63.732
-66.417
-69.22
-72.13
-75.134
-78.223
-81.4
-84.671
-88.03
-91.471
-94.982
-98.555
-102.183
-105.859
-109.552
-113.229
-116.842
-120.339
-123.697
-126.895
-129.928
-132.805
-135.485
-137.913
-140.04
-141.801
-143.175
-144.2
-144.865
-145.126
-145.061
-144.797
-144.642
-145.089
-146.368
-148.461
-151.299
-154.798
-158.92
-163.609
-168.317
-171.954
-173.8
-173.689
-171.838
-168.739
-164.549
-159.291
-153.731
-149.505
-148.055
-150.208
-156.274
-165.962
-179.224
-195.304
-211.406
-224.008
-230.877
-233.482
-235.742
-239.346
-239.593
-224.11
-180.037
-101.664
5.835
127.243
247.122
355.67
449.797
531.862
602.618
659.687
699.066
716.023
708.444
677.482
626.368
558.004
474.714
377.726
266.794
147.349
28.79
-79.447
-166.275
-229.315
-274.311
-306.175
-331.893
-354.009
-368.747
-374.967
-372.265
-361.176
-345.391
-327.279
-307.219
-285.642
-262.791
-239.126
-216.099
-195.223
-177.068
-161.888
-150.157
-142.012
-137.22
-135.124
-134.202
-132.906
-130.511
-126.716
-121.375
-114.634
-106.73
-98.186
-90.074
-83.312
-78.29
-75.109
-73.594
-73.426
-74.403
-76.239
-78.442
-80.649
-82.644
-84.275
-85.55
-86.497
-87.055
-87.18
-86.874
-86.12
-84.943
-83.395
-81.497
-79.288
-76.812
-74.09
-71.162
-68.062
-64.816
-61.453
-58.004
-54.495
-50.979
-47.53
-44.201
-41.027
-38.02
-35.166
-32.447
-29.852
-27.358
-24.937
-22.56
-20.204
-17.85
-15.49
-13.109
-10.687
-8.196
-5.597
-2.861
0.027
3.08
6.299
9.684
13.234
16.939
20.778
24.737
28.8
32.954
37.19
41.495
45.851
50.24
54.639
59.029
63.389
67.698
71.937
76.084
80.121
84.029
87.792
91.395
94.819
98.047
101.061
103.847
106.389
108.673
110.687
112.419
113.861
115.007
115.85
116.389
116.622
116.548
116.17
115.492
114.518
113.256
111.713
109.899
107.824
105.501
102.943
100.164
97.179
94.005
90.657
87.153
83.51
79.748
75.883
71.934
67.92
63.861
59.773
55.677
51.588
47.525
43.504
39.541
35.649
31.843
28.135
24.536
21.056
17.705
14.49
11.419
8.496
5.727
3.115
0.662
-1.63
-3.762
-5.733
-7.546
-9.202
-10.705
-12.057
-13.263
-14.328
-15.257
-16.055
-16.73
-17.288
-17.736
-18.083
-18.335
-18.5
-18.587
-18.603
-18.555
-18.45
-18.295
-18.098
-17.864
-17.599
-17.309
-16.998
-16.673
-16.336
-15.991
-15.642
-15.291
-14.939
-14.59
-14.244
-13.902
-13.566
-13.237
-12.915
-12.601
-12.295
-11.998
-11.71
-11.432
-11.162
-10.902
-10.65
-10.406
-10.169
-9.941
-9.72
-9.507
-9.302
-9.104
-8.914
-8.733
-8.56
-8.397
-8.244
-8.102
-7.972
-7.856
-7.755
-7.671
-7.606
-7.562
-7.542
-7.546
-7.577
-7.635
-7.724
-7.842
-7.991
-8.172
-8.385
-8.629
-8.906
-9.215
-9.555
-9.925
-10.325
-10.753
-11.209
-11.689
-12.193
-12.719
-13.263
-13.826
-14.403
-14.992
-15.592
-16.2
-16.812
-17.426
-18.038
-18.646
-19.246
-19.835
-20.409
-20.966
-21.504
-22.019
-22.51
-22.975
-23.412
-23.821
-24.201
-24.55
-24.87
-25.16
-25.42
-25.651
-25.855
-26.032
-26.185
-26.315
-26.425
-26.516
-26.59
-26.651
-26.699
-26.739
-26.772
-26.801
-26.829
-26.859
-26.894
-26.937
-26.991
-27.058
-27.142
-27.245
-27.368
-27.514
-27.684
-27.878
-28.098
-28.343
-28.614
-28.908
-29.226
-29.566
-29.925
-30.3
-30.69
-31.089
-31.495
-31.902
-32.307
-32.704
-33.089
-33.457
-33.802
-34.12
-34.405
-34.65
-34.85
-34.999
-35.091
-35.119
-35.078
-34.962
-34.765
-34.482
-34.11
-33.643
-33.079
-32.415
-31.648
-30.778
-29.803
-28.725
-27.546
-26.267
-24.893
-23.429
-21.882
-20.259
-18.57
-16.825
-15.035
-13.213
-11.37
-9.521
-7.678
-5.856
-4.067
-2.326
-0.646
0.956
2.465
3.866
5.142
6.276
7.255
8.062
8.687
9.123
9.361
9.397
9.224
8.83
8.207
7.349
6.254
4.92
3.355
1.567
-0.417
-2.561
-4.827
-7.177
-9.575
-11.997
-14.41
-16.782
-19.078
-21.251
-23.255
-25.052
-26.6
-27.864
-28.825
-29.485
-29.891
-30.123
-30.264
-30.386
-30.543
-30.79
-31.202
-31.846
-32.791
-34.115
-35.887
-38.234
-41.345
-45.279
-49.959
-55.189
-60.566
-65.626
-69.976
-73.081
-74.288
-73.309
-70.206
-65.266
-59.38
-53.669
-48.921
-46.046
-45.196
-44.813
-43.247
-39.791
-36.071
-35.321
-38.248
-39.895
-28.336
8.744
76.492
170.462
276.576
380.096
472.644
551.611
618.434
673.518
714.108
736.127
736.016
712.525
666.046
598.408
513.233
414.747
308.069
198.796
91.596
-9.031
-98.771
-174.425
-233.942
-276.755
-304.059
-317.833
-320.187
-313.716
-300.965
-284.264
-265.756
-246.568
-226.924
-206.883
-186.379
-165.477
-144.673
-124.292
-104.58
-86.199
-69.875
-56.138
-45.395
-37.402
-31.273
-26.364
-22.115
-17.958
-13.593
-8.811
-3.465
2.091
7.105
11.052
13.556
14.459
13.941
12.188
9.381
5.894
2.242
-1.14
-3.891
-5.819
-6.931
-7.252
-6.812
-5.671
-3.903
-1.593
1.166
4.292
7.721
11.393
15.249
19.219
23.214
27.13
30.86
34.333
37.518
40.401
42.982
45.263
47.248
48.966
50.458
51.766
52.927
53.972
54.922
55.813
56.689
57.595
58.583
59.69
60.939
62.349
63.936
65.71
67.68
69.844
72.191
74.714
77.406
80.263
83.282
86.454
89.766
93.203
96.75
100.391
104.109
107.887
111.705
115.546
119.389
123.216
127.011
130.753
134.422
137.996
141.453
144.771
147.93
150.907
153.682
156.235
158.546
160.6
162.381
163.874
165.066
165.947
166.506
166.737
166.633
166.191
165.407
164.283
162.82
161.021
158.893
156.442
153.676
150.607
147.245
143.604
139.699
135.545
131.158
126.556
121.757
116.781
111.648
106.378
100.991
95.51
89.956
84.35
78.715
73.07
67.437
61.836
56.287
50.809
45.42
40.137
34.977
29.953
25.08
20.371
15.837
11.488
7.333
3.378
-0.368
-3.902
-7.219
-10.317
-13.194
-15.848
-18.28
-20.492
-22.485
-24.263
-25.829
-27.189
-28.349
-29.314
-30.093
-30.692
-31.121
-31.389
-31.505
-31.48
-31.323
-31.046
-30.658
-30.171
-29.595
-28.94
-28.216
-27.433
-26.601
-25.729
-24.824
-23.895
-22.95
-21.997
-21.041
-20.09
-19.149
-18.225
-17.322
-16.446
-15.6
-14.79
-14.018
-13.288
-12.603
-11.965
-11.377
-10.839
-10.353
-9.919
-9.538
-9.208
-8.93
-8.702
-8.522
-8.389
-8.301
-8.256
-8.251
-8.284
-8.353
-8.456
-8.589
-8.752
-8.942
-9.157
-9.394
-9.652
-9.929
-10.223
-10.532
-10.854
-11.188
-11.532
-11.884
-12.243
-12.606
-12.974
-13.344
-13.714
-14.085
-14.454
-14.821
-15.185
-15.546
-15.903
-16.257
-16.607
-16.954
-17.298
-17.64
-17.98
-18.319
-18.657
-18.994
-19.333
-19.672
-20.012
-20.355
-20.699
-21.046
-21.395
-21.747
-22.103
-22.462
-22.824
-23.19
-23.56
-23.935
-24.314
-24.699
-25.089
-25.485
-25.887
-26.297
-26.715
-27.14
-27.574
-28.016
-28.467
-28.927
-29.396
-29.874
-30.361
-30.856
-31.36
-31.872
-32.391
-32.918
-33.453
-33.995
-34.544
-35.1
-35.662
-36.229
-36.802
-37.379
-37.96
-38.543
-39.127
-39.711
-40.292
-40.869
-41.441
-42.004
-42.556
-43.095
-43.617
-44.12
-44.6
-45.054
-45.478
-45.868
-46.222
-46.535
-46.804
-47.026
-47.198
-47.316
-47.377
-47.378
-47.315
-47.186
-46.987
-46.716
-46.371
-45.951
-45.454
-44.879
-44.227
-43.497
-42.692
-41.812
-40.86
-39.839
-38.752
-37.605
-36.402
-35.148
-33.852
-32.52
-31.162
-29.789
-28.413
-27.047
-25.703
-24.396
-23.14
-21.949
-20.836
-19.811
-18.886
-18.071
-17.377
-16.818
-16.407
-16.153
-16.068
-16.159
-16.435
-16.903
-17.565
-18.417
-19.455
-20.679
-22.09
-23.704
-25.528
-27.568
-29.825
-32.291
-34.958
-37.811
-40.822
-43.947
-47.139
-50.35
-53.539
-56.676
-59.727
-62.649
-65.381
-67.852
-69.991
-71.744
-73.07
-73.944
-74.361
-74.335
-73.915
-73.178
-72.216
-71.142
-70.071
-69.109
-68.368
-67.953
-68.028
-68.831
-70.558
-73.283
-76.88
-81.047
-85.446
-89.75
-93.513
-96.141
-97.117
-96.25
-94.002
-91.298
-89.031
-88.213
-89.865
-94.705
-103.342
-114.738
-125.453
-133.098
-135.762
-132.544
-125.75
-112.197
-85.17
-39.333
33.386
131.35
245.042
366.074
479.712
576.927
654.279
706.1
735.239
743.894
732.416
705.198
661.405
600.954
527.237
442.23
350.339
256.554
163.356
73.093
-11.736
-89.445
-158.352
-216.671
-263.556
-299.038
-323.016
-335.69
-337.85
-330.278
-314.418
-292.489
-266.489
-237.99
-208.582
-179.819
-153.373
-130.863
-112.98
-99.556
-90.12
-84.154
-81.142
-80.284
-80.193
-79.487
-77.469
-73.991
-69.292
-63.739
-57.576
-51.252
-45.639
-41.508
-39.223
-38.827
-40.033
-42.448
-45.779
-49.656
-53.553
-57.017
-59.737
-61.543
-62.442
-62.499
-61.745
-60.236
-58.053
-55.27
-51.972
-48.251
-44.171
-39.802
-35.232
-30.552
-25.865
-21.294
-16.932
-12.842
-9.064
-5.613
-2.491
0.298
2.759
4.92
6.81
8.466
9.922
11.205
12.347
13.39
14.381
15.378
16.422
17.544
18.769
20.114
21.595
23.228
25.019
26.967
29.071
31.332
33.751
36.334
39.079
41.981
45.032
48.223
51.545
54.99
58.547
62.205
65.949
69.768
73.649
77.578
81.541
85.521
89.498
93.452
97.365
101.215
104.981
108.642
112.177
115.567
118.79
121.83
124.668
127.286
129.67
131.804
133.676
135.273
136.586
137.607
138.327
138.743
138.851
138.65
138.14
137.322
136.201
134.781
133.069
131.073
128.802
126.266
123.479
120.453
117.202
113.742
110.088
106.259
102.272
98.146
93.9
89.553
85.126
80.639
76.11
71.559
67.007
62.47
57.968
53.517
49.134
44.835
40.635
36.548
32.585
28.759
25.081
21.558
18.2
15.014
12.005
9.179
6.54
4.09
1.833
-0.232
-2.103
-3.782
-5.271
-6.573
-7.692
-8.633
-9.403
-10.008
-10.456
-10.755
-10.915
-10.944
-10.853
-10.651
-10.348
-9.955
-9.482
-8.94
-8.339
-7.688
-6.997
-6.277
-5.534
-4.779
-4.019
-3.263
-2.517
-1.789
-1.087
-0.417
0.213
0.798
1.331
1.808
2.222
2.571
2.849
3.055
3.185
3.238
3.212
3.107
2.922
2.658
2.314
1.891
1.392
0.817
0.169
-0.551
-1.339
-2.195
-3.116
-4.099
-5.142
-6.244
-7.402
-8.613
-9.875
-11.185
-12.539
-13.935
-15.368
-16.835
-18.332
-19.854
-21.398
-22.96
-24.537
-26.123
-27.716
-29.312
-30.908
-32.499
-34.082
-35.655
-37.214
-38.755
-40.277
-41.777
-43.251
-44.697
-46.111
-47.492
-48.836
-50.139
-51.399
-52.612
-53.776
-54.886
-55.941
-56.939
-57.877
-58.754
-59.568
-60.319
-61.006
-61.628
-62.185
-62.677
-63.104
-63.468
-63.768
-64.007
-64.186
-64.306
-64.368
-64.377
-64.332
-64.237
-64.094
-63.907
-63.677
-63.408
-63.105
-62.771
-62.411
-62.029
-61.629
-61.217
-60.796
-60.372
-59.949
-59.531
-59.121
-58.724
-58.343
-57.981
-57.641
-57.325
-57.036
-56.775
-56.543
-56.341
-56.168
-56.025
-55.91
-55.822
-55.761
-55.724
-55.71
-55.716
-55.74
-55.778
-55.826
-55.882
-55.939
-55.993
-56.04
-56.074
-56.09
-56.084
-56.052
-55.989
-55.892
-55.758
-55.583
-55.363
-55.097
-54.782
-54.418
-54.004
-53.541
-53.031
-52.477
-51.886
-51.263
-50.618
-49.961
-49.303
-48.656
-48.032
-47.439
-46.89
-46.405
-45.991
-45.644
-45.366
-45.156
-45.025
-45.01
-45.121
-45.337
-45.686
-46.235
-47.034
-48.138
-49.548
-51.187
-53.037
-55.189
-57.562
-59.857
-62.003
-64.079
-66.039
-68.187
-69.907
-69.294
-66.712
-63.838
-63.458
-70.862
-85.709
-102.623
-116.253
-118.991
-110.278
-97.216
-85.28
-80.417
-83.719
-89.845
-95.49
-98.486
-98.273
-97.296
-96.996
-97.56
-99.089
-101.294
-104.113
-107.775
-112.304
-117.084
-120.919
-122.995
-122.938
-120.606
-116.256
-110.046
-101.959
-93.153
-86.058
-82.821
-85.188
-93.131
-104.474
-117.848
-133.33
-152.671
-178.176
-208.608
-236.531
-248.69
-231.963
-178.836
-92.294
13.083
123.798
231.926
335.974
443.517
554.468
658.492
743.831
795.532
809.012
792.67
754.621
703.156
641.736
567.387
479.939
381.45
275.927
169.222
65.408
-31.872
-119.208
-194.195
-254.636
-299.72
-330.083
-346.338
-349.413
-341.154
-324.05
-301.352
-276.581
-252.142
-229.299
-208.917
-191.699
-178.204
-168.266
-160.73
-153.844
-146.112
-136.908
-126.243
-114.129
-100.313
-84.851
-68.348
-51.93
-36.953
-24.24
-13.967
-6.1
-0.815
1.573
1.134
-1.6
-5.932
-10.96
-17.008
-25.753
-36.55
-47.467
-55.253
-54.231
-44.869
-32.548
-22.739
-23.209
-34.102
-48.125
-59.724
-62.837
-56.758
-47.082
-37.189
-29.491
-24.677
-20.612
-16.462
-12.421
-8.504
-5.097
-2.293
0.2
2.456
4.423
6.137
7.661
9.037
10.302
11.463
12.499
13.436
14.345
15.288
16.318
17.478
18.791
20.279
21.967
23.871
25.997
28.34
30.89
33.637
36.576
39.702
43.011
46.494
50.137
53.924
57.839
61.866
65.988
70.187
74.442
78.737
83.05
87.364
91.661
95.922
100.124
104.245
108.263
112.154
115.897
119.468
122.845
126.008
128.936
131.613
134.022
136.149
137.979
139.502
140.707
141.588
142.138
142.352
142.23
141.77
140.974
139.847
138.394
136.622
134.539
132.158
129.488
126.543
123.338
119.887
116.207
112.316
108.232
103.973
99.56
95.014
90.355
85.604
80.783
75.913
71.016
66.111
61.219
56.358
51.549
46.807
42.151
37.594
33.152
28.838
24.664
20.64
16.776
13.08
9.559
6.216
3.059
0.093
-2.678
-5.252
-7.629
-9.811
-11.795
-13.578
-15.171
-16.587
-17.836
-18.932
-19.873
-20.648
-21.28
-21.791
-22.156
-22.358
-22.388
-22.224
-21.902
-21.481
-20.944
-20.247
-19.535
-18.975
-18.479
-18.064
-17.767
-17.25
-17.447
-19.265
-21.421
-23.53
-23.231
-17.696
-10.065
-2.43
2.092
-0.776
-7.255
-14.144
-19.248
-18.938
-15.81
-12.494
-9.577
-8.656
-8.799
-8.807
-8.902
-8.93
-8.972
-9.26
-9.629
-9.957
-10.291
-10.641
-11
-11.361
-11.711
-12.067
-12.464
-12.893
-13.314
-13.695
-14.005
-14.267
-14.53
-14.765
-14.914
-15.106
-15.501
-16.002
-16.615
-17.368
-17.913
-19.18
-22.075
-25.301
-28.462
-29.176
-24.589
-17.859
-11.087
-7.408
-11.123
-18.426
-26.089
-31.9
-32.202
-29.608
-26.764
-24.258
-23.702
-24.158
-24.421
-24.719
-24.899
-25.042
-25.391
-25.787
-26.104
-26.384
-26.638
-26.853
-27.034
-27.192
-27.334
-27.485
-27.674
-27.893
-28.13
-28.393
-28.681
-28.995
-29.338
-29.709
-30.104
-30.527
-30.98
-31.464
-31.98
-32.53
-33.112
-33.728
-34.378
-35.061
-35.776
-36.521
-37.294
-38.093
-38.916
-39.758
-40.615
-41.482
-42.355
-43.227
-44.091
-44.941
-45.77
-46.57
-47.335
-48.057
-48.731
-49.35
-49.908
-50.399
-50.818
-51.16
-51.418
-51.588
-51.663
-51.64
-51.513
-51.279
-50.935
-50.478
-49.905
-49.215
-48.409
-47.488
-46.452
-45.303
-44.046
-42.685
-41.226
-39.677
-38.045
-36.341
-34.576
-32.764
-30.921
-29.061
-27.202
-25.359
-23.551
-21.794
-20.105
-18.498
-16.987
-15.587
-14.31
-13.174
-12.192
-11.381
-10.753
-10.321
-10.096
-10.089
-10.305
-10.746
-11.411
-12.299
-13.411
-14.758
-16.35
-18.188
-20.275
-22.607
-25.174
-27.96
-30.94
-34.072
-37.313
-40.617
-43.94
-47.25
-50.513
-53.687
-56.724
-59.559
-62.129
-64.385
-66.273
-67.759
-68.832
-69.495
-69.785
-69.778
-69.528
-69.112
-68.635
-68.176
-67.84
-67.753
-68.008
-68.776
-70.298
-72.711
-76.023
-80.118
-84.666
-89.276
-93.6
-97.138
-99.278
-99.651
-98.258
-95.513
-92.206
-89.453
-88.34
-89.596
-94.089
-101.337
-108.91
-115.501
-119.957
-121.753
-122.898
-120.367
-106.651
-74.78
-16.765
66.812
166.297
272.164
373.827
465.829
548.615
620.389
678.98
721.207
742.25
740.334
715.533
668.22
600.45
515.112
415.682
307.201
195.048
83.737
-22.101
-118.072
-200.61
-266.716
-315.132
-346.789
-363.314
-366.514
-358.773
-342.303
-319.758
-294.433
-268.274
-241.921
-215.994
-190.89
-167.239
-146.421
-128.786
-113.642
-101.002
-91.142
-84.077
-79.907
-77.847
-76.12
-73.88
-71.061
-67.443
-63.047
-57.92
-51.96
-45.759
-40.522
-36.902
-35.092
-35.083
-36.524
-39.138
-42.786
-47.059
-51.328
-55.107
-58.085
-60.13
-61.319
-61.712
-61.306
-60.135
-58.272
-55.801
-52.824
-49.428
-45.668
-41.599
-37.3
-32.863
-28.403
-24.056
-19.914
-16.028
-12.426
-9.114
-6.097
-3.384
-0.962
1.204
3.152
4.921
6.544
8.043
9.453
10.817
12.19
13.628
15.173
16.853
18.688
20.692
22.879
25.258
27.83
30.585
33.514
36.613
39.877
43.306
46.891
50.621
54.48
58.454
62.527
66.685
70.91
75.184
79.487
83.799
88.103
92.378
96.604
100.758
104.815
108.751
112.542
116.163
119.59
122.8
125.771
128.481
130.913
133.049
134.873
136.371
137.532
138.346
138.805
138.902
138.635
138.001
136.999
135.633
133.905
131.823
129.393
126.624
123.53
120.122
116.416
112.429
108.179
103.684
98.967
94.05
88.954
83.705
78.326
72.841
67.276
61.655
56.003
50.343
44.7
39.094
33.549
28.084
22.719
17.471
12.357
7.392
2.591
-2.035
-6.473
-10.714
-14.75
-18.572
-22.175
-25.555
-28.707
-31.63
-34.323
-36.786
-39.022
-41.033
-42.823
-44.399
-45.765
-46.93
-47.9
-48.686
-49.296
-49.74
-50.029
-50.173
-50.183
-50.069
-49.842
-49.513
-49.091
-48.586
-48.008
-47.365
-46.666
-45.918
-45.13
-44.309
-43.46
-42.592
-41.709
-40.818
-39.924
-39.033
-38.148
-37.275
-36.417
-35.578
-34.76
-33.967
-33.2
-32.461
-31.752
-31.073
-30.425
-29.809
-29.224
-28.67
-28.146
-27.652
-27.186
-26.748
-26.337
-25.952
-25.593
-25.257
-24.946
-24.659
-24.394
-24.152
-23.931
-23.732
-23.551
-23.39
-23.245
-23.117
-23.003
-22.901
-22.81
-22.729
-22.654
-22.586
-22.521
-22.458
-22.395
-22.332
-22.266
-22.196
-22.121
-22.04
-21.953
-21.86
-21.759
-21.652
-21.537
-21.416
-21.287
-21.152
-21.009
-20.861
-20.707
-20.548
-20.384
-20.218
-20.05
-19.883
-19.717
-19.555
-19.399
-19.252
-19.115
-18.992
-18.883
-18.794
-18.725
-18.679
-18.66
-18.669
-18.709
-18.782
-18.89
-19.033
-19.213
-19.431
-19.687
-19.981
-20.314
-20.684
-21.091
-21.534
-22.011
-22.52
-23.059
-23.626
-24.217
-24.828
-25.455
-26.095
-26.743
-27.395
-28.046
-28.69
-29.323
-29.939
-30.533
-31.099
-31.63
-32.119
-32.562
-32.954
-33.291
-33.572
-33.789
-33.93
-33.993
-33.977
-33.868
-33.66
-33.343
-32.891
-32.318
-31.659
-30.915
-30.09
-29.221
-28.303
-27.352
-26.435
-25.507
-24.444
-23.222
-21.836
-20.15
-18.095
-15.803
-13.183
-10.312
-7.915
-5.174
-1.067
3.065
7.165
8.176
1.006
-10.83
-23.083
-29.315
-18.864
4.397
30.74
51.641
54.245
39.877
19.936
1.726
-6.076
-2.38
4.194
8.839
10.122
7.545
6.436
10.888
17.36
23.804
26.578
21.064
11.603
1.715
-6.318
-8.621
-7.821
-6.656
-5.738
-6.727
-8.676
-10.329
-11.826
-12.926
-13.723
-14.448
-14.91
-15.028
-14.845
-14.333
-13.579
-12.702
-11.607
-10.244
-8.903
-7.705
-6.676
-6.429
-6.206
-5.089
-4.711
-5.573
-9.879
-21.392
-36.986
-52.633
-63.861
-62.773
-50.518
-33.893
-18.123
-11.619
-16.513
-26.639
-38.977
-50.386
-58.768
-66.716
-72.94
-74.242
-69.743
-59.953
-47.45
-33.544
-14.871
18.939
78.474
170.003
293.391
434.439
574.787
694.637
775.243
813.4
811.606
778.399
727.682
663.64
590.666
511.509
425.224
336.322
245.891
154.79
65.787
-20.636
-100.23
-169.489
-226.953
-270.461
-301.179
-320.774
-329.696
-329.527
-321.381
-305.726
-284.218
-258.816
-230.479
-199.999
-168.389
-136.34
-105.171
-77.022
-52.893
-32.883
-17.488
-7.023
-1.397
-0.523
-3.281
-7.492
-11.885
-15.952
-19.157
-21.339
-22.415
-22.197
-21.22
-20.635
-21.032
-22.557
-25.158
-28.433
-32.097
-36.006
-39.774
-42.868
-44.965
-45.912
-45.718
-44.574
-42.625
-39.963
-36.726
-33.066
-29.134
-25.075
-21.016
-17.055
-13.276
-9.761
-6.576
-3.765
-1.355
0.651
2.27
3.535
4.48
5.147
5.574
5.792
5.848
5.79
5.671
5.549
5.472
5.477
5.597
5.861
6.29
6.899
7.698
8.684
9.859
11.228
12.792
14.557
16.524
18.69
21.048
23.593
26.315
29.208
32.261
35.463
38.801
42.263
45.835
49.506
53.258
57.074
60.934
64.815
68.695
72.553
76.364
80.104
83.751
87.28
90.672
93.905
96.958
99.814
102.453
104.859
107.017
108.912
110.533
111.868
112.908
113.648
114.081
114.205
114.018
113.522
112.718
111.612
110.208
108.514
106.539
104.294
101.791
99.042
96.064
92.871
89.481
85.912
82.183
78.311
74.318
70.222
66.042
61.797
57.507
53.19
48.863
44.544
40.25
35.998
31.802
27.677
23.636
19.692
15.856
12.138
8.547
5.091
1.778
-1.388
-4.399
-7.254
-9.947
-12.477
-14.844
-17.045
-19.083
-20.96
-22.677
-24.238
-25.648
-26.91
-28.03
-29.013
-29.865
-30.59
-31.196
-31.688
-32.073
-32.357
-32.547
-32.648
-32.668
-32.612
-32.486
-32.295
-32.045
-31.74
-31.386
-30.987
-30.548
-30.072
-29.565
-29.03
-28.471
-27.892
-27.296
-26.685
-26.063
-25.432
-24.793
-24.15
-23.503
-22.854
-22.206
-21.559
-20.916
-20.278
-19.646
-19.023
-18.409
-17.806
-17.215
-16.637
-16.073
-15.526
-14.997
-14.487
-13.998
-13.532
-13.089
-12.672
-12.281
-11.918
-11.584
-11.279
-11.004
-10.76
-10.547
-10.368
-10.221
-10.108
-10.03
-9.987
-9.979
-10.007
-10.07
-10.169
-10.302
-10.471
-10.673
-10.909
-11.179
-11.48
-11.814
-12.178
-12.573
-12.996
-13.446
-13.922
-14.423
-14.948
-15.494
-16.06
-16.647
-17.251
-17.872
-18.51
-19.163
-19.83
-20.51
-21.201
-21.902
-22.612
-23.331
-24.056
-24.787
-25.524
-26.264
-27.008
-27.755
-28.504
-29.254
-30.004
-30.753
-31.5
-32.243
-32.983
-33.717
-34.446
-35.167
-35.879
-36.583
-37.275
-37.956
-38.621
-39.271
-39.902
-40.513
-41.101
-41.664
-42.199
-42.704
-43.178
-43.616
-44.017
-44.377
-44.695
-44.965
-45.186
-45.354
-45.464
-45.515
-45.502
-45.424
-45.277
-45.059
-44.767
-44.399
-43.953
-43.427
-42.82
-42.13
-41.356
-40.499
-39.557
-38.533
-37.428
-36.245
-34.986
-33.655
-32.255
-30.792
-29.269
-27.693
-26.071
-24.408
-22.715
-20.999
-19.271
-17.543
-15.827
-14.136
-12.484
-10.884
-9.355
-7.914
-6.579
-5.367
-4.291
-3.366
-2.605
-2.022
-1.631
-1.441
-1.459
-1.692
-2.148
-2.838
-3.77
-4.948
-6.366
-8.008
-9.863
-11.925
-14.193
-16.673
-19.36
-22.248
-25.33
-28.603
-32.065
-35.707
-39.498
-43.382
-47.294
-51.185
-55.027
-58.821
-62.562
-66.213
-69.692
-72.899
-75.753
-78.215
-80.282
-81.901
-82.97
-83.46
-83.484
-83.353
-83.427
-83.885
-84.647
-85.569
-86.668
-87.999
-89.515
-90.785
-91.155
-90.255
-88.16
-85.318
-82.015
-78.288
-74.159
-70.112
-67.016
-65.654
-66.576
-69.679
-74.863
-82.352
-92.183
-103.924
-116.624
-128.703
-138.056
-142.921
-141.285
-130.754
-109.388
-75.415
-27.55
34.102
108.181
192.624
284.1
378.479
471.544
558.174
633.011
691.591
730.144
746.066
738.537
707.568
654.077
580.801
491.532
390.74
283.799
175.784
70.972
-26.249
-112.283
-184.805
-242.129
-283.881
-311.163
-325.566
-328.99
-324.013
-312.863
-297.52
-280.314
-262.948
-246.419
-231.239
-217.399
-204.602
-192.906
-182.398
-172.537
-162.682
-152.197
-140.838
-128.872
-116.605
-104.064
-91.127
-78.072
-65.554
-54.458
-45.387
-38.438
-33.55
-30.685
-29.937
-31.278
-34.385
-38.665
-43.558
-48.75
-54.069
-59.393
-64.524
-69.17
-73.104
-76.239
-78.563
-80.079
-80.779
-80.624
-79.604
-77.789
-75.289
-72.229
-68.735
-64.886
-60.746
-56.402
-51.954
-47.53
-43.259
-39.22
-35.454
-31.992
-28.853
-26.051
-23.594
-21.451
-19.574
-17.916
-16.433
-15.099
-13.89
-12.771
-11.7
-10.628
-9.504
-8.292
-6.971
-5.518
-3.914
-2.148
-0.208
1.902
4.173
6.6
9.178
11.908
14.789
17.816
20.979
24.27
27.677
31.19
34.798
38.488
42.244
46.052
49.899
53.769
57.649
61.522
65.371
69.176
72.918
76.577
80.134
83.57
86.864
89.998
92.954
95.714
98.263
100.586
102.667
104.493
106.052
107.332
108.325
109.022
109.416
109.503
109.279
108.744
107.896
106.74
105.277
103.516
101.463
99.128
96.523
93.66
90.554
87.22
83.677
79.941
76.031
71.968
67.771
63.461
59.06
54.59
50.07
45.524
40.971
36.433
31.931
27.483
23.11
18.829
14.658
10.615
6.714
2.97
-0.604
-3.996
-7.197
-10.196
-12.987
-15.564
-17.923
-20.06
-21.976
-23.67
-25.145
-26.404
-27.452
-28.294
-28.939
-29.395
-29.671
-29.777
-29.724
-29.524
-29.189
-28.732
-28.164
-27.5
-26.753
-25.934
-25.059
-24.138
-23.185
-22.211
-21.228
-20.247
-19.278
-18.331
-17.414
-16.535
-15.701
-14.919
-14.195
-13.532
-12.934
-12.405
-11.945
-11.555
-11.236
-10.986
-10.804
-10.686
-10.63
-10.631
-10.685
-10.787
-10.931
-11.113
-11.326
-11.564
-11.821
-12.091
-12.367
-12.645
-12.918
-13.18
-13.427
-13.653
-13.855
-14.029
-14.17
-14.277
-14.347
-14.377
-14.366
-14.312
-14.215
-14.075
-13.891
-13.666
-13.4
-13.095
-12.753
-12.379
-11.974
-11.544
-11.091
-10.621
-10.137
-9.645
-9.149
-8.655
-8.167
-7.69
-7.23
-6.792
-6.379
-5.997
-5.65
-5.341
-5.074
-4.852
-4.677
-4.552
-4.48
-4.461
-4.497
-4.589
-4.738
-4.944
-5.207
-5.526
-5.901
-6.329
-6.81
-7.341
-7.919
-8.542
-9.206
-9.908
-10.644
-11.41
-12.202
-13.014
-13.843
-14.683
-15.528
-16.375
-17.217
-18.049
-18.867
-19.665
-20.438
-21.181
-21.89
-22.561
-23.188
-23.768
-24.294
-24.766
-25.181
-25.536
-25.829
-26.057
-26.212
-26.299
-26.318
-26.259
-26.112
-25.87
-25.52
-25.073
-24.545
-23.923
-23.192
-22.389
-21.542
-20.673
-19.817
-18.949
-18.018
-17.057
-16.124
-15.08
-13.76
-12.271
-10.606
-8.74
-7.042
-4.537
-0.276
4.371
8.984
11.053
7.573
1.854
-3.905
-6.421
-1.186
7.788
17.1
24.411
25.869
24.206
22.192
20.435
20.621
21.757
22.568
23.284
23.733
23.989
24.303
24.497
24.431
24.145
23.646
22.921
21.979
20.834
19.492
17.969
16.286
14.428
12.38
10.15
7.747
5.184
2.488
-0.304
-3.153
-6.013
-8.838
-11.599
-14.261
-16.786
-19.13
-21.23
-23.027
-24.469
-25.509
-26.114
-26.281
-26.019
-25.377
-24.436
-23.266
-21.958
-20.629
-19.374
-18.314
-17.569
-17.23
-17.475
-18.548
-20.6
-23.665
-27.611
-32.096
-36.769
-41.301
-45.188
-47.826
-48.799
-48.029
-45.949
-43.364
-41.238
-40.569
-42.236
-47.13
-54.637
-62.379
-68.129
-69.99
-69.108
-68.909
-68.642
-63.331
-42.521
6.742
87.941
196.4
319.984
440.308
546.805
634.078
699.496
747.623
779.335
793.244
790.034
766.395
720.646
654.482
569.628
470.595
363.207
252.404
142.669
38.065
-57.654
-141.219
-209.891
-262.087
-298.282
-319.877
-328.325
-325.447
-313.023
-293.132
-268.647
-242.065
-214.609
-187.211
-160.806
-136.576
-116.406
-101.357
-91.174
-85.418
-83.86
-86.089
-91.568
-98.944
-105.757
-110.303
-111.942
-110.385
-105.736
-98.243
-88.11
-76.203
-64.138
-53.039
-43.473
-35.697
-29.508
-24.715
-21.288
-18.968
-17.299
-16.025
-15.027
-14.297
-14.008
-14.255
-15.015
-16.255
-17.885
-19.769
-21.769
-23.762
-25.642
-27.344
-28.823
-30.031
-30.937
-31.511
-31.726
-31.564
-30.998
-30.011
-28.606
-26.833
-24.778
-22.543
-20.239
-17.939
-15.691
-13.524
-11.454
-9.489
-7.621
-5.837
-4.111
-2.428
-0.781
0.838
2.438
4.044
5.694
7.429
9.296
11.329
13.547
15.963
18.584
21.404
24.414
27.595
30.922
34.374
37.935
41.588
45.317
49.105
52.93
56.767
60.593
64.384
68.115
71.763
75.307
78.723
81.992
85.095
88.017
90.741
93.249
95.525
97.551
99.314
100.8
101.997
102.895
103.485
103.762
103.722
103.364
102.69
101.701
100.403
98.803
96.908
94.728
92.274
89.559
86.595
83.398
79.982
76.364
72.561
68.592
64.476
60.232
55.879
51.44
46.933
42.378
37.798
33.21
28.635
24.092
19.599
15.174
10.834
6.594
2.469
-1.527
-5.383
-9.089
-12.635
-16.014
-19.219
-22.245
-25.091
-27.752
-30.228
-32.52
-34.628
-36.554
-38.303
-39.877
-41.283
-42.525
-43.611
-44.547
-45.341
-46.002
-46.538
-46.959
-47.274
-47.491
-47.622
-47.674
-47.658
-47.584
-47.458
-47.292
-47.092
-46.867
-46.624
-46.37
-46.11
-45.851
-45.596
-45.35
-45.116
-44.896
-44.693
-44.507
-44.339
-44.191
-44.062
-43.952
-43.859
-43.783
-43.723
-43.676
-43.641
-43.615
-43.596
-43.581
-43.568
-43.555
-43.539
-43.518
-43.489
-43.451
-43.401
-43.337
-43.258
-43.162
-43.049
-42.916
-42.765
-42.594
-42.405
-42.198
-41.975
-41.737
-41.487
-41.226
-40.957
-40.683
-40.406
-40.129
-39.854
-39.585
-39.325
-39.077
-38.843
-38.628
-38.433
-38.262
-38.116
-37.998
-37.91
-37.853
-37.83
-37.841
-37.888
-37.972
-38.093
-38.253
-38.451
-38.688
-38.962
-39.273
-39.617
-39.995
-40.406
-40.849
-41.322
-41.822
-42.344
-42.888
-43.457
-44.038
-44.621
-45.198
-45.754
-46.297
-46.839
-47.366
-47.859
-48.351
-48.865
-49.418
-50.041
-50.706
-51.359
-52.029
-52.766
-53.434
-53.871
-54.173
-54.332
-54.316
-54.471
-53.867
-51.601
-48.966
-46.354
-46.144
-51.179
-58.314
-65.452
-69.472
-66.084
-59.086
-51.697
-46.125
-46.014
-48.761
-51.728
-54.33
-54.96
-54.551
-54.307
-54
-53.783
-53.577
-53.138
-52.628
-52.172
-51.729
-51.289
-50.866
-50.458
-50.052
-49.643
-49.207
-48.715
-48.178
-47.605
-46.992
-46.339
-45.645
-44.908
-44.13
-43.316
-42.463
-41.571
-40.641
-39.673
-38.669
-37.634
-36.57
-35.484
-34.382
-33.271
-32.159
-31.055
-29.967
-28.906
-27.88
-26.897
-25.963
-25.088
-24.278
-23.545
-22.898
-22.348
-21.903
-21.572
-21.361
-21.277
-21.326
-21.507
-21.819
-22.263
-22.843
-23.572
-24.461
-25.518
-26.745
-28.143
-29.703
-31.415
-33.257
-35.193
-37.185
-39.193
-41.18
-43.118
-44.976
-46.715
-48.289
-49.639
-50.706
-51.45
-51.836
-51.841
-51.477
-50.768
-49.773
-48.587
-47.294
-45.988
-44.786
-43.806
-43.177
-43.024
-43.451
-44.606
-46.703
-49.866
-54.088
-59.177
-64.748
-70.45
-75.978
-80.884
-84.617
-86.757
-87.191
-86.4
-85.22
-84.236
-84.028
-85.281
-88.47
-94.014
-100.828
-105.499
-105.875
-100.93
-90.891
-78.893
-62.58
-34.886
10.03
78.872
169.697
271.272
373.724
466.62
543.418
604.418
648.611
674.576
681.494
667.22
631.085
574.542
500.478
412.8
315.994
214.926
113.516
15.271
-75.75
-156.235
-223.795
-276.543
-314.3
-338.291
-349.561
-349.704
-341.384
-327.181
-309.836
-292.129
-275.41
-260.073
-246.474
-234.462
-223.421
-212.719
-201.347
-188.202
-173.036
-156.137
-137.946
-119.154
-100.407
-82.273
-65.505
-50.861
-38.749
-29.285
-22.379
-17.765
-15.208
-14.524
-15.456
-17.702
-20.975
-24.999
-29.535
-34.41
-39.457
-44.462
-49.198
-53.444
-57.003
-59.758
-61.664
-62.697
-62.863
-62.185
-60.71
-58.517
-55.708
-52.385
-48.645
-44.566
-40.218
-35.693
-31.102
-26.559
-22.176
-18.027
-14.146
-10.56
-7.279
-4.301
-1.612
0.82
3.044
5.098
7.016
8.827
10.555
12.233
13.903
15.608
17.396
19.298
21.335
23.524
25.877
28.398
31.088
33.937
36.93
40.057
43.308
46.676
50.155
53.735
57.403
61.145
64.946
68.793
72.669
76.56
80.449
84.322
88.161
91.953
95.685
99.34
102.902
106.355
109.68
112.86
115.877
118.716
121.358
123.79
125.997
127.967
129.688
131.153
132.35
133.275
133.92
134.282
134.357
134.142
133.636
132.841
131.757
130.388
128.736
126.809
124.613
122.155
119.446
116.494
113.311
109.908
106.3
102.497
98.516
94.371
90.077
85.65
81.107
76.464
71.739
66.948
62.106
57.231
52.336
47.436
42.546
37.68
32.851
28.071
23.354
18.711
14.155
9.697
5.347
1.112
-3
-6.981
-10.824
-14.518
-18.062
-21.457
-24.688
-27.743
-30.614
-33.289
-35.776
-38.09
-40.219
-42.149
-43.916
-45.547
-47.065
-48.504
-49.841
-51.029
-52.099
-53.107
-53.922
-54.388
-54.606
-54.571
-54.259
-54.023
-52.936
-50.099
-46.813
-43.478
-42.481
-46.676
-52.92
-59.119
-62.153
-57.734
-49.672
-41.196
-34.522
-33.306
-34.949
-36.815
-38.324
-37.872
-36.401
-35.121
-33.811
-32.631
-31.507
-30.203
-28.883
-27.683
-26.566
-25.529
-24.591
-23.754
-23.012
-22.364
-21.789
-21.261
-20.792
-20.396
-20.066
-19.803
-19.606
-19.47
-19.397
-19.385
-19.431
-19.528
-19.671
-19.857
-20.079
-20.333
-20.614
-20.916
-21.234
-21.563
-21.898
-22.232
-22.561
-22.879
-23.18
-23.459
-23.711
-23.931
-24.113
-24.255
-24.351
-24.399
-24.396
-24.34
-24.228
-24.06
-23.834
-23.55
-23.209
-22.812
-22.359
-21.853
-21.297
-20.694
-20.047
-19.36
-18.637
-17.884
-17.104
-16.301
-15.482
-14.65
-13.809
-12.966
-12.125
-11.29
-10.468
-9.662
-8.877
-8.119
-7.391
-6.698
-6.042
-5.428
-4.858
-4.334
-3.859
-3.433
-3.06
-2.738
-2.469
-2.253
-2.089
-1.976
-1.912
-1.896
-1.924
-1.992
-2.099
-2.238
-2.407
-2.6
-2.814
-3.043
-3.283
-3.53
-3.777
-4.019
-4.252
-4.471
-4.669
-4.841
-4.984
-5.091
-5.159
-5.184
-5.162
-5.091
-4.966
-4.786
-4.548
-4.252
-3.894
-3.476
-2.996
-2.456
-1.856
-1.2
-0.49
0.268
1.067
1.899
2.756
3.628
4.505
5.376
6.231
7.06
7.854
8.606
9.306
9.946
10.513
10.997
11.385
11.669
11.839
11.886
11.802
11.581
11.224
10.731
10.101
9.326
8.389
7.274
5.974
4.482
2.801
0.94
-1.088
-3.257
-5.522
-7.84
-10.164
-12.456
-14.688
-16.832
-18.848
-20.685
-22.278
-23.563
-24.498
-25.047
-25.192
-24.947
-24.341
-23.448
-22.378
-21.227
-20.108
-19.141
-18.436
-18.125
-18.347
-19.22
-20.911
-23.646
-27.525
-32.497
-38.349
-44.618
-50.842
-56.66
-61.592
-65.035
-66.634
-66.445
-64.995
-63.371
-62.588
-63.104
-65.227
-69.379
-75.497
-82.693
-89.199
-92.169
-88.57
-76.381
-53.988
-19.489
28.306
89.403
162.613
244.758
331.591
419.57
504.927
582.711
648.184
697.137
725.994
733.469
719.745
684.761
629.543
556.961
470.529
374.651
274.339
173.345
74.916
-17.254
-100.316
-172.114
-230.724
-275.641
-307.046
-325.745
-334.241
-333.502
-323.331
-302.982
-269.429
-225.116
-177.896
-135.621
-108.261
-98.173
-98.357
-102.599
-103.534
-98.439
-91.703
-85.465
-80.843
-77.604
-72.748
-65.188
-55.586
-44.723
-33.977
-24.511
-16.717
-11.001
-7.712
-6.768
-7.899
-10.7
-14.605
-19.039
-23.655
-28.197
-32.426
-36.2
-39.362
-41.796
-43.491
-44.484
-44.801
-44.449
-43.431
-41.764
-39.512
-36.772
-33.644
-30.212
-26.536
-22.676
-18.716
-14.756
-10.91
-7.256
-3.835
-0.672
2.222
4.835
7.164
9.231
11.078
12.747
14.277
15.698
17.031
18.304
19.553
20.818
22.145
23.565
25.1
26.766
28.579
30.547
32.679
34.971
37.413
39.996
42.715
45.566
48.547
51.651
54.867
58.186
61.596
65.084
68.637
72.243
75.885
79.548
83.217
86.876
90.511
94.105
97.642
101.102
104.467
107.719
110.839
113.81
116.614
119.234
121.656
123.866
125.85
127.597
129.096
130.338
131.315
132.02
132.448
132.595
132.457
132.036
131.329
130.34
129.07
127.525
125.711
123.635
121.306
118.736
115.936
112.919
109.7
106.294
102.717
98.986
95.118
91.131
87.043
82.873
78.639
74.359
70.05
65.732
61.42
57.132
52.882
48.687
44.56
40.515
36.565
32.722
28.996
25.399
21.939
18.625
15.464
12.463
9.626
6.959
4.462
2.14
-0.009
-1.984
-3.787
-5.42
-6.887
-8.191
-9.337
-10.332
-11.18
-11.89
-12.468
-12.922
-13.26
-13.49
-13.621
-13.659
-13.615
-13.495
-13.307
-13.06
-12.76
-12.416
-12.034
-11.621
-11.185
-10.732
-10.268
-9.799
-9.332
-8.87
-8.42
-7.986
-7.571
-7.181
-6.818
-6.486
-6.187
-5.924
-5.698
-5.513
-5.368
-5.265
-5.205
-5.188
-5.214
-5.284
-5.397
-5.554
-5.754
-5.997
-6.282
-6.61
-6.98
-7.39
-7.841
-8.332
-8.861
-9.427
-10.029
-10.666
-11.335
-12.035
-12.764
-13.52
-14.3
-15.102
-15.923
-16.76
-17.611
-18.472
-19.342
-20.216
-21.093
-21.968
-22.841
-23.707
-24.563
-25.409
-26.239
-27.053
-27.848
-28.621
-29.371
-30.095
-30.792
-31.46
-32.098
-32.704
-33.279
-33.82
-34.329
-34.805
-35.248
-35.661
-36.043
-36.397
-36.724
-37.027
-37.308
-37.569
-37.814
-38.046
-38.267
-38.481
-38.692
-38.903
-39.118
-39.34
-39.574
-39.821
-40.087
-40.373
-40.683
-41.018
-41.382
-41.776
-42.202
-42.662
-43.155
-43.682
-44.244
-44.839
-45.466
-46.123
-46.808
-47.518
-48.25
-48.999
-49.763
-50.536
-51.315
-52.093
-52.865
-53.626
-54.37
-55.089
-55.776
-56.424
-57.025
-57.573
-58.06
-58.478
-58.82
-59.08
-59.251
-59.327
-59.301
-59.169
-58.926
-58.566
-58.086
-57.485
-56.76
-55.91
-54.936
-53.839
-52.621
-51.287
-49.839
-48.282
-46.621
-44.862
-43.013
-41.081
-39.074
-37.003
-34.88
-32.719
-30.536
-28.346
-26.168
-24.019
-21.918
-19.883
-17.932
-16.078
-14.337
-12.724
-11.253
-9.943
-8.809
-7.867
-7.129
-6.605
-6.305
-6.237
-6.403
-6.801
-7.431
-8.29
-9.376
-10.713
-12.32
-14.205
-16.377
-18.823
-21.515
-24.452
-27.618
-30.931
-34.317
-37.704
-41.016
-44.246
-47.401
-50.401
-53.129
-55.644
-58.041
-60.171
-62.008
-63.554
-64.456
-65.664
-68.139
-70.663
-72.947
-72.722
-67.249
-59.813
-52.659
-49.029
-53.394
-62.181
-72.298
-81.572
-86.231
-88.527
-90.71
-93.07
-96.768
-100.275
-101.988
-102
-100.519
-98.587
-97.482
-97.69
-99.631
-104.189
-111.679
-121.534
-132.529
-141.229
-143.629
-137.953
-121.792
-94.202
-56.596
-7.328
53.935
127.472
217.553
324.623
444.428
567.629
675.615
749.254
778.949
764.615
717.719
655.567
587.986
518.821
446.884
366.959
279.147
187.053
94.543
6.995
-72.298
-142.548
-202.555
-251.372
-289.076
-315.51
-330.822
-336.255
-332.932
-321.71
-304.497
-283.564
-260.533
-237.115
-214.582
-193.329
-174.025
-157.569
-143.837
-132.135
-121.806
-111.876
-101.839
-91.85
-81.725
-71.041
-59.928
-48.816
-38.327
-29.439
-22.634
-17.875
-15.281
-14.958
-16.774
-20.521
-25.704
-31.525
-37.504
-43.407
-48.798
-53.322
-56.915
-59.393
-60.688
-61.221
-60.143
-56.625
-52.002
-46.692
-43.092
-44.114
-46.836
-49.329
-48.61
-40.558
-28.98
-17.14
-7.355
-3.269
-2.274
-1.878
-1.809
-0.54
1.132
2.024
2.734
2.538
-0.302
-5.051
-10.119
-12.722
-7.452
5.31
20.294
32.222
33.587
24.087
10.86
-0.585
-4.298
0.625
8.876
17.231
23.454
26.925
29.8
33.013
36.485
40.268
44.031
47.706
51.556
55.636
59.915
64.409
69.134
74.09
79.216
84.409
89.62
94.861
99.993
104.837
109.459
113.822
117.867
121.913
125.022
126.279
126.935
127.355
129.863
137.25
146.392
155.204
160.589
158.301
152.079
145.095
139.524
138.96
140.836
142.548
143.525
142.188
139.469
136.569
133.279
129.766
125.971
121.676
117.06
112.272
107.297
102.15
96.872
91.487
86.013
80.47
74.863
69.192
63.492
57.8
52.137
46.528
40.994
35.554
30.234
25.054
20.032
15.181
10.516
6.049
1.793
-2.243
-6.051
-9.624
-12.958
-16.049
-18.895
-21.497
-23.855
-25.973
-27.853
-29.5
-30.921
-32.122
-33.11
-33.895
-34.486
-34.892
-35.123
-35.191
-35.106
-34.88
-34.524
-34.049
-33.468
-32.79
-32.028
-31.193
-30.293
-29.341
-28.344
-27.313
-26.256
-25.181
-24.097
-23.01
-21.927
-20.855
-19.8
-18.766
-17.759
-16.784
-15.843
-14.942
-14.082
-13.268
-12.502
-11.786
-11.122
-10.511
-9.956
-9.458
-9.017
-8.634
-8.31
-8.045
-7.84
-7.695
-7.61
-7.584
-7.618
-7.71
-7.862
-8.07
-8.336
-8.657
-9.033
-9.461
-9.94
-10.469
-11.045
-11.665
-12.328
-13.031
-13.771
-14.544
-15.348
-16.179
-17.034
-17.911
-18.804
-19.711
-20.629
-21.553
-22.481
-23.408
-24.331
-25.247
-26.152
-27.043
-27.917
-28.771
-29.602
-30.409
-31.189
-31.941
-32.663
-33.355
-34.015
-34.644
-35.242
-35.809
-36.347
-36.856
-37.339
-37.797
-38.234
-38.65
-39.05
-39.435
-39.809
-40.174
-40.533
-40.889
-41.244
-41.603
-41.967
-42.339
-42.722
-43.118
-43.529
-43.957
-44.404
-44.869
-45.354
-45.859
-46.384
-46.927
-47.487
-48.062
-48.65
-49.249
-49.854
-50.462
-51.068
-51.668
-52.255
-52.823
-53.366
-53.878
-54.352
-54.782
-55.16
-55.481
-55.738
-55.924
-56.033
-56.06
-55.998
-55.842
-55.587
-55.227
-54.76
-54.182
-53.49
-52.684
-51.761
-50.722
-49.568
-48.301
-46.923
-45.438
-43.85
-42.165
-40.39
-38.532
-36.601
-34.607
-32.561
-30.479
-28.375
-26.265
-24.166
-22.095
-20.07
-18.11
-16.232
-14.451
-12.781
-11.238
-9.836
-8.592
-7.522
-6.64
-5.959
-5.492
-5.249
-5.24
-5.471
-5.942
-6.652
-7.6
-8.79
-10.236
-11.946
-13.924
-16.171
-18.683
-21.447
-24.446
-27.649
-31.01
-34.479
-38.007
-41.547
-45.064
-48.517
-51.86
-55.03
-57.956
-60.568
-62.809
-64.634
-66.007
-66.925
-67.406
-67.51
-67.331
-66.954
-66.477
-66.003
-65.638
-65.508
-65.732
-66.424
-67.743
-69.912
-73.071
-77.216
-82.16
-87.511
-92.867
-97.896
-102.137
-104.939
-105.846
-104.87
-102.538
-99.844
-97.684
-96.541
-97
-99.932
-105.757
-113.042
-118.665
-119.085
-111.501
-97.15
-79.011
-57.452
-30.466
9.54
71.916
161.935
279.225
412.967
545.403
656.084
728.315
758.305
752.679
725.208
689.32
649.35
602.659
544.1
470.82
384.858
291.488
196.172
102.109
11.672
-72.424
-147.994
-212.678
-264.763
-304.286
-331.271
-345.524
-347.538
-338.433
-320.08
-295.261
-266.514
-235.215
-202.792
-170.883
-141.256
-115.999
-96.171
-81.487
-71.424
-65.785
-64.189
-66.086
-70.257
-74.537
-77.542
-78.954
-78.741
-77.093
-74.22
-70.187
-65.572
-61.604
-59.025
-58.029
-58.553
-60.142
-62.421
-65.241
-68.262
-70.974
-73.047
-74.256
-74.525
-73.998
-72.774
-70.897
-68.461
-65.544
-62.229
-58.641
-54.889
-51.069
-47.291
-43.625
-40.121
-36.833
-33.794
-31.036
-28.579
-26.405
-24.491
-22.82
-21.371
-20.136
-19.098
-18.212
-17.427
-16.692
-15.948
-15.155
-14.282
-13.291
-12.158
-10.861
-9.385
-7.726
-5.885
-3.857
-1.636
0.784
3.411
6.24
9.268
12.489
15.894
19.473
23.218
27.115
31.149
35.309
39.58
43.948
48.4
52.916
57.476
62.061
66.647
71.211
75.729
80.177
84.531
88.767
92.862
96.793
100.541
104.083
107.402
110.48
113.299
115.844
118.103
120.062
121.711
123.041
124.044
124.716
125.053
125.051
124.713
124.038
123.032
121.699
120.046
118.083
115.821
113.272
110.449
107.369
104.046
100.5
96.748
92.81
88.705
84.453
80.074
75.589
71.018
66.38
61.696
56.984
52.263
47.549
42.861
38.214
33.624
29.104
24.67
20.333
16.105
11.998
8.021
4.183
0.491
-3.048
-6.43
-9.649
-12.704
-15.596
-18.32
-20.878
-23.268
-25.493
-27.557
-29.465
-31.219
-32.818
-34.276
-35.607
-36.822
-37.938
-38.95
-39.849
-40.653
-41.383
-42.011
-42.518
-42.889
-43.098
-43.176
-43.178
-43.081
-42.838
-42.585
-42.485
-42.445
-42.479
-42.618
-42.527
-43.12
-45.285
-47.757
-50.154
-50.149
-44.958
-37.666
-30.328
-26.004
-28.897
-35.291
-42.033
-46.966
-46.522
-43.252
-39.742
-36.57
-35.312
-35.054
-34.621
-34.24
-33.76
-33.262
-32.986
-32.778
-32.514
-32.235
-31.953
-31.655
-31.344
-31.03
-30.72
-30.438
-30.21
-30.027
-29.879
-29.77
-29.699
-29.667
-29.675
-29.719
-29.796
-29.907
-30.051
-30.227
-30.434
-30.669
-30.93
-31.214
-31.517
-31.838
-32.173
-32.519
-32.871
-33.228
-33.586
-33.941
-34.292
-34.636
-34.969
-35.291
-35.598
-35.89
-36.166
-36.424
-36.664
-36.885
-37.089
-37.275
-37.445
-37.599
-37.74
-37.869
-37.987
-38.098
-38.204
-38.307
-38.41
-38.516
-38.628
-38.75
-38.884
-39.034
-39.202
-39.392
-39.605
-39.845
-40.113
-40.411
-40.738
-41.097
-41.486
-41.904
-42.352
-42.826
-43.324
-43.843
-44.379
-44.929
-45.488
-46.051
-46.612
-47.165
-47.705
-48.225
-48.718
-49.177
-49.594
-49.962
-50.273
-50.52
-50.697
-50.795
-50.808
-50.729
-50.552
-50.272
-49.884
-49.381
-48.762
-48.022
-47.16
-46.177
-45.07
-43.843
-42.498
-41.039
-39.471
-37.8
-36.034
-34.181
-32.249
-30.25
-28.193
-26.092
-23.959
-21.809
-19.66
-17.528
-15.433
-13.394
-11.43
-9.561
-7.807
-6.185
-4.711
-3.4
-2.267
-1.327
-0.596
-0.087
0.187
0.217
-0.006
-0.487
-1.229
-2.231
-3.485
-4.981
-6.713
-8.675
-10.874
-13.31
-15.98
-18.878
-21.993
-25.306
-28.8
-32.444
-36.196
-40.013
-43.852
-47.672
-51.445
-55.134
-58.694
-62.069
-65.19
-67.989
-70.41
-72.402
-73.936
-75.004
-75.61
-75.779
-75.552
-74.98
-74.134
-73.094
-71.939
-70.753
-69.618
-68.68
-68.175
-68.282
-69.047
-70.378
-71.986
-73.53
-74.685
-75.008
-73.93
-71.077
-66.502
-60.7
-54.557
-49.244
-46.022
-46.121
-50.728
-59.459
-69.923
-79.295
-85.363
-89.157
-93.693
-99.924
-103.773
-92.994
-53.741
23.496
139.328
278.786
420.518
542.819
628.407
674.826
688.863
681.583
663.706
638.171
602.134
550.565
481.401
397.143
302.92
205.312
108.647
15.243
-72.338
-151.848
-221.278
-278.516
-322.472
-353.142
-370.399
-374.461
-366.412
-347.907
-321.245
-289.315
-254.758
-219.737
-186.386
-156.471
-131.271
-111.449
-96.844
-86.545
-79.38
-74.183
-69.7
-64.99
-59.315
-52.239
-43.848
-34.613
-25.22
-16.472
-9.222
-4
-1.117
-0.681
-2.465
-6.119
-11.186
-17.073
-23.148
-28.925
-34.048
-38.287
-41.567
-43.838
-45.074
-45.313
-44.626
-43.088
-40.785
-37.797
-34.203
-30.1
-25.615
-20.887
-16.061
-11.283
-6.667
-2.294
1.785
5.538
8.952
12.023
14.766
17.21
19.391
21.35
23.123
24.749
26.275
27.754
29.248
30.819
32.513
34.363
36.394
38.621
41.057
43.709
46.577
49.651
52.926
56.396
60.057
63.906
67.936
72.134
76.486
80.976
85.587
90.305
95.113
99.993
104.927
109.897
114.885
119.875
124.847
129.779
134.65
139.436
144.115
148.663
153.057
157.275
161.296
165.097
168.661
171.97
175.008
177.758
180.206
182.34
184.148
185.621
186.75
187.53
187.955
188.023
187.733
187.087
186.088
184.742
183.054
181.034
178.692
176.039
173.088
169.854
166.352
162.598
158.61
154.407
150.007
145.43
140.697
135.829
130.846
125.769
120.619
115.416
110.179
104.93
99.686
94.466
89.289
84.17
79.127
74.174
69.326
64.595
59.993
55.531
51.219
47.063
43.072
39.25
35.602
32.132
28.842
25.734
22.808
20.064
17.499
15.113
12.901
10.859
8.983
7.267
5.705
4.29
3.014
1.871
0.852
-0.051
-0.845
-1.54
-2.143
-2.663
-3.107
-3.483
-3.798
-4.059
-4.272
-4.444
-4.579
-4.682
-4.758
-4.81
-4.842
-4.858
-4.86
-4.851
-4.832
-4.808
-4.778
-4.744
-4.709
-4.672
-4.634
-4.596
-4.557
-4.517
-4.475
-4.432
-4.385
-4.334
-4.279
-4.218
-4.151
-4.078
-3.996
-3.908
-3.811
-3.708
-3.599
-3.485
-3.368
-3.249
-3.13
-3.015
-2.905
-2.803
-2.712
-2.633
-2.569
-2.522
-2.494
-2.487
-2.502
-2.542
-2.608
-2.702
-2.826
-2.982
-3.171
-3.394
-3.654
-3.952
-4.288
-4.663
-5.079
-5.536
-6.034
-6.573
-7.153
-7.774
-8.433
-9.129
-9.859
-10.621
-11.411
-12.227
-13.065
-13.922
-14.795
-15.681
-16.578
-17.484
-18.397
-19.314
-20.234
-21.154
-22.073
-22.988
-23.898
-24.8
-25.694
-26.578
-27.45
-28.31
-29.157
-29.991
-30.809
-31.612
-32.399
-33.169
-33.923
-34.662
-35.387
-36.098
-36.799
-37.493
-38.182
-38.868
-39.554
-40.241
-40.932
-41.625
-42.321
-43.019
-43.717
-44.415
-45.112
-45.808
-46.502
-47.193
-47.883
-48.573
-49.263
-49.952
-50.636
-51.311
-51.974
-52.619
-53.242
-53.834
-54.39
-54.904
-55.371
-55.791
-56.159
-56.47
-56.713
-56.874
-56.945
-56.922
-56.803
-56.585
-56.273
-55.877
-55.417
-54.928
-54.432
-53.939
-53.454
-52.968
-52.474
-51.967
-51.436
-50.873
-50.271
-49.617
-48.909
-48.154
-47.34
-46.444
-45.425
-44.21
-42.754
-41.041
-39.066
-36.852
-34.435
-31.858
-29.19
-26.52
-23.919
-21.45
-19.154
-17.051
-15.18
-13.6
-12.389
-11.661
-11.507
-11.985
-13.145
-15.005
-17.551
-20.741
-24.478
-28.627
-33.072
-37.735
-42.574
-47.555
-52.604
-57.619
-62.459
-66.976
-71.071
-74.616
-77.436
-79.464
-80.718
-81.376
-81.857
-82.413
-83.036
-83.698
-84.315
-84.714
-84.815
-84.211
-82.075
-78.19
-72.945
-66.938
-61.1
-56.084
-52.013
-49.443
-49.407
-52.101
-57.015
-63.268
-69.548
-75.33
-81.017
-86.778
-92.436
-98.285
-105.172
-112.996
-120.463
-125.531
-124.934
-119.181
-113.364
-110.153
-109.747
-103.443
-72.666
-3.685
109.741
258.86
417.123
557.399
658.65
712.848
730.065
726.16
713.154
696.511
672.424
632.91
574.967
500.17
412.681
318.868
222.854
126.989
35.054
-50.426
-128.483
-199.147
-264.618
-323.06
-368.47
-394.167
-393.877
-370.037
-330.75
-284.553
-239.25
-196.4
-157.22
-123.951
-99.413
-87.871
-87.561
-94.615
-104.363
-111.149
-114.786
-115.62
-113.373
-109.078
-101.751
-91.151
-78.768
-65.741
-53.67
-43.84
-36.508
-31.809
-29.735
-29.906
-31.859
-34.984
-38.546
-42.089
-45.396
-48.309
-50.734
-52.565
-53.701
-54.145
-53.964
-53.198
-51.865
-49.968
-47.511
-44.561
-41.219
-37.584
-33.749
-29.783
-25.751
-21.737
-17.846
-14.169
-10.772
-7.689
-4.931
-2.512
-0.438
1.293
2.707
3.846
4.754
5.47
6.028
6.46
6.805
7.109
7.424
7.794
8.251
8.82
9.521
10.374
11.397
12.6
13.984
15.546
17.289
19.215
21.328
23.628
26.109
28.766
31.59
34.571
37.701
40.968
44.361
47.863
51.462
55.141
58.886
62.681
66.505
70.337
74.154
77.934
81.655
85.291
88.82
92.217
95.459
98.526
101.397
104.052
106.472
108.641
110.542
112.162
113.488
114.508
115.214
115.597
115.654
115.381
114.777
113.843
112.58
110.993
109.09
106.878
104.367
101.569
98.497
95.166
91.591
87.791
83.785
79.592
75.234
70.731
66.106
61.382
56.582
51.727
46.842
41.946
37.064
32.214
27.418
22.697
18.068
13.549
9.154
4.898
0.793
-3.148
-6.91
-10.488
-13.881
-17.07
-20.044
-22.794
-25.306
-27.59
-29.661
-31.508
-33.119
-34.531
-35.775
-36.877
-37.875
-38.751
-39.463
-40.049
-40.572
-40.906
-40.904
-40.671
-40.212
-39.506
-38.911
-37.51
-34.412
-30.916
-27.427
-26.323
-30.451
-36.682
-42.93
-46.089
-41.884
-34.111
-25.984
-19.71
-18.929
-21.047
-23.437
-25.517
-25.687
-24.883
-24.305
-23.73
-23.313
-22.975
-22.476
-21.976
-21.604
-21.317
-21.108
-20.991
-20.963
-21.013
-21.137
-21.309
-21.502
-21.725
-21.987
-22.282
-22.611
-22.972
-23.36
-23.778
-24.229
-24.71
-25.218
-25.751
-26.309
-26.888
-27.487
-28.106
-28.74
-29.387
-30.046
-30.713
-31.387
-32.064
-32.741
-33.417
-34.088
-34.752
-35.405
-36.046
-36.673
-37.283
-37.875
-38.446
-38.997
-39.525
-40.028
-40.507
-40.959
-41.384
-41.779
-42.144
-42.478
-42.78
-43.048
-43.284
-43.487
-43.657
-43.796
-43.905
-43.984
-44.037
-44.065
-44.07
-44.055
-44.023
-43.978
-43.921
-43.857
-43.789
-43.72
-43.654
-43.594
-43.541
-43.499
-43.47
-43.454
-43.455
-43.472
-43.507
-43.562
-43.637
-43.733
-43.851
-43.991
-44.153
-44.336
-44.54
-44.763
-45.004
-45.26
-45.528
-45.806
-46.09
-46.377
-46.662
-46.941
-47.209
-47.46
-47.69
-47.893
-48.063
-48.193
-48.277
-48.312
-48.291
-48.209
-48.063
-47.849
-47.562
-47.2
-46.759
-46.235
-45.627
-44.932
-44.148
-43.273
-42.308
-41.251
-40.105
-38.87
-37.55
-36.148
-34.666
-33.108
-31.48
-29.788
-28.039
-26.24
-24.399
-22.526
-20.632
-18.731
-16.837
-14.966
-13.131
-11.345
-9.625
-7.988
-6.452
-5.032
-3.741
-2.591
-1.596
-0.772
-0.134
0.304
0.535
0.552
0.35
-0.078
-0.745
-1.654
-2.802
-4.179
-5.775
-7.589
-9.631
-11.905
-14.406
-17.122
-20.036
-23.133
-26.406
-29.833
-33.376
-36.987
-40.61
-44.19
-47.699
-51.116
-54.428
-57.61
-60.599
-63.316
-65.684
-67.656
-69.224
-70.407
-71.192
-71.523
-71.434
-71.104
-70.872
-71.095
-71.939
-73.315
-75.051
-77.24
-80.031
-83.264
-86.351
-88.369
-88.591
-87.027
-84.185
-80.197
-74.957
-68.664
-62.066
-56.825
-54.742
-56.472
-61.705
-70.066
-81.171
-94.513
-108.974
-121.877
-129.785
-130.021
-120.666
-100.476
-68.605
-23.996
33.729
103.058
181.215
264.967
350.722
435.413
516.012
588.437
648.704
693.892
721.81
731.265
722.004
693.564
646.032
581.217
502.002
411.82
314.576
214.272
115.012
21.331
-62.136
-132.705
-190.348
-234.364
-263.908
-277.706
-272.677
-252.077
-224.628
-198.952
-184.799
-183.749
-189.029
-194.926
-194.978
-187.27
-175.864
-162.641
-149.133
-136.074
-121.728
-105.856
-89.242
-72.432
-56.529
-42.454
-30.476
-20.751
-13.339
-8.024
-4.577
-2.84
-2.602
-3.633
-5.726
-8.637
-12.09
-15.876
-19.832
-23.79
-27.593
-31.063
-33.995
-36.255
-37.785
-38.566
-38.619
-37.964
-36.623
-34.644
-32.12
-29.155
-25.861
-22.338
-18.648
-14.861
-11.055
-7.325
-3.781
-0.5
2.486
5.161
7.523
9.573
11.309
12.753
13.953
14.953
15.797
16.522
17.149
17.712
18.252
18.817
19.46
20.22
21.123
22.192
23.446
24.901
26.57
28.457
30.553
32.855
35.358
38.061
40.962
44.057
47.332
50.774
54.369
58.103
61.959
65.919
69.965
74.077
78.235
82.421
86.617
90.801
94.953
99.05
103.067
106.983
110.773
114.414
117.882
121.154
124.209
127.027
129.589
131.876
133.873
135.566
136.94
137.984
138.69
139.05
139.058
138.712
138.012
136.959
135.556
133.811
131.731
129.327
126.61
123.593
120.291
116.72
112.897
108.839
104.566
100.097
95.453
90.655
85.725
80.686
75.559
70.367
65.133
59.88
54.628
49.399
44.215
39.096
34.061
29.13
24.321
19.65
15.133
10.784
6.615
2.637
-1.142
-4.714
-8.074
-11.218
-14.143
-16.848
-19.332
-21.596
-23.643
-25.476
-27.098
-28.514
-29.731
-30.756
-31.595
-32.258
-32.753
-33.089
-33.276
-33.324
-33.242
-33.042
-32.735
-32.332
-31.846
-31.288
-30.67
-30.003
-29.299
-28.568
-27.82
-27.064
-26.308
-25.559
-24.824
-24.108
-23.417
-22.755
-22.126
-21.533
-20.979
-20.466
-19.995
-19.566
-19.18
-18.838
-18.537
-18.28
-18.063
-17.888
-17.752
-17.655
-17.595
-17.57
-17.579
-17.618
-17.685
-17.775
-17.887
-18.015
-18.157
-18.31
-18.47
-18.636
-18.804
-18.973
-19.142
-19.309
-19.474
-19.636
-19.795
-19.952
-20.106
-20.26
-20.415
-20.572
-20.734
-20.902
-21.078
-21.265
-21.464
-21.676
-21.902
-22.144
-22.402
-22.678
-22.973
-23.288
-23.624
-23.983
-24.367
-24.776
-25.212
-25.676
-26.169
-26.692
-27.245
-27.828
-28.442
-29.086
-29.759
-30.462
-31.191
-31.947
-32.727
-33.528
-34.347
-35.181
-36.027
-36.88
-37.738
-38.596
-39.451
-40.3
-41.14
-41.968
-42.781
-43.578
-44.356
-45.112
-45.845
-46.553
-47.233
-47.884
-48.505
-49.092
-49.644
-50.16
-50.637
-51.074
-51.469
-51.819
-52.123
-52.38
-52.586
-52.742
-52.845
-52.896
-52.892
-52.835
-52.724
-52.559
-52.339
-52.064
-51.734
-51.348
-50.907
-50.409
-49.854
-49.24
-48.567
-47.834
-47.04
-46.181
-45.256
-44.261
-43.196
-42.062
-40.86
-39.591
-38.254
-36.852
-35.387
-33.862
-32.281
-30.644
-28.954
-27.213
-25.426
-23.602
-21.751
-19.883
-18.007
-16.125
-14.245
-12.374
-10.522
-8.703
-6.93
-5.213
-3.569
-2.018
-0.581
0.718
1.864
2.849
3.666
4.319
4.794
5.057
5.076
4.815
4.264
3.46
2.423
1.161
-0.318
-2.044
-3.994
-6.049
-8.243
-10.736
-13.66
-17.211
-21.358
-25.737
-30.187
-34.773
-39.298
-43.453
-46.863
-48.901
-49.532
-49.424
-48.902
-48.017
-47.02
-46.129
-45.845
-47.153
-50.304
-54.744
-60.176
-66.442
-73.409
-81.088
-88.951
-95.79
-100.785
-103.717
-104.489
-103.091
-99.231
-92.464
-82.992
-71.916
-60.693
-50.483
-42
-35.856
-33.184
-35.451
-43.706
-57.965
-77.073
-99.783
-125.05
-151.335
-176.189
-196.303
-207.644
-206.577
-191.003
-158.796
-108.983
-43.13
38.023
133.179
240.334
359.597
485.355
605.919
709.32
781.951
818.729
824.809
805.894
769.134
717.149
647.131
559.716
457.5
345.457
231.154
119.779
15.473
-77.672
-156.914
-220.125
-266.565
-297.345
-313.946
-317.753
-310.959
-296.418
-277.633
-258.364
-240.693
-225.281
-212.54
-202.796
-196.227
-192.469
-189.911
-186.245
-180.293
-171.851
-161.063
-148.282
-133.487
-116.707
-98.892
-81.526
-65.648
-51.952
-40.752
-31.891
-25.451
-21.738
-20.601
-21.754
-24.981
-29.544
-34.798
-40.599
-46.674
-52.56
-57.989
-62.393
-65.126
-66.488
-66.834
-66.176
-64.715
-62.588
-59.809
-56.816
-54.111
-51.49
-48.777
-45.973
-42.916
-39.683
-36.43
-33.06
-29.513
-25.994
-22.635
-19.52
-16.774
-14.353
-12.195
-10.315
-8.681
-7.226
-5.902
-4.652
-3.422
-2.199
-0.959
0.34
1.738
3.279
4.992
6.893
8.999
11.321
13.866
16.632
19.607
22.782
26.15
29.705
33.442
37.354
41.424
45.636
49.974
54.423
58.965
63.58
68.243
72.928
77.614
82.29
86.929
91.489
95.928
100.203
104.292
108.201
111.912
115.369
118.576
121.586
124.437
127.177
129.794
132.183
134.308
136.26
137.919
138.92
139.194
138.838
137.804
136.497
134.141
128.517
120.223
111.264
105.121
108.168
119.73
133.515
143.149
139.59
122.694
100.964
80.951
69.853
68.62
70.91
72.939
72.013
67.472
61.948
56.565
51.277
46.18
40.893
35.356
29.935
24.743
19.737
14.942
10.385
6.065
1.977
-1.902
-5.624
-9.201
-12.598
-15.804
-18.819
-21.641
-24.271
-26.71
-28.951
-30.996
-32.851
-34.524
-36.022
-37.35
-38.516
-39.526
-40.387
-41.108
-41.697
-42.16
-42.505
-42.74
-42.871
-42.908
-42.857
-42.725
-42.52
-42.25
-41.92
-41.538
-41.11
-40.643
-40.141
-39.611
-39.057
-38.486
-37.901
-37.307
-36.709
-36.109
-35.512
-34.92
-34.335
-33.76
-33.196
-32.645
-32.108
-31.586
-31.081
-30.594
-30.128
-29.682
-29.259
-28.86
-28.487
-28.14
-27.82
-27.529
-27.268
-27.036
-26.835
-26.666
-26.528
-26.423
-26.35
-26.309
-26.3
-26.323
-26.378
-26.462
-26.577
-26.72
-26.891
-27.089
-27.313
-27.563
-27.837
-28.133
-28.452
-28.791
-29.148
-29.522
-29.912
-30.313
-30.726
-31.147
-31.574
-32.006
-32.44
-32.874
-33.306
-33.734
-34.158
-34.574
-34.981
-35.379
-35.766
-36.141
-36.503
-36.852
-37.188
-37.511
-37.82
-38.115
-38.397
-38.666
-38.922
-39.165
-39.395
-39.615
-39.823
-40.022
-40.212
-40.394
-40.569
-40.739
-40.905
-41.068
-41.229
-41.389
-41.549
-41.711
-41.875
-42.042
-42.213
-42.388
-42.567
-42.749
-42.936
-43.125
-43.316
-43.509
-43.702
-43.895
-44.085
-44.272
-44.454
-44.63
-44.797
-44.954
-45.097
-45.225
-45.335
-45.424
-45.489
-45.528
-45.538
-45.516
-45.459
-45.364
-45.229
-45.049
-44.824
-44.548
-44.221
-43.841
-43.405
-42.912
-42.362
-41.754
-41.089
-40.367
-39.589
-38.757
-37.872
-36.937
-35.955
-34.929
-33.863
-32.762
-31.631
-30.479
-29.315
-28.147
-26.987
-25.846
-24.733
-23.663
-22.643
-21.684
-20.794
-19.981
-19.254
-18.626
-18.106
-17.706
-17.434
-17.3
-17.312
-17.477
-17.799
-18.274
-18.898
-19.67
-20.593
-21.677
-22.934
-24.368
-25.982
-27.777
-29.743
-31.869
-34.13
-36.483
-38.886
-41.295
-43.674
-45.996
-48.233
-50.347
-52.292
-54.006
-55.433
-56.53
-57.258
-57.589
-57.529
-57.101
-56.366
-55.421
-54.348
-53.25
-52.231
-51.38
-50.796
-50.585
-50.868
-51.829
-53.706
-56.616
-60.538
-65.341
-70.699
-76.203
-81.434
-85.809
-88.581
-89.343
-88.148
-85.291
-81.671
-78.6
-77.081
-78.171
-82.193
-87.531
-92.071
-94.843
-97.474
-103.092
-112.614
-120.482
-112.872
-75.82
-2.849
101.457
220.735
337.822
442.245
530.213
603.407
662.478
704.876
726.724
724.43
697.352
646.816
575.517
487.961
388.657
282.51
174.947
70.275
-27.771
-115.52
-190.561
-251.591
-297.696
-329.335
-347.993
-355.076
-352.544
-342.769
-327.458
-308.063
-286.408
-263.681
-240.662
-218.32
-196.982
-176.537
-157.38
-140.046
-124.439
-110.526
-98.111
-86.473
-75.41
-65.116
-55.415
-45.989
-36.891
-28.183
-20.186
-13.691
-9.033
-6.192
-5.255
-6.204
-8.865
-13.052
-18.35
-24.091
-29.836
-35.277
-40.091
-44.113
-47.21
-49.259
-50.28
-50.357
-49.544
-47.911
-45.533
-42.472
-38.833
-34.74
-30.297
-25.622
-20.828
-16.033
-11.38
-6.969
-2.863
0.898
4.307
7.363
10.061
12.423
14.492
16.31
17.922
19.369
20.684
21.913
23.104
24.309
25.586
26.976
28.506
30.198
32.067
34.124
36.379
38.832
41.471
44.292
47.288
50.457
53.795
57.297
60.948
64.737
68.649
72.669
76.785
80.979
85.234
89.534
93.861
98.197
102.527
106.831
111.088
115.277
119.376
123.361
127.213
130.908
134.424
137.74
140.836
143.695
146.297
148.628
150.671
152.412
153.84
154.943
155.712
156.14
156.221
155.952
155.331
154.358
153.037
151.372
149.368
147.033
144.379
141.415
138.155
134.612
130.803
126.743
122.452
117.946
113.247
108.374
103.349
98.192
92.927
87.574
82.157
76.696
71.213
65.731
60.269
54.849
49.491
44.213
39.035
33.973
29.044
24.263
19.645
15.2
10.942
6.879
3.02
-0.627
-4.057
-7.265
-10.248
-13.001
-15.526
-17.82
-19.886
-21.726
-23.342
-24.74
-25.925
-26.902
-27.68
-28.264
-28.665
-28.89
-28.95
-28.855
-28.616
-28.243
-27.749
-27.144
-26.441
-25.652
-24.787
-23.858
-22.876
-21.851
-20.793
-19.712
-18.618
-17.518
-16.421
-15.336
-14.27
-13.231
-12.224
-11.256
-10.332
-9.456
-8.634
-7.868
-7.162
-6.518
-5.938
-5.423
-4.975
-4.593
-4.277
-4.026
-3.838
-3.712
-3.643
-3.63
-3.668
-3.755
-3.886
-4.057
-4.266
-4.508
-4.779
-5.075
-5.393
-5.728
-6.076
-6.435
-6.799
-7.165
-7.531
-7.892
-8.246
-8.59
-8.921
-9.237
-9.536
-9.816
-10.075
-10.313
-10.528
-10.72
-10.888
-11.035
-11.16
-11.267
-11.355
-11.428
-11.488
-11.538
-11.58
-11.617
-11.651
-11.687
-11.725
-11.771
-11.826
-11.894
-11.977
-12.079
-12.202
-12.348
-12.519
-12.719
-12.948
-13.209
-13.503
-13.831
-14.196
-14.598
-15.038
-15.517
-16.033
-16.587
-17.177
-17.801
-18.457
-19.143
-19.854
-20.589
-21.343
-22.115
-22.898
-23.691
-24.487
-25.283
-26.073
-26.853
-27.618
-28.364
-29.086
-29.78
-30.443
-31.071
-31.662
-32.211
-32.713
-33.163
-33.557
-33.892
-34.165
-34.376
-34.522
-34.601
-34.611
-34.553
-34.427
-34.232
-33.963
-33.617
-33.191
-32.687
-32.108
-31.461
-30.746
-29.961
-29.099
-28.157
-27.133
-26.026
-24.835
-23.556
-22.189
-20.735
-19.208
-17.621
-15.985
-14.305
-12.576
-10.787
-8.945
-7.073
-5.218
-3.432
-1.745
-0.156
1.343
2.752
4.05
5.194
6.193
7.127
8.005
8.713
9
8.586
7.397
5.634
3.558
1.246
-1.193
-3.461
-4.956
-4.933
-3.099
0.137
4.024
8.069
11.92
15.131
16.939
16.312
12.755
6.699
-0.839
-9.06
-17.463
-25.64
-33.024
-38.753
-42.303
-43.869
-44.174
-43.835
-43.154
-42.245
-41.195
-40.318
-39.924
-40.008
-40.281
-40.522
-40.747
-41.179
-42.288
-44.412
-47.559
-51.739
-57.035
-63.356
-70.453
-77.766
-84.112
-88.276
-89.672
-88.057
-83.438
-76.22
-67.001
-56.838
-47.692
-42.038
-41.78
-47.906
-60.724
-78.766
-99.063
-118.875
-135.516
-148.303
-158.624
-165.214
-162.652
-140.79
-89.081
-4.448
106.855
230.133
349.844
456.885
548.115
624.48
686.179
730.262
752.702
751.529
728.297
685.54
625.362
547.114
448.246
330.619
202.579
78.63
-25.669
-101.557
-150.512
-182.939
-209.617
-236.453
-263.286
-284.547
-296.653
-299.791
-295.895
-288.42
-279.189
-267.887
-254.028
-237.069
-216.81
-193.773
-168.809
-143.131
-118.214
-95.394
-75.797
-60.289
-49.234
-42.515
-39.485
-38.845
-39.276
-39.853
-39.853
-38.847
-36.757
-33.671
-30.057
-26.806
-24.595
-23.72
-24.273
-26.068
-28.824
-32.29
-36.03
-39.468
-42.213
-44.058
-44.944
-44.97
-44.224
-42.752
-40.651
-38.052
-35.068
-31.808
-28.345
-24.73
-21.033
-17.349
-13.794
-10.472
-7.446
-4.749
-2.389
-0.359
1.344
2.737
3.854
4.737
5.425
5.955
6.357
6.665
6.922
7.18
7.495
7.918
8.483
9.219
10.145
11.277
12.628
14.207
16.009
18.033
20.278
22.744
25.433
28.343
31.467
34.794
38.312
42.007
45.868
49.88
54.026
58.289
62.651
67.095
71.603
76.156
80.73
85.303
89.849
94.344
98.763
103.081
107.272
111.311
115.176
118.842
122.29
125.5
128.452
131.129
133.515
135.597
137.363
138.802
139.905
140.666
141.082
141.151
140.871
140.244
139.276
137.971
136.339
134.388
132.127
129.569
126.727
123.617
120.261
116.672
112.865
108.87
104.716
100.43
96.044
91.573
87.021
82.425
77.821
73.196
68.547
63.874
59.166
54.466
49.843
45.285
40.756
36.403
32.398
28.657
25.199
22.061
18.909
16.67
16.247
16.36
16.62
14.67
7.688
-1.208
-9.94
-15.414
-13.38
-7.611
-1.309
3.33
2.679
-0.689
-4.164
-7.178
-8.146
-8.008
-7.968
-7.813
-7.706
-7.58
-7.206
-6.751
-6.354
-5.982
-5.636
-5.339
-5.096
-4.904
-4.766
-4.663
-4.574
-4.514
-4.496
-4.516
-4.578
-4.685
-4.837
-5.04
-5.293
-5.591
-5.93
-6.317
-6.744
-7.19
-7.639
-8.07
-8.479
-8.888
-9.295
-9.668
-10.023
-10.416
-10.887
-11.485
-12.214
-12.993
-13.799
-14.709
-15.641
-16.301
-16.621
-16.69
-16.467
-16.263
-15.508
-12.378
-7.24
-1.78
1.267
-3.285
-15.188
-29.223
-40.211
-40.797
-30.421
-16.065
-3.13
2.578
-0.03
-5.748
-11.353
-14.677
-15.032
-14.543
-14.193
-13.909
-13.769
-13.456
-12.889
-12.355
-11.945
-11.612
-11.363
-11.216
-11.16
-11.185
-11.268
-11.361
-11.451
-11.564
-11.709
-11.885
-12.097
-12.343
-12.629
-12.963
-13.348
-13.784
-14.273
-14.814
-15.41
-16.064
-16.777
-17.55
-18.384
-19.281
-20.242
-21.268
-22.361
-23.519
-24.746
-26.04
-27.402
-28.831
-30.327
-31.886
-33.508
-35.188
-36.925
-38.711
-40.543
-42.414
-44.317
-46.246
-48.193
-50.148
-52.104
-54.05
-55.978
-57.878
-59.74
-61.553
-63.309
-64.997
-66.607
-68.131
-69.558
-70.879
-72.087
-73.172
-74.128
-74.948
-75.624
-76.151
-76.525
-76.746
-76.812
-76.718
-76.461
-76.037
-75.451
-74.711
-73.825
-72.796
-71.634
-70.367
-69.038
-67.69
-66.346
-65.006
-63.668
-62.352
-61.067
-59.77
-58.37
-56.8
-55.056
-53.191
-51.282
-49.349
-47.464
-45.953
-45.148
-45.105
-45.705
-46.684
-48.649
-53.31
-61.582
-72.462
-81.25
-81.058
-68.571
-45.901
-22.285
-10.58
-17.09
-40.836
-73.087
-99.585
-112.992
-111.946
-99.574
-85.548
-75.126
-69.952
-71.132
-74.643
-77.956
-80.712
-81.587
-81.555
-81.604
-81.479
-81.484
-81.642
-81.786
-82.27
-83.489
-85.598
-88.703
-92.706
-97.21
-101.828
-106.225
-109.905
-112.345
-113.189
-112.243
-109.928
-107.259
-105.192
-104.575
-106.025
-109.83
-116.125
-124.618
-133.781
-141.083
-143.76
-138.909
-124.29
-98.336
-59.415
-6.55
59.568
136.968
222.694
312.737
403.432
491.267
571.761
640.469
693.864
728.94
743.731
737.716
710.503
662.288
594.75
510.618
413.52
307.785
198.909
91.822
-10.106
-102.717
-184.734
-256.18
-312.88
-353.243
-375.205
-375.738
-360.553
-335.588
-306.188
-279.098
-253.963
-229.526
-206.417
-184.485
-165.718
-151.47
-140.888
-133.064
-127.199
-122.678
-119.041
-115.263
-110.135
-103.077
-94.182
-84.029
-73.052
-61.478
-49.976
-39.433
-30.615
-24.307
-19.653
-15.484
-12.771
-11.627
-14.083
-22.541
-33.396
-44.24
-51.712
-51.353
-46.969
-41.745
-37.858
-39.011
-42.531
-45.714
-47.971
-47.678
-45.836
-43.755
-41.291
-38.672
-35.876
-32.706
-29.37
-26.066
-22.817
-19.675
-16.727
-14.02
-11.577
-9.417
-7.516
-5.829
-4.343
-3.035
-1.854
-0.764
0.268
1.273
2.271
3.284
4.347
5.495
6.766
8.195
9.802
11.604
13.614
15.834
18.266
20.904
23.733
26.742
29.919
33.253
36.735
40.354
44.095
47.939
51.867
55.857
59.891
63.946
67.999
72.03
76.014
79.932
83.765
87.49
91.088
94.537
97.815
100.9
103.774
106.417
108.81
110.936
112.779
114.326
115.566
116.487
117.083
117.345
117.27
116.854
116.097
114.998
113.561
111.789
109.689
107.267
104.533
101.499
98.177
94.581
90.726
86.629
82.308
77.78
73.066
68.183
63.153
57.995
52.731
47.381
41.966
36.506
31.023
25.536
20.064
14.627
9.242
3.927
-1.302
-6.431
-11.444
-16.329
-21.073
-25.665
-30.094
-34.351
-38.428
-42.318
-46.016
-49.517
-52.817
-55.915
-58.81
-61.501
-63.989
-66.276
-68.364
-70.258
-71.96
-73.476
-74.811
-75.971
-76.963
-77.794
-78.47
-79.001
-79.394
-79.656
-79.796
-79.823
-79.743
-79.566
-79.299
-78.95
-78.528
-78.039
-77.492
-76.895
-76.253
-75.574
-74.865
-74.132
-73.381
-72.617
-71.845
-71.072
-70.3
-69.536
-68.782
-68.042
-67.32
-66.618
-65.94
-65.288
-64.663
-64.068
-63.503
-62.971
-62.472
-62.007
-61.576
-61.18
-60.819
-60.493
-60.202
-59.945
-59.722
-59.533
-59.376
-59.251
-59.157
-59.093
-59.058
-59.051
-59.07
-59.116
-59.185
-59.278
-59.392
-59.527
-59.681
-59.854
-60.045
-60.252
-60.475
-60.712
-60.965
-61.23
-61.51
-61.802
-62.106
-62.424
-62.754
-63.097
-63.452
-63.821
-64.204
-64.601
-65.012
-65.437
-65.878
-66.333
-66.802
-67.287
-67.787
-68.303
-68.834
-69.38
-69.942
-70.519
-71.111
-71.718
-72.339
-72.972
-73.617
-74.273
-74.937
-75.61
-76.288
-76.971
-77.656
-78.342
-79.025
-79.704
-80.375
-81.035
-81.682
-82.311
-82.92
-83.506
-84.066
-84.596
-85.095
-85.559
-85.986
-86.373
-86.718
-87.018
-87.271
-87.473
-87.622
-87.715
-87.751
-87.727
-87.643
-87.496
-87.285
-87.01
-86.669
-86.261
-85.787
-85.245
-84.634
-83.956
-83.21
-82.398
-81.521
-80.581
-79.579
-78.518
-77.401
-76.23
-75.008
-73.738
-72.423
-71.066
-69.672
-68.246
-66.791
-65.314
-63.822
-62.323
-60.827
-59.344
-57.883
-56.456
-55.073
-53.746
-52.485
-51.299
-50.198
-49.19
-48.284
-47.49
-46.82
-46.284
-45.893
-45.657
-45.583
-45.681
-45.956
-46.407
-47.035
-47.839
-48.822
-49.995
-51.367
-52.948
-54.742
-56.75
-58.966
-61.377
-63.956
-66.661
-69.449
-72.274
-75.092
-77.872
-80.579
-83.178
-85.625
-87.862
-89.835
-91.495
-92.8
-93.715
-94.231
-94.368
-94.185
-93.789
-93.28
-92.748
-92.291
-92.011
-92.029
-92.484
-93.509
-95.218
-97.754
-101.328
-106.037
-111.824
-118.443
-125.359
-131.994
-137.869
-142.431
-145.021
-145.306
-143.371
-139.778
-135.855
-132.908
-131.703
-132.969
-137.291
-144.48
-153.525
-162.378
-167.523
-165.327
-152.994
-127.844
-87.654
-31.452
40.528
126.31
221.589
321.246
420.327
513.301
594.571
659.28
703.181
723.559
720.011
693.112
644.076
575.515
490.946
394.605
291.652
186.928
84.336
-12.092
-98.643
-172.498
-231.454
-274.88
-303.833
-319.616
-323.761
-318.925
-307.868
-293.435
-278.961
-265.216
-251.778
-240.084
-230.246
-223.933
-223.248
-224.005
-222.843
-216.221
-200.059
-178.478
-155.34
-133.44
-116.86
-103.713
-92.115
-81.897
-71.683
-62.414
-55.114
-49.427
-45.374
-42.688
-40.913
-39.993
-39.858
-40.299
-41.166
-42.357
-43.767
-45.287
-46.828
-48.267
-49.453
-50.294
-50.703
-50.614
-50.005
-48.872
-47.223
-45.103
-42.569
-39.684
-36.521
-33.129
-29.541
-25.791
-21.907
-17.935
-13.941
-9.991
-6.157
-2.492
0.975
4.226
7.256
10.076
12.706
15.18
17.538
19.813
22.028
24.207
26.368
28.536
30.747
33.037
35.447
38.01
40.749
43.681
46.818
50.164
53.717
57.467
61.399
65.497
69.749
74.141
78.663
83.299
88.033
92.843
97.71
102.611
107.525
112.43
117.303
122.123
126.867
131.515
136.048
140.446
144.687
148.751
152.616
156.263
159.673
162.827
165.709
168.303
170.597
172.579
174.241
175.577
176.582
177.253
177.591
177.597
177.276
176.634
175.678
174.418
172.864
171.028
168.925
166.569
163.977
161.165
158.153
154.958
151.603
148.106
144.491
140.778
136.989
133.147
129.274
125.392
121.522
117.688
113.909
110.205
106.597
103.101
99.736
96.516
93.456
90.568
87.864
85.354
83.046
80.947
79.062
77.395
75.949
74.726
73.726
72.949
72.391
72.05
71.921
72
72.278
72.749
73.403
74.232
75.225
76.37
77.656
79.071
80.6
82.231
83.95
85.741
87.591
89.485
91.408
93.346
95.285
97.212
99.112
100.973
102.782
104.529
106.201
107.787
109.277
110.661
111.93
113.074
114.085
114.956
115.678
116.246
116.653
116.894
116.965
116.861
116.579
116.117
115.472
114.642
113.628
112.43
111.049
109.485
107.743
