Name,John Breau
Date of Birth,"Dec 20, 1971"
Recorded Date,2023-06-06 17:16:25 -0500
Classification,Sinus Rhythm
Symptoms,
Software Version,1.90
Device,"Watch6,3"
Sample Rate,512 hertz


Lead,Lead I
Unit,µV

208.732
287.239
283.486
196.77
44.331
-148.054
-349.913
-543.39
-717.41
-858.938
-962.328
-1024.867
-1046.649
-1038.074
-1009.694
-966.106
-909.912
-839.883
-754.142
-656.517
-553.132
-449.482
-351.544
-263.616
-187.857
-125.706
-77.019
-40.123
-13.14
5.358
17.176
24.768
30.649
37.32
46.189
57.19
69.736
83.187
96.637
108.91
118.642
124.263
124.833
120.252
110.749
96.862
79.314
58.808
36.186
12.419
-11.835
-36.202
-60.411
-84.358
-107.952
-131.041
-153.587
-175.645
-197.221
-218.312
-238.914
-259.06
-278.877
-298.611
-318.568
-338.86
-359.397
-379.927
-399.996
-419.212
-437.387
-454.108
-468.675
-480.786
-490.438
-498.135
-505.128
-511.999
-518.321
-523.747
-527.914
-529.863
-528.494
-521.563
-505.271
-477.043
-435.802
-380.549
-310.975
-227.185
-129.008
-18.152
101.507
226.931
355.76
485.22
613.03
736.295
851.049
955.145
1048.296
1130.028
1200.191
1259.319
1308.037
1348.305
1383.475
1415.692
1445.877
1474.792
1502.622
1529.251
1554.504
1577.255
1595.513
1608.017
1614.308
1614.241
1608.19
1596.563
1579.598
1557.909
1532.366
1503.484
1471.529
1436.618
1398.584
1357.335
1312.95
1265.391
1214.682
1160.979
1104.357
1044.927
982.835
918.132
850.868
781.155
709.127
635.022
559.168
481.885
403.58
324.742
245.879
167.619
90.55
15.143
-58.078
-128.569
-195.774
-259.07
-317.865
-371.714
-420.25
-463.197
-500.402
-531.741
-557.213
-576.966
-591.236
-600.4
-604.857
-604.955
-601.099
-593.781
-583.523
-570.921
-556.595
-541.033
-524.685
-507.995
-491.294
-474.868
-458.933
-443.567
-428.791
-414.578
-400.864
-387.594
-374.696
-362.033
-349.471
-336.873
-324.052
-310.879
-297.212
-282.854
-267.719
-251.793
-235.101
-217.748
-199.866
-181.59
-163.127
-144.739
-126.671
-109.169
-92.44
-76.635
-61.948
-48.595
-36.836
-26.991
-19.291
-13.901
-10.972
-10.639
-13.037
-18.26
-26.279
-36.953
-50.11
-65.585
-83.219
-102.856
-124.292
-147.257
-171.413
-196.38
-221.798
-247.278
-272.413
-296.754
-319.763
-340.945
-359.88
-376.205
-389.653
-399.996
-407.051
-410.725
-410.97
-407.777
-401.206
-391.359
-378.348
-362.375
-343.651
-322.409
-299.046
-273.995
-247.728
-220.794
-193.642
-166.653
-140.177
-114.465
-89.747
-66.286
-44.276
-23.869
-5.25
11.436
25.964
38.009
47.383
53.976
57.75
58.793
57.136
52.758
45.655
35.804
23.171
7.757
-10.507
-31.754
-56.064
-83.491
-113.944
-147.148
-182.865
-220.893
-261.061
-303.259
-347.368
-393.244
-440.792
-489.978
-540.731
-592.95
-646.462
-700.99
-756.238
-811.895
-867.733
-923.636
-979.503
-1035.205
-1090.551
-1145.29
-1199.097
-1251.601
-1302.37
-1350.824
-1396.376
-1438.438
-1476.41
-1509.748
-1537.967
-1560.61
-1577.192
-1587.18
-1589.978
-1585.006
-1571.855
-1550.224
-1519.962
-1480.977
-1433.144
-1376.491
-1311.152
-1237.357
-1155.544
-1066.163
-969.584
-866.362
-757.291
-643.367
-526.001
-406.581
-285.938
-164.836
-44
76.182
195.103
312.309
428.085
542.453
654.586
763.362
867.072
963.291
1050.235
1126.263
1189.067
1236.984
1269.361
1286.127
1288.587
1279.367
1260.722
1234.808
1204.3
1171.219
1136.857
1102.078
1066.198
1027.223
983.537
933.841
877.055
813.025
742.207
665.633
586.208
508.255
435.855
372.941
322.66
287.126
268.379
267.728
284.199
315.001
356.584
404.331
453.995
501.693
542.177
570.08
581.412
573.33
544.419
495.145
426.018
337.716
233.076
116.098
-8.855
-137.016
-264.287
-387.502
-503.087
-607.242
-697.457
-772.185
-830.521
-872.081
-896.498
-903.719
-894.399
-869.754
-830.481
-776.741
-709.152
-629.263
-539.27
-441.249
-336.993
-228.131
-117.495
-9.321
92.606
185.825
269.153
341.899
403.075
451.449
487.423
513.733
533.759
550.545
566.033
581.526
599.134
622.063
652.759
691.601
737.864
790.465
849.069
914.118
984.918
1058.838
1132.755
1204.428
1271.991
1333.74
1387.191
1428.67
1455.661
1467.741
1465.498
1449.906
1422.455
1384.839
1339.74
1291.189
1242.247
1194.597
1149.35
1106.895
1067.238
1030.365
995.55
961.375
927.193
893.027
859.097
825.999
794.213
764.048
736.127
711.219
689.742
671.811
657.29
645.872
637.351
631.569
628.199
626.762
626.677
627.336
628.3
629.284
630.001
630.136
629.348
627.282
623.622
618.169
610.742
601.113
589.082
574.457
557.135
537.185
514.766
490.101
463.368
434.643
404.036
371.749
338.047
303.302
267.961
232.377
196.928
162.077
128.258
95.952
65.625
37.558
11.965
-10.967
-31.06
-48.033
-61.639
-71.781
-78.449
-81.771
-81.993
-79.324
-74.016
-66.45
-57.02
-46.176
-34.399
-21.988
-9.163
3.854
16.861
29.557
41.625
52.873
63.18
72.495
80.84
88.244
94.771
100.607
105.986
111.133
116.265
121.43
126.555
131.544
136.249
140.591
144.536
147.992
150.844
152.976
154.261
154.547
153.665
151.357
147.309
141.265
133.025
122.529
109.844
95.108
78.537
60.325
40.631
19.62
-2.557
-25.762
-49.871
-74.74
-100.216
-126.081
-152.063
-177.925
-203.47
-228.576
-253.206
-277.377
-301.167
-324.641
-347.849
-370.817
-393.54
-415.995
-438.143
-459.938
-481.328
-502.297
-522.863
-543.039
-562.833
-582.225
-601.166
-619.585
-637.387
-654.488
-670.81
-686.292
-700.898
-714.608
-727.417
-739.335
-750.389
-760.596
-769.964
-778.501
-786.212
-793.11
-799.217
-804.559
-809.168
-813.079
-816.326
-818.943
-820.963
-822.411
-823.312
-823.683
-823.537
-822.89
-821.756
-820.152
-818.098
-815.611
-812.707
-809.404
-805.719
-801.666
-797.257
-792.5
-787.402
-781.967
-776.198
-770.094
-763.653
-756.874
-749.75
-742.277
-734.448
-726.257
-717.695
-708.754
-699.427
-689.704
-679.576
-669.036
-658.076
-646.689
-634.868
-622.609
-609.909
-596.766
-583.179
-569.149
-554.676
-539.763
-524.412
-508.63
-492.42
-475.791
-458.754
-441.323
-423.511
-405.34
-386.833
-368.017
-348.925
-329.592
-310.055
-290.354
-270.532
-250.635
-230.707
-210.794
-190.938
-171.187
-151.588
-132.191
-113.048
-94.213
-75.739
-57.682
-40.094
-23.027
-6.533
9.341
24.559
39.08
52.868
65.874
78.035
89.299
99.63
108.999
117.388
124.796
131.23
136.728
141.36
145.195
148.3
150.726
152.498
153.652
154.235
154.318
154.005
153.377
152.476
151.328
149.946
148.31
146.38
144.037
141.069
137.284
132.545
126.759
119.877
111.833
102.5
91.721
79.373
65.337
49.497
31.916
12.819
-7.385
-28.014
-48.267
-67.402
-84.537
-98.749
-109.759
-117.821
-123.665
-128.607
-133.622
-139.087
-145.661
-154.109
-164.069
-174.186
-181.881
-183.34
-175.606
-156.944
-125.437
-79.018
-16.852
60.402
149.854
246.313
344.769
441.129
530.997
609.097
670.42
710.906
728.271
722.748
695.391
646.754
577.773
491.015
389.959
278.883
162.434
43.916
-73.845
-186.958
-291.302
-383.537
-460.828
-522.125
-567.966
-598.39
-613.849
-616.146
-607.557
-591.132
-570.67
-548.614
-526.557
-506.749
-490.708
-479.334
-473.684
-473.516
-477.5
-484.95
-494.96
-505.918
-516.984
-527.353
-535.755
-541.898
-546.138
-548.63
-550.064
-551.471
-553.205
-555.566
-559.036
-563.559
-568.872
-574.725
-580.531
-585.646
-589.787
-592.78
-594.49
-594.972
-594.268
-592.417
-589.571
-585.888
-581.47
-576.395
-570.711
-564.444
-557.66
-550.445
-542.868
-534.995
-526.871
-518.515
-509.953
-501.217
-492.347
-483.402
-474.44
-465.5
-456.593
-447.707
-438.84
-429.984
-421.135
-412.282
-403.365
-394.314
-385.079
-375.627
-365.916
-355.881
-345.392
-334.264
-322.359
-309.611
-296.024
-281.651
-266.534
-250.727
-234.308
-217.406
-200.23
-182.988
-165.851
-148.971
-132.537
-116.789
-102.066
-88.749
-77.112
-67.332
-59.507
-53.683
-49.912
-48.22
-48.579
-50.873
-54.925
-60.561
-67.636
-75.987
-85.382
-95.505
-105.93
-116.239
-126.13
-135.374
-143.798
-151.254
-157.586
-162.658
-166.389
-168.745
-169.713
-169.281
-167.439
-164.234
-159.803
-154.376
-148.28
-141.806
-135.151
-128.473
-121.882
-115.489
-109.409
-103.75
-98.595
-94.02
-90.118
-86.972
-84.655
-83.177
-82.462
-82.346
-82.577
-82.941
-83.301
-83.569
-83.72
-83.729
-83.579
-83.269
-82.821
-82.273
-81.641
-80.924
-80.105
-79.206
-78.319
-77.621
-77.379
-77.812
-79.05
-81.138
-84.044
-87.722
-92.089
-97.012
-102.289
-107.659
-112.889
-117.811
-122.304
-126.237
-129.425
-131.596
-132.407
-131.585
-128.954
-124.424
-117.973
-109.598
-99.358
-87.404
-73.99
-59.459
-44.099
-28.12
-11.677
5.078
21.948
38.673
54.958
70.575
85.355
99.173
111.929
123.528
133.935
143.193
151.437
158.856
165.581
171.68
177.182
182.109
186.501
190.427
193.952
197.096
199.871
202.291
204.371
206.14
207.595
208.693
209.356
209.493
209.049
208.004
206.359
204.123
201.307
197.929
194.026
189.655
184.871
179.719
174.238
168.468
162.456
156.263
149.958
143.609
137.275
131.015
124.883
118.932
113.21
107.762
102.622
97.82
93.388
89.358
85.761
82.63
79.989
77.861
76.268
75.229
74.757
74.861
75.542
76.8
78.629
81.019
83.954
87.416
91.383
95.83
100.728
106.046
111.749
117.802
124.165
130.798
137.66
144.704
151.884
159.153
166.463
173.767
181.02
188.175
195.187
202.014
208.613
214.945
220.971
226.653
231.952
236.833
241.262
245.207
248.639
251.533
253.87
255.637
256.826
257.438
257.476
256.95
255.873
254.264
252.144
249.534
246.458
242.944
239.024
234.738
230.128
225.229
220.083
214.737
209.232
203.611
197.902
192.112
186.255
180.36
174.458
168.592
162.809
157.141
151.66
146.483
141.72
137.491
133.884
130.909
128.602
127.047
126.27
126.262
127.007
128.42
130.47
133.257
136.785
140.923
145.671
151.109
157.014
163.016
168.868
173.929
178.735
185.203
192.716
199.62
203.051
197.563
184.395
169.828
160.033
163.509
179.974
200.559
217.835
223.42
216.074
203.017
188.819
177.337
167.238
150.811
126.672
98.551
77.3
81.771
122.679
202.078
314.784
445.058
578.671
703.961
807.3
879.993
918.269
923.588
905.403
873.763
833.142
782.503
717.674
636.531
541.881
439.923
336.906
236.687
142.113
56.238
-18.235
-78.519
-123.339
-153.448
-169.213
-170.82
-159.451
-136.976
-106.186
-70.599
-32.666
6.301
44.413
79.493
109.933
134.419
152.747
165.798
174.215
178.434
179.639
179.544
179.663
181.485
185.82
192.632
201.874
213.436
226.674
240.564
254.301
267.259
279.043
289.574
298.993
307.604
315.751
324.199
332.62
339.284
344.668
350.382
359.243
376.664
402.098
429.848
454.232
467.252
468.37
464.937
462.625
467.587
480.804
496.661
511.715
523.597
531.606
538.017
543.848
549.015
553.581
557.182
559.726
561.513
562.632
563.03
562.715
561.702
559.985
557.561
554.411
550.486
545.778
540.314
534.116
527.201
519.594
511.319
502.409
492.904
482.843
472.263
461.203
449.702
437.801
425.544
412.975
400.14
387.088
373.864
360.518
347.096
333.649
320.224
306.867
293.622
280.534
267.645
254.994
242.62
230.559
218.842
207.499
196.557
186.039
175.964
166.348
157.204
148.54
140.362
132.671
125.466
118.743
112.492
106.702
101.361
96.453
91.96
87.861
84.134
80.755
77.7
74.944
72.458
70.215
68.188
66.349
64.67
63.124
61.684
60.326
59.024
57.757
56.504
55.245
53.964
52.647
51.28
49.855
48.362
46.797
45.156
43.439
41.646
39.782
37.851
35.861
33.82
31.739
29.629
27.503
25.374
23.256
21.163
19.11
17.111
15.181
13.334
11.584
9.945
8.428
7.046
5.808
4.724
3.802
3.047
2.464
2.057
1.826
1.771
1.89
2.18
2.636
3.251
4.018
4.928
5.97
7.135
8.409
9.781
11.237
12.763
14.346
15.972
17.627
19.298
20.97
22.631
24.269
25.869
27.421
28.913
30.335
31.675
32.926
34.078
35.126
36.061
36.88
37.578
38.152
38.599
38.92
39.112
39.177
39.115
38.927
38.617
38.187
37.639
36.976
36.203
35.323
34.338
33.254
32.074
30.801
29.438
27.99
26.46
24.852
23.17
21.417
19.598
17.717
15.779
13.789
11.75
9.669
7.548
5.393
3.209
1.001
-1.226
-3.469
-5.721
-7.978
-10.235
-12.484
-14.721
-16.939
-19.131
-21.291
-23.41
-25.481
-27.497
-29.451
-31.335
-33.144
-34.87
-36.506
-38.049
-39.494
-40.837
-42.077
-43.211
-44.241
-45.169
-45.999
-46.736
-47.386
-47.957
-48.459
-48.906
-49.31
-49.688
-50.056
-50.433
-50.839
-51.299
-51.837
-52.48
-53.257
-54.198
-55.339
-56.717
-58.368
-60.329
-62.637
-65.329
-68.44
-72.006
-76.056
-80.619
-85.721
-91.392
-97.659
-104.547
-112.078
-120.27
-129.14
-138.702
-148.964
-159.926
-171.571
-183.884
-196.851
-210.462
-224.716
-239.592
-255.055
-271.065
-287.58
-304.541
-321.875
-339.483
-357.238
-375.022
-392.733
-410.287
-427.62
-444.643
-461.253
-477.334
-492.777
-507.509
-521.481
-534.63
-546.878
-558.205
-568.657
-578.355
-587.459
-596.06
-604.168
-611.789
-618.99
-625.865
-632.528
-639.102
-645.591
-652.028
-658.582
-665.258
-671.897
-678.155
-683.292
-686.498
-687.238
-684.902
-678.824
-669.037
-655.948
-640.268
-623.48
-607.002
-591.834
-579.104
-569.855
-562.574
-553.734
-541.283
-522.883
-498.619
-472.13
-439.689
-393.321
-326.946
-233.121
-115.305
12.411
138.782
252.145
345.205
418.301
470.293
499.504
505.368
486.721
443.252
376.654
290.435
188.629
76.115
-41.356
-159.475
-274.715
-382.617
-479.668
-563.384
-631.019
-681.613
-716.007
-734.669
-738.733
-730.83
-713.082
-687.514
-657.288
-624.611
-590.876
-558.026
-527.129
-498.116
-471.482
-447.76
-426.312
-406.777
-388.717
-370.812
-352.46
-333.649
-313.857
-292.607
-270.159
-246.804
-223.233
-200.784
-180.175
-161.772
-146.107
-133.477
-123.887
-117.225
-112.984
-110.378
-108.979
-108.551
-108.846
-109.713
-110.924
-112.193
-113.395
-114.495
-115.37
-115.831
-115.681
-114.744
-112.953
-110.352
-107.004
-102.959
-98.245
-92.892
-86.965
-80.552
-73.773
-66.764
-59.616
-52.399
-45.203
-38.116
-31.214
-24.55
-18.127
-11.907
-5.851
0.077
5.909
11.679
17.437
23.237
29.144
35.228
41.536
48.096
54.934
62.064
69.489
77.206
85.191
93.401
101.801
110.351
119.011
127.746
136.511
145.254
153.918
162.439
170.757
178.818
186.571
193.967
200.961
207.505
213.557
219.086
224.064
228.457
232.22
235.296
237.626
239.175
239.936
239.917
239.121
237.551
235.212
232.133
228.358
223.915
218.8
212.975
206.397
199.061
190.996
182.269
172.948
163.065
152.616
141.588
129.997
117.864
105.195
91.948
78.056
63.523
48.452
33.036
17.47
1.887
-13.631
-29.039
-44.274
-59.235
-73.799
-87.857
-101.343
-114.178
-126.243
-137.353
-147.299
-155.978
-163.425
-169.797
-175.24
-179.836
-183.626
-186.635
-188.927
-190.588
-191.695
-192.287
-192.378
-192.021
-191.317
-190.442
-189.585
-188.85
-188.237
-187.668
-187.078
-186.458
-185.816
-185.163
-184.482
-183.756
-183.007
-182.3
-181.706
-181.267
-180.983
-180.819
-180.736
-180.737
-180.864
-181.188
-181.765
-182.628
-183.808
-185.335
-187.253
-189.59
-192.343
-195.481
-198.972
-202.795
-206.94
-211.404
-216.178
-221.238
-226.555
-232.097
-237.833
-243.73
-249.753
-255.86
-262.004
-268.145
-274.251
-280.292
-286.239
-292.059
-297.716
-303.178
-308.413
-313.39
-318.076
-322.44
-326.448
-330.074
-333.294
-336.084
-338.425
-340.297
-341.685
-342.577
-342.961
-342.828
-342.172
-340.989
-339.281
-337.048
-334.295
-331.026
-327.242
-322.957
-318.185
-312.928
-307.192
-300.984
-294.309
-287.194
-279.677
-271.764
-263.461
-254.826
-245.91
-236.758
-227.428
-217.917
-208.194
-198.315
-188.359
-178.203
-167.694
-156.965
-146.03
-134.878
-123.913
-112.133
-98.564
-84.65
-70.843
-59.778
-54.603
-51.871
-49.291
-43.445
-29.626
-12.031
5.782
21.371
30.709
36.651
42.09
47.665
55.138
63.473
71.336
78.971
86.2
93.104
99.943
106.531
112.717
118.544
124.02
129.129
133.877
138.28
142.348
146.119
149.637
152.902
155.91
158.678
161.217
163.543
165.679
167.639
169.433
171.079
172.596
174.012
175.35
176.622
177.83
178.959
180.005
180.978
181.891
182.754
183.578
184.388
185.237
186.224
187.455
189.005
190.906
193.169
195.815
198.876
202.393
206.401
210.881
215.824
221.267
227.252
233.781
240.772
248.003
255.135
261.878
267.954
273.085
277.159
280.166
282.245
283.781
285.202
286.809
288.977
292.077
295.91
299.894
303.085
304.064
301.868
296.15
286.314
271.714
252.876
231.312
209.718
192.06
181.378
179.531
188.907
212.085
250.304
303.351
368.653
441.219
516.724
591.775
661.845
721.575
765.868
790.391
793.281
775.239
736.762
677.961
600.503
507.571
403.665
294.217
183.525
74.578
-28.985
-122.924
-203.862
-269.496
-319.316
-354.635
-376.663
-386.444
-386.156
-378.795
-367.521
-355.377
-344.002
-333.681
-324.748
-317.457
-311.448
-306.032
-300.095
-292.378
-282.615
-271.212
-258.559
-245.146
-231.389
-217.644
-204.529
-192.712
-182.419
-173.574
-165.924
-159.087
-152.841
-147.014
-141.335
-135.469
-129.053
-121.835
-113.716
-104.681
-94.72
-83.812
-71.934
-59.112
-45.464
-31.117
-16.195
-0.809
14.962
31.015
47.221
63.44
79.523
95.362
110.891
126.061
140.827
155.157
169.021
182.414
195.358
207.869
219.949
231.601
242.815
253.597
263.959
273.91
283.457
292.6
301.336
309.662
317.577
325.07
332.13
338.742
344.89
350.564
355.759
360.463
364.663
368.364
371.567
374.272
376.485
378.187
379.352
379.984
380.09
379.625
378.551
376.838
374.443
371.39
367.732
363.434
358.435
352.887
346.972
340.585
333.739
326.479
318.422
310.632
304.143
297.512
290.314
279.887
263.039
243.351
223.22
206.201
197.174
191.882
186.726
179.251
165.379
148.091
130.412
113.047
97.857
83.831
69.658
55.642
41.655
27.836
14.503
1.521
-11.209
-23.598
-35.594
-47.175
-58.298
-68.918
-78.997
-88.478
-97.301
-105.456
-112.931
-119.705
-125.761
-131.088
-135.674
-139.516
-142.617
-144.976
-146.595
-147.483
-147.651
-147.113
-145.888
-143.997
-141.463
-138.313
-134.576
-130.285
-125.472
-120.174
-114.429
-108.275
-101.754
-94.905
-87.772
-80.396
-72.82
-65.086
-57.236
-49.31
-41.348
-33.389
-25.47
-17.627
-9.894
-2.302
5.117
12.335
19.328
26.071
32.544
38.728
44.607
50.168
55.399
60.293
64.841
69.042
72.893
76.395
79.55
82.363
84.84
86.989
88.82
90.344
91.572
92.517
93.192
93.611
93.789
93.738
93.473
93.008
92.357
91.533
90.549
89.417
88.149
86.755
85.246
83.63
81.915
80.106
78.21
76.23
74.169
72.03
69.815
67.522
65.153
62.706
60.178
57.568
54.871
52.085
49.204
46.226
43.145
39.96
36.665
33.259
29.741
26.11
22.366
18.509
14.541
10.464
6.282
1.999
-2.38
-6.847
-11.396
-16.017
-20.697
-25.424
-30.184
-34.962
-39.74
-44.503
-49.231
-53.907
-58.511
-63.025
-67.428
-71.699
-75.819
-79.765
-83.516
-87.053
-90.354
-93.401
-96.176
-98.662
-100.847
-102.717
-104.264
-105.477
-106.349
-106.874
-107.047
-106.864
-106.327
-105.437
-104.196
-102.614
-100.701
-98.476
-95.958
-93.17
-90.132
-86.87
-83.41
-79.777
-75.994
-72.083
-68.064
-63.961
-59.801
-55.611
-51.415
-47.243
-43.121
-39.077
-35.137
-31.323
-27.651
-24.14
-20.801
-17.653
-14.715
-12.011
-9.577
-7.438
-5.611
-4.112
-2.947
-2.109
-1.577
-1.315
-1.265
-1.365
-1.55
-1.754
-1.91
-1.967
-1.89
-1.626
-1.11
-0.308
0.817
2.27
4.037
6.134
8.559
11.237
14.032
16.745
19.138
21.015
22.146
22.255
21.232
19.094
16.033
12.544
9.115
6.121
4.057
3.473
4.542
6.968
9.926
11.955
11.676
8.29
1.127
-10.604
-26.967
-46.678
-67.2
-84.579
-94.45
-93.639
-79.395
-48.469
1.223
69.674
155.009
252.618
356.397
461.289
561.902
651.406
723.752
774.132
799.092
798.311
773.026
723.896
653.002
564.495
463.105
354.437
244.151
136.12
34.13
-57.209
-134.333
-194.955
-238.223
-265.258
-277.912
-277.688
-266.914
-248.937
-227.177
-204.972
-184.438
-166.188
-150.413
-137.246
-126.439
-117.298
-108.749
-99.489
-88.958
-77.374
-65.131
-52.719
-40.563
-29.032
-18.68
-10.166
-3.78
0.558
3.089
4.205
4.264
3.528
2.343
1.136
0.231
-0.162
0.071
0.931
2.41
4.537
7.303
10.658
14.522
18.793
23.37
28.175
33.11
38.062
42.906
47.497
51.735
55.558
58.93
61.836
64.273
66.238
67.75
68.851
69.578
69.964
70.038
69.821
69.345
68.648
67.774
66.766
65.656
64.474
63.246
61.997
60.751
59.525
58.333
57.184
56.091
55.07
54.14
53.315
52.611
52.037
51.604
51.322
51.197
51.232
51.424
51.771
52.267
52.907
53.682
54.583
55.598
56.713
57.914
59.186
60.512
61.874
63.252
64.626
65.976
67.283
68.526
69.685
70.738
71.667
72.451
73.073
73.515
73.759
73.789
73.589
73.148
72.452
71.491
70.256
68.741
66.94
64.852
62.475
59.812
56.865
53.638
50.139
46.375
42.356
38.094
33.601
28.89
23.977
18.879
13.612
8.196
2.648
-3.01
-8.759
-14.579
-20.448
-26.346
-32.251
-38.142
-44
-49.802
-55.53
-61.165
-66.688
-72.08
-77.327
-82.411
-87.319
-92.036
-96.55
-100.851
-104.926
-108.769
-112.37
-115.723
-118.823
-121.667
-124.251
-126.574
-128.635
-130.437
-131.982
-133.272
-134.314
-135.113
-135.676
-136.011
-136.129
-136.039
-135.753
-135.282
-134.64
-133.841
-132.897
-131.823
-130.635
-129.346
-127.973
-126.529
-125.031
-123.494
-121.932
-120.361
-118.795
-117.247
-115.733
-114.265
-112.856
-111.517
-110.26
-109.096
-108.034
-107.083
-106.251
-105.544
-104.97
-104.531
-104.232
-104.074
-104.06
-104.187
-104.455
-104.861
-105.401
-106.068
-106.858
-107.763
-108.773
-109.88
-111.072
-112.339
-113.668
-115.046
-116.458
-117.891
-119.329
-120.757
-122.161
-123.523
-124.829
-126.063
-127.211
-128.257
-129.186
-129.984
-130.638
-131.134
-131.461
-131.606
-131.559
-131.311
-130.853
-130.178
-129.28
-128.155
-126.798
-125.208
-123.384
-121.326
-119.036
-116.516
-113.772
-110.81
-107.636
-104.262
-100.697
-96.953
-93.044
-88.983
-84.785
-80.466
-76.041
-71.526
-66.936
-62.286
-57.593
-52.872
-48.14
-43.41
-38.7
-34.024
-29.398
-24.834
-20.347
-15.947
-11.648
-7.459
-3.391
0.548
4.349
8.005
11.508
14.851
18.03
21.039
23.877
26.544
29.042
31.372
33.539
35.546
37.398
39.102
40.658
42.067
43.327
44.436
45.395
46.205
46.866
47.378
47.747
47.978
48.08
48.061
47.927
47.684
47.335
46.887
46.345
45.712
44.992
44.19
43.308
42.349
41.318
40.211
39.022
37.738
36.331
34.778
33.064
31.168
29.081
26.805
24.353
21.762
19.096
16.414
13.79
11.303
9.021
7.02
5.357
4.07
3.208
2.814
2.909
3.519
4.659
6.276
8.297
10.579
12.882
14.971
16.573
17.343
16.876
14.895
11.356
6.463
0.682
-5.561
-12.025
-18.374
-24.043
-28.736
-32.748
-36.956
-42.932
-52.09
-64.896
-81.546
-102.337
-126.903
-153.842
-180.496
-202.616
-215.748
-216.783
-203.331
-173.085
-124.525
-57.5
26.314
122.865
226.667
332.765
436.669
533.197
616.942
683.238
728.377
750.339
749.18
725.13
678.236
610.271
524.523
424.702
315.538
202.358
89.23
-19.568
-118.535
-205.013
-277.632
-333.131
-371.178
-390.483
-388.892
-371.946
-345.289
-315.029
-288.279
-263.436
-238.547
-212.224
-181.992
-151.847
-124.858
-102.393
-87.042
-77.339
-71.65
-69.677
-69.865
-71.701
-75.474
-80.524
-86.044
-91.904
-97.932
-104.365
-112.075
-121.274
-131.651
-142.978
-155.075
-167.717
-180.765
-193.867
-206.279
-217.5
-227.246
-235.247
-241.423
-245.722
-248.049
-248.437
-247.092
-244.237
-240.158
-235.21
-229.59
-223.432
-216.861
-209.927
-202.705
-195.283
-187.708
-180.017
-172.255
-164.462
-156.688
-148.991
-141.38
-133.828
-126.274
-118.612
-110.784
-102.77
-94.556
-86.155
-77.577
-68.836
-59.969
-51.033
-42.068
-33.105
-24.162
-15.248
-6.384
2.398
11.064
19.576
27.899
36.006
43.87
51.464
58.768
65.768
72.454
78.829
84.887
90.623
96.03
101.098
105.822
110.195
114.213
117.867
121.153
124.07
126.618
128.798
130.613
132.065
133.158
133.895
134.279
134.316
134.008
133.358
132.369
131.047
129.395
127.417
125.119
122.506
119.583
116.358
112.836
109.025
104.93
100.558
95.915
91.011
85.853
80.45
74.814
68.954
62.883
56.616
50.164
43.543
36.766
29.849
22.806
15.654
8.41
1.092
-6.283
-13.695
-21.123
-28.548
-35.948
-43.302
-50.588
-57.785
-64.871
-71.825
-78.626
-85.252
-91.685
-97.903
-103.889
-109.624
-115.091
-120.275
-125.162
-129.738
-133.994
-137.918
-141.504
-144.746
-147.639
-150.18
-152.369
-154.207
-155.696
-156.841
-157.649
-158.129
-158.29
-158.145
-157.708
-156.994
-156.02
-154.802
-153.362
-151.717
-149.889
-147.899
-145.768
-143.518
-141.17
-138.747
-136.269
-133.757
-131.232
-128.713
-126.218
-123.765
-121.37
-119.048
-116.814
-114.68
-112.658
-110.758
-108.987
-107.354
-105.864
-104.52
-103.326
-102.282
-101.387
-100.639
-100.034
-99.568
-99.234
-99.024
-98.932
-98.946
-99.057
-99.255
-99.528
-99.866
-100.255
-100.686
-101.145
-101.622
-102.106
-102.586
-103.052
-103.494
-103.902
-104.268
-104.584
-104.842
-105.034
-105.155
-105.199
-105.161
-105.037
-104.825
-104.521
-104.123
-103.631
-103.044
-102.362
-101.587
-100.719
-99.762
-98.719
-97.592
-96.387
-95.107
-93.758
-92.343
-90.867
-89.336
-87.753
-86.123
-84.451
-82.741
-80.997
-79.223
-77.425
-75.607
-73.771
-71.924
-70.067
-68.204
-66.339
-64.474
-62.61
-60.75
-58.894
-57.046
-55.208
-53.382
-51.568
-49.768
-47.983
-46.215
-44.463
-42.727
-41.006
-39.299
-37.605
-35.922
-34.25
-32.586
-30.929
-29.277
-27.628
-25.98
-24.331
-22.675
-21.008
-19.324
-17.621
-15.892
-14.132
-12.336
-10.502
-8.627
-6.714
-4.763
-2.771
-0.736
1.343
3.47
5.649
7.889
10.205
12.609
15.108
17.709
20.415
23.235
26.176
29.244
32.446
35.786
39.275
42.925
46.759
50.784
55.005
59.409
63.972
68.676
73.518
78.5
83.627
88.917
94.391
100.096
106.108
112.486
119.275
126.506
134.189
142.349
151.024
160.249
170.064
180.492
191.521
203.108
215.197
227.685
240.441
253.316
266.087
278.532
290.446
301.62
311.858
320.976
328.752
334.92
339.322
341.932
342.893
342.651
341.746
340.712
340.16
340.738
342.912
346.881
352.244
357.789
362.132
363.881
362.911
360.521
357.494
355.116
352.221
344.861
333.571
321.9
318.536
339.236
393.472
481.292
596.045
720.927
838.577
940.686
1021.75
1080.056
1119.718
1140.67
1142.106
1125.567
1087.997
1027.674
945.644
843.846
728.646
605.341
477.177
345.465
208.222
70.314
-58.112
-167.42
-246.023
-292.39
-315.487
-322.647
-322.41
-318.856
-308.823
-292.156
-270.544
-246.112
-222.643
-202.18
-185.005
-171.216
-160.709
-152.728
-145.76
-138.386
-129.97
-120.38
-109.852
-98.406
-85.514
-71.201
-56.362
-42.103
-29.169
-17.758
-7.647
1.298
8.875
15.092
20.359
25.376
30.828
37.054
44.098
51.919
60.536
69.985
80.233
91.121
102.424
113.975
125.66
137.421
149.208
160.907
172.376
183.461
194.011
203.933
213.172
221.683
229.438
236.428
242.651
248.131
252.915
257.034
260.512
263.367
265.609
267.261
268.358
268.938
269.041
268.696
267.931
266.77
265.238
263.358
261.151
258.632
255.815
252.718
249.361
245.771
241.972
237.99
233.846
229.565
225.171
220.684
216.126
211.514
206.867
202.198
197.524
192.86
188.218
183.612
179.051
174.546
170.105
165.737
161.448
157.244
153.128
149.105
145.177
141.346
137.612
133.976
130.436
126.99
123.637
120.372
117.191
114.088
111.057
108.09
105.179
102.316
99.49
96.692
93.913
91.142
88.37
85.588
82.785
79.953
77.084
74.168
71.199
68.169
65.072
61.902
58.656
55.329
51.921
48.428
44.851
41.191
37.449
33.628
29.732
25.768
21.742
17.661
13.536
9.377
5.197
1.008
-3.176
-7.338
-11.463
-15.533
-19.531
-23.439
-27.238
-30.909
-34.432
-37.791
-40.966
-43.939
-46.695
-49.217
-51.49
-53.501
-55.237
-56.689
-57.845
-58.7
-59.246
-59.479
-59.396
-58.996
-58.282
-57.255
-55.921
-54.287
-52.361
-50.155
-47.68
-44.952
-41.985
-38.798
-35.41
-31.841
-28.113
-24.248
-20.272
-16.209
-12.083
-7.922
-3.751
0.403
4.516
8.56
12.511
16.345
20.037
23.564
26.905
30.038
32.944
35.603
38
40.119
41.944
43.465
44.669
45.548
46.094
46.302
46.166
45.684
44.855
43.679
42.159
40.297
38.1
35.574
32.726
29.565
26.103
22.35
18.319
14.023
9.476
4.693
-0.311
-5.519
-10.917
-16.488
-22.215
-28.082
-34.074
-40.173
-46.365
-52.632
-58.961
-65.335
-71.739
-78.161
-84.586
-91.001
-97.395
-103.754
-110.068
-116.328
-122.523
-128.644
-134.681
-140.628
-146.476
-152.219
-157.852
-163.369
-168.766
-174.041
-179.191
-184.216
-189.114
-193.885
-198.529
-203.045
-207.435
-211.698
-215.836
-219.849
-223.739
-227.508
-231.159
-234.695
-238.12
-241.435
-244.645
-247.75
-250.756
-253.665
-256.478
-259.198
-261.828
-264.372
-266.835
-269.222
-271.54
-273.792
-275.984
-278.12
-280.206
-282.244
-284.237
-286.188
-288.099
-289.975
-291.821
-293.644
-295.453
-297.256
-299.065
-300.887
-302.732
-304.605
-306.51
-308.449
-310.423
-312.428
-314.466
-316.534
-318.629
-320.754
-322.91
-325.098
-327.316
-329.56
-331.822
-334.096
-336.383
-338.669
-340.948
-343.215
-345.473
-347.744
-350.048
-352.39
-354.772
-357.19
-359.623
-362.058
-364.467
-366.78
-368.925
-370.823
-372.388
-373.59
-374.415
-374.824
-374.776
-374.222
-373.106
-371.441
-369.256
-366.522
-363.238
-359.432
-355.181
-350.729
-346.357
-342.313
-338.886
-336.346
-334.834
-334.399
-334.917
-336.001
-337.241
-338.264
-338.618
-337.859
-335.807
-332.753
-329.5
-327.299
-327.41
-330.571
-337.269
-348.166
-363.368
-381.753
-401.058
-417.672
-427.49
-427.616
-415.753
-389.055
-345.516
-284.742
-207.892
-118.899
-23.261
74.658
170.497
258.55
333.363
389.895
423.845
434.124
421.289
384.947
325.767
246.093
149.99
44.372
-64.87
-174.777
-284.199
-393.104
-496.25
-584.565
-649.699
-683.363
-686.379
-666.717
-631.213
-589.244
-545.644
-498.98
-450.244
-400.049
-349.706
-304.158
-266.555
-237.238
-215.994
-201.435
-191.645
-185.635
-182.148
-178.833
-173.759
-166.004
-155.106
-141.313
-125.391
-107.786
-89.194
-70.944
-54.04
-38.991
-26.032
-14.884
-5.062
3.695
11.741
19.603
27.58
35.836
44.436
53.213
61.983
70.647
79.069
87.116
94.726
101.819
108.33
114.22
119.421
123.881
127.581
130.505
132.655
134.048
134.706
134.676
134.021
132.791
131.031
128.782
126.077
122.963
119.495
115.725
111.709
107.499
103.143
98.695
94.201
89.701
85.231
80.819
76.493
72.282
68.216
64.323
60.629
57.155
53.923
50.949
48.248
45.829
43.695
41.85
40.29
39.013
38.013
37.281
36.807
36.577
36.577
36.788
37.192
37.767
38.49
39.336
40.283
41.304
42.375
43.47
44.564
45.633
46.652
47.6
48.454
49.192
49.796
50.248
50.531
50.631
50.535
50.234
49.718
48.98
48.017
46.825
45.404
43.757
41.885
39.794
37.49
34.983
32.282
29.399
26.346
23.138
19.789
16.315
12.732
9.058
5.31
1.506
-2.338
-6.203
-10.073
-13.931
-17.761
-21.547
-25.273
-28.926
-32.493
-35.96
-39.316
-42.551
-45.653
-48.615
-51.427
-54.083
-56.575
-58.898
-61.046
-63.017
-64.805
-66.409
-67.828
-69.059
-70.102
-70.959
-71.629
-72.114
-72.416
-72.536
-72.478
-72.244
-71.837
-71.26
-70.516
-69.607
-68.538
-67.311
-65.929
-64.396
-62.713
-60.885
-58.913
-56.801
-54.552
-52.169
-49.656
-47.016
-44.254
-41.373
-38.38
-35.277
-32.072
-28.77
-25.378
-21.901
-18.347
-14.723
-11.038
-7.299
-3.516
0.304
4.15
8.014
11.884
15.751
19.603
23.431
27.221
30.964
34.646
38.257
41.783
45.213
48.534
51.735
54.803
57.727
60.496
63.099
65.526
67.768
69.815
71.66
73.296
74.717
75.917
76.894
77.643
78.163
78.452
78.51
78.336
77.933
77.302
76.445
75.366
74.07
72.562
70.847
68.932
66.825
64.533
62.064
59.429
56.637
53.697
50.622
47.421
44.107
40.692
37.189
33.608
29.964
26.268
22.531
18.764
14.98
11.187
7.397
3.618
-0.141
-3.869
-7.558
-11.198
-14.78
-18.294
-21.733
-25.086
-28.345
-31.502
-34.55
-37.483
-40.293
-42.974
-45.52
-47.924
-50.183
-52.29
-54.243
-56.037
-57.669
-59.14
-60.448
-61.595
-62.582
-63.411
-64.082
-64.598
-64.96
-65.17
-65.231
-65.147
-64.921
-64.56
-64.073
-63.472
-62.773
-61.99
-61.138
-60.231
-59.288
-58.32
-57.339
-56.356
-55.376
-54.411
-53.468
-52.557
-51.687
-50.871
-50.117
-49.437
-48.837
-48.322
-47.902
-47.582
-47.365
-47.256
-47.264
-47.405
-47.709
-48.201
-48.895
-49.798
-50.912
-52.219
-53.699
-55.311
-56.984
-58.642
-60.2
-61.568
-62.684
-63.499
-63.965
-64.033
-63.642
-62.735
-61.305
-59.361
-56.904
-53.972
-50.609
-46.905
-43.06
-39.321
-35.935
-33.222
-31.507
-30.93
-31.53
-33.244
-35.825
-38.979
-42.376
-45.454
-47.539
-48.424
-48.285
-47.487
-46.959
-47.763
-50.614
-56.494
-65.458
-75.672
-85.49
-93.921
-102.084
-112.508
-124.085
-130.393
-119.527
-80.14
-8.898
89.519
204.848
327.312
450.784
569.435
673.901
752.565
797.547
808.542
794.006
765.335
728.634
683.672
626.978
556.524
474.282
385.359
295.12
206.539
121.622
42.721
-28.312
-89.158
-137.714
-173.553
-196.222
-204.902
-199.592
-181.192
-151.336
-112.872
-69.301
-23.195
22.747
65.393
102.317
131.552
151.932
163.791
168.546
167.465
162.25
155.15
147.861
142.045
138.931
138.643
140.747
144.74
149.733
154.591
158.631
161.216
161.989
161.189
159.117
156.1
152.648
149.272
146.274
143.882
142.173
141.021
140.348
140.073
140.072
140.248
140.519
140.82
141.111
141.365
141.562
141.697
141.77
141.792
141.786
141.781
141.821
141.964
142.25
142.712
143.376
144.257
145.375
146.757
148.42
150.382
152.656
155.251
158.173
161.43
165.015
168.918
173.119
177.593
182.319
187.277
192.445
197.798
203.311
208.956
214.703
220.526
226.391
232.262
238.102
243.873
249.537
255.059
260.404
265.537
270.424
275.034
279.338
283.308
286.918
290.143
292.96
295.351
297.299
298.79
299.813
300.361
300.427
300.011
299.114
297.742
295.901
293.602
290.858
287.685
284.1
280.124
275.779
271.091
266.084
260.788
255.232
249.446
243.462
237.312
231.027
224.64
218.182
211.683
205.175
198.685
192.244
185.877
179.61
173.469
167.476
161.652
156.015
150.583
145.37
140.389
135.651
131.163
126.932
122.962
119.255
115.812
112.632
109.711
107.044
104.625
102.447
100.501
98.777
97.265
95.954
94.832
93.887
93.107
92.48
91.995
91.639
91.402
91.271
91.236
91.286
91.412
91.605
91.856
92.158
92.504
92.889
93.308
93.756
94.231
94.73
95.251
95.793
96.354
96.935
97.536
98.157
98.799
99.463
100.149
100.859
101.592
102.349
103.128
103.929
104.749
105.585
106.434
107.291
108.152
109.009
109.857
110.688
111.492
112.261
112.983
113.649
114.246
114.762
115.184
115.499
115.693
115.755
115.669
115.424
115.007
114.405
113.606
112.599
111.375
109.923
108.235
106.304
104.126
101.696
99.013
96.075
92.886
89.448
85.768
81.853
77.711
73.356
68.801
64.062
59.155
54.101
48.921
43.638
38.275
32.858
27.414
21.968
16.549
11.183
5.9
0.727
-4.309
-9.179
-13.858
-18.318
-22.536
-26.486
-30.146
-33.496
-36.516
-39.19
-41.501
-43.437
-44.986
-46.141
-46.895
-47.244
-47.188
-46.728
-45.868
-44.617
-42.986
-40.985
-38.631
-35.941
-32.934
-29.631
-26.055
-22.229
-18.177
-13.924
-9.499
-4.929
-0.241
4.536
9.374
14.245
19.12
23.972
28.774
33.5
38.126
42.628
46.981
51.162
55.152
58.931
62.481
65.783
68.822
71.585
74.061
76.242
78.122
79.696
80.96
81.914
82.556
82.887
82.907
82.611
81.997
81.067
79.822
78.265
76.4
74.233
71.771
69.028
66.017
62.749
59.231
55.471
51.479
47.269
42.854
38.246
33.459
28.509
23.418
18.215
12.916
7.53
2.056
-3.523
-9.208
-14.988
-20.854
-26.793
-32.785
-38.8
-44.782
-50.645
-56.317
-61.737
-66.856
-71.637
-76.011
-79.889
-83.183
-85.806
-87.713
-88.901
-89.339
-89.009
-87.942
-86.182
-83.876
-81.246
-78.462
-75.692
-73.122
-70.919
-69.372
-68.867
-69.6
-71.601
-74.727
-78.602
-82.9
-87.373
-91.517
-94.596
-96.166
-96.2
-95.106
-94.045
-94.307
-96.643
-101.819
-109.804
-118.862
-127.077
-133.152
-137.838
-143.378
-149.557
-150.947
-135.168
-89.439
-8.909
101.518
226.94
351.103
465.049
566.37
656.134
734.362
798.195
841.562
859.185
850.474
815.569
759.591
690.437
609.327
514.745
399.751
258.199
98.264
-60.594
-190.882
-272.498
-304.455
-300.382
-284.055
-272.959
-271.876
-278.556
-285.598
-288.814
-289.079
-288.449
-289.491
-292.793
-296.968
-300.037
-299.891
-295.508
-286.895
-274.629
-259.709
-243.147
-225.855
-208.777
-192.8
-178.44
-165.858
-154.954
-145.43
-136.981
-129.343
-122.25
-115.465
-108.858
-102.34
-95.782
-89.129
-82.325
-75.325
-68.233
-61.197
-54.377
-48.036
-42.499
-38.063
-35.03
-33.668
-34.15
-36.608
-41.123
-47.721
-56.426
-67.194
-79.919
-94.445
-110.517
-127.872
-146.266
-165.407
-184.968
-204.656
-224.195
-243.347
-261.958
-279.893
-297.043
-313.335
-328.719
-343.188
-356.785
-369.588
-381.726
-393.303
-404.391
-415.068
-425.41
-435.474
-445.303
-454.91
-464.261
-473.327
-482.083
-490.495
-498.526
-506.125
-513.222
-519.738
-525.583
-530.689
-535.013
-538.519
-541.185
-543.001
-543.964
-544.093
-543.428
-542.001
-539.84
-536.974
-533.428
-529.234
-524.43
-519.055
-513.148
-506.749
-499.889
-492.602
-484.919
-476.868
-468.475
-459.762
-450.746
-441.446
-431.886
-422.086
-412.07
-401.861
-391.478
-380.942
-370.272
-359.484
-348.595
-337.614
-326.552
-315.418
-304.218
-292.961
-281.653
-270.298
-258.901
-247.468
-236.001
-224.505
-212.982
-201.435
-189.866
-178.278
-166.673
-155.053
-143.423
-131.784
-120.14
-108.493
-96.848
-85.209
-73.578
-61.959
-50.354
-38.766
-27.206
-15.679
-4.194
7.244
18.632
29.962
41.215
52.385
63.484
74.517
85.493
96.403
107.209
117.893
128.478
138.935
149.184
159.162
168.8
178.078
187.067
195.789
204.143
212.197
220.272
228.451
236.614
244.793
252.647
260.731
271.12
283.533
295.975
305.448
306.05
297.653
286.286
277.788
280.481
295.546
314.966
332.499
341.608
340.622
335.489
330.025
326.638
326.286
326.562
326.245
325.447
324.065
322.451
320.732
318.578
315.88
312.701
309.039
304.881
300.248
295.16
289.655
283.797
277.616
271.096
264.24
257.063
249.575
241.793
233.731
225.394
216.796
207.957
198.897
189.633
180.185
170.572
160.814
150.931
140.945
130.879
120.752
110.588
100.408
90.234
80.089
69.992
59.967
50.033
40.213
30.526
20.993
11.634
2.467
-6.488
-15.213
-23.691
-31.905
-39.838
-47.476
-54.804
-61.807
-68.473
-74.79
-80.748
-86.337
-91.551
-96.383
-100.828
-104.884
-108.549
-111.822
-114.705
-117.2
-119.308
-121.034
-122.382
-123.358
-123.969
-124.221
-124.124
-123.689
-122.927
-121.851
-120.474
-118.811
-116.877
-114.688
-112.261
-109.613
-106.764
-103.73
-100.534
-97.195
-93.737
-90.181
-86.551
-82.868
-79.154
-75.431
-71.719
-68.039
-64.409
-60.849
-57.379
-54.019
-50.792
-47.718
-44.82
-42.122
-39.647
-37.415
-35.446
-33.756
-32.356
-31.26
-30.474
-30.004
-29.852
-30.022
-30.512
-31.326
-32.462
-33.918
-35.684
-37.752
-40.108
-42.745
-45.651
-48.806
-52.197
-55.812
-59.648
-63.72
-68.031
-72.569
-77.321
-82.269
-87.381
-92.628
-97.962
-103.293
-108.539
-113.612
-118.429
-122.96
-127.173
-131.013
-134.425
-137.339
-139.706
-141.543
-142.857
-143.603
-143.776
-143.401
-142.587
-141.608
-140.725
-140.152
-140.135
-140.9
-142.565
-145.152
-148.493
-152.169
-155.722
-158.773
-160.91
-161.734
-161.168
-159.618
-157.914
-157.332
-159.183
-164.237
-173.112
-186.561
-204.497
-225.553
-247.259
-265.821
-277.207
-278.533
-267.117
-239.912
-195.128
-132.872
-55.289
32.815
125.677
218.467
305.84
381.515
439.937
476.755
489.657
479.233
447.267
395.176
325.603
242.557
150.334
53.712
-43.271
-138.096
-228.352
-310.938
-383.439
-444.158
-491.82
-526.529
-548.735
-558.624
-557.275
-546.906
-529.876
-508.736
-485.982
-462.86
-440.153
-418.723
-398.742
-379.747
-361.143
-342.004
-321.468
-299.612
-276.848
-253.505
-230.098
-207.075
-184.845
-164.085
-145.441
-129.142
-115.215
-103.549
-93.962
-86.468
-81.037
-77.411
-75.186
-73.861
-72.979
-72.294
-71.67
-70.975
-70.107
-68.961
-67.49
-65.76
-63.814
-61.658
-59.24
-56.41
-53.081
-49.288
-45.13
-40.796
-36.499
-32.356
-28.454
-24.881
-21.674
-18.852
-16.407
-14.25
-12.305
-10.532
-8.922
-7.511
-6.326
-5.333
-4.479
-3.681
-2.83
-1.847
-0.657
0.823
2.653
4.87
7.502
10.54
13.965
17.775
21.977
26.581
31.607
37.053
42.913
49.177
55.824
62.831
70.171
77.809
85.71
93.843
102.178
110.689
119.356
128.151
137.044
146.004
154.996
163.986
172.936
181.81
190.565
199.166
207.575
215.759
223.685
231.322
238.643
245.618
252.223
258.435
264.232
269.594
274.506
278.95
282.916
286.391
289.369
291.842
293.809
295.268
296.219
296.666
296.611
296.062
295.025
293.509
291.524
289.081
286.192
282.874
279.14
275.01
270.501
265.633
260.424
254.896
249.067
242.958
236.593
229.99
223.165
216.134
208.916
201.529
193.996
186.332
178.543
170.652
162.693
154.696
146.692
138.696
130.693
122.693
114.74
106.823
98.889
90.899
82.807
74.619
66.434
58.283
50.087
41.953
34.221
26.963
20.093
13.662
7.314
1.751
-0.973
-1.362
-1.258
-3.813
-14.862
-33.856
-54.977
-72.358
-77.684
-70.674
-59.13
-49.064
-47.048
-54.028
-64.148
-73.88
-80.738
-84.057
-86.232
-88.302
-90.199
-92.003
-93.351
-94.172
-94.79
-95.304
-95.666
-95.894
-96.009
-96.007
-95.885
-95.621
-95.17
-94.526
-93.727
-92.79
-91.725
-90.545
-89.261
-87.885
-86.441
-84.942
-83.4
-81.826
-80.233
-78.636
-77.049
-75.485
-73.958
-72.48
-71.062
-69.717
-68.456
-67.287
-66.222
-65.267
-64.43
-63.717
-63.132
-62.682
-62.367
-62.192
-62.156
-62.261
-62.505
-62.886
-63.404
-64.052
-64.829
-65.727
-66.742
-67.867
-69.094
-70.413
-71.817
-73.294
-74.835
-76.427
-78.059
-79.718
-81.391
-83.066
-84.729
-86.367
-87.967
-89.516
-91
-92.407
-93.724
-94.939
-96.041
-97.018
-97.86
-98.556
-99.097
-99.474
-99.68
-99.705
-99.541
-99.182
-98.62
-97.85
-96.863
-95.654
-94.217
-92.548
-90.643
-88.501
-86.119
-83.493
-80.625
-77.513
-74.159
-70.564
-66.728
-62.653
-58.342
-53.799
-49.029
-44.036
-38.824
-33.4
-27.77
-21.943
-15.927
-9.731
-3.364
3.167
9.848
16.666
23.607
30.656
37.796
45.007
52.263
59.539
66.809
74.047
81.227
88.325
95.311
102.164
108.861
115.384
121.709
127.811
133.659
139.226
144.489
149.426
154.012
158.222
162.031
165.427
168.404
170.953
173.051
174.669
175.764
176.309
176.298
175.732
174.611
172.947
170.76
168.098
165.044
161.67
158.031
154.16
150.079
145.837
141.521
137.23
133.05
129.035
125.194
121.534
118.081
114.817
111.679
108.558
105.278
101.694
97.721
93.287
88.294
82.621
76.055
68.298
59.235
48.983
37.792
26.081
14.291
2.806
-7.789
-16.577
-22.984
-27.165
-29.722
-31.728
-34.497
-38.869
-45.344
-54.959
-67.184
-79.034
-88.799
-94.551
-95.206
-93.385
-86.134
-65.475
-24.077
46.259
144.054
257.783
375.957
487.045
585.549
671.855
744.182
800.63
838.5
853.979
846.745
817.741
767.706
699.229
615.484
519.656
415.961
308.822
201.64
97.982
2.134
-82.569
-153.663
-209.18
-248.736
-273.219
-283.477
-280.854
-268.038
-247.618
-221.799
-193.157
-163.543
-133.979
-105.9
-80.821
-59.183
-41.391
-28.175
-19.423
-14.957
-14.783
-17.992
-23.129
-29.385
-35.931
-41.668
-46.187
-49.215
-50.443
-50.329
-49.722
-49.025
-48.546
-48.577
-49.012
-49.763
-50.809
-51.789
-52.21
-51.806
-50.413
-47.988
-44.686
-40.619
-35.853
-30.531
-24.826
-18.873
-12.807
-6.728
-0.664
5.362
11.318
17.185
22.941
28.574
34.097
39.541
44.928
50.268
55.569
60.828
66.049
71.246
76.428
81.599
86.755
91.891
97.004
102.093
107.158
112.193
117.182
122.11
126.964
131.736
136.419
141.005
145.485
149.849
154.089
158.198
162.166
165.982
169.629
173.094
176.36
179.413
182.241
184.829
187.162
189.228
191.015
192.513
193.71
194.597
195.163
195.4
195.301
194.86
194.072
192.932
191.439
189.589
187.384
184.825
181.914
178.653
175.049
171.107
166.834
162.241
157.336
152.133
146.644
140.884
134.87
128.62
122.152
115.487
108.644
101.644
94.51
87.262
79.922
72.512
65.052
57.564
50.069
42.586
35.136
27.738
20.409
13.168
6.031
-0.986
-7.869
-14.603
-21.176
-27.577
-33.794
-39.817
-45.639
-51.252
-56.648
-61.822
-66.771
-71.49
-75.978
-80.232
-84.253
-88.041
-91.597
-94.923
-98.019
-100.888
-103.533
-105.961
-108.173
-110.176
-111.971
-113.558
-114.947
-116.146
-117.148
-117.95
-118.549
-118.938
-119.131
-119.148
-118.979
-118.611
-118.084
-117.426
-116.663
-115.83
-114.904
-113.836
-112.661
-111.436
-110.026
-108.27
-106.273
-104.031
-101.517
-99.095
-95.81
-90.736
-85.214
-79.658
-76.526
-78.762
-83.128
-87.468
-88.571
-82.02
-71.742
-61.068
-52.283
-49.16
-49.022
-49.157
-48.972
-46.819
-43.674
-40.786
-37.932
-35.279
-32.755
-30.118
-27.542
-25.166
-22.954
-20.902
-19.034
-17.349
-15.842
-14.512
-13.337
-12.29
-11.383
-10.625
-10.011
-9.54
-9.207
-9.006
-8.936
-8.994
-9.174
-9.465
-9.862
-10.356
-10.938
-11.601
-12.335
-13.132
-13.981
-14.874
-15.802
-16.757
-17.728
-18.709
-19.691
-20.667
-21.629
-22.571
-23.487
-24.371
-25.218
-26.023
-26.782
-27.491
-28.149
-28.752
-29.299
-29.788
-30.218
-30.59
-30.902
-31.155
-31.349
-31.487
-31.569
-31.597
-31.575
-31.505
-31.39
-31.233
-31.039
-30.811
-30.551
-30.265
-29.955
-29.625
-29.278
-28.919
-28.55
-28.174
-27.794
-27.414
-27.035
-26.66
-26.291
-25.927
-25.572
-25.225
-24.888
-24.56
-24.244
-23.938
-23.644
-23.363
-23.093
-22.836
-22.589
-22.35
-22.119
-21.892
-21.668
-21.444
-21.216
-20.981
-20.736
-20.484
-20.225
-19.959
-19.685
-19.395
-19.089
-18.776
-18.451
-18.093
-17.687
-17.217
-16.681
-16.108
-15.51
-14.859
-14.177
-13.533
-12.98
-12.574
-12.335
-12.186
-12.088
-12.127
-12.228
-12.062
-11.559
-10.854
-9.903
-9.022
-7.715
-3.961
1.965
8.063
11.432
6.321
-7.483
-24.08
-37.571
-39.591
-28.997
-13.686
0.216
5.912
2.713
-2.53
-7.417
-10.002
-11.888
-18.539
-27.783
-37.243
-43.633
-41.945
-36.154
-30.047
-26.094
-28.141
-33.296
-38.645
-43.474
-45.963
-47.057
-47.971
-48.408
-48.52
-48.161
-47.024
-45.298
-43.147
-40.597
-37.708
-34.478
-30.954
-27.3
-23.71
-20.435
-17.734
-15.702
-14.429
-14.284
-15.506
-17.943
-21.343
-25.074
-28.15
-31.205
-34.774
-37.124
-37.98
-35.024
-25.886
-15.499
-7.149
-4.924
-14.346
-31.059
-50.232
-67.492
-75.763
-74.399
-63.865
-42.673
-10.118
35.9
96.192
168.615
249.284
333.458
417.225
496.733
567.049
623.735
663.127
682.57
681.82
661.295
620.792
561.25
485.232
396.083
298.275
196.726
95.116
-2.729
-92.114
-169.128
-230.9
-275.84
-304.418
-318.195
-318.671
-308.286
-290.488
-268.798
-246.712
-226.624
-209.399
-195.357
-184.626
-176.715
-170.72
-165.405
-159.325
-151.921
-143.392
-134.07
-124.454
-115.012
-106.16
-98.531
-92.827
-89.314
-87.932
-88.443
-90.454
-93.719
-98.053
-103.173
-108.74
-114.389
-119.861
-125.046
-129.913
-134.432
-138.55
-142.213
-145.407
-148.205
-150.691
-152.937
-155.001
-156.91
-158.71
-160.474
-162.284
-164.228
-166.36
-168.689
-171.21
-173.913
-176.78
-179.79
-182.899
-186.035
-189.135
-192.15
-195.032
-197.744
-200.241
-202.471
-204.383
-205.935
-207.09
-207.82
-208.097
-207.896
-207.2
-205.997
-204.28
-202.049
-199.303
-196.039
-192.258
-187.962
-183.158
-177.854
-172.059
-165.788
-159.055
-151.882
-144.293
-136.312
-127.966
-119.285
-110.299
-101.039
-91.538
-81.83
-71.949
-61.929
-51.805
-41.614
-31.391
-21.17
-10.985
-0.869
9.147
19.03
28.752
38.285
47.602
56.68
65.495
74.025
82.252
90.157
97.726
104.944
111.799
118.282
124.384
130.1
135.426
140.359
144.901
149.051
152.812
156.19
159.188
161.814
164.075
165.981
167.541
168.766
169.669
170.261
170.555
170.566
170.306
169.789
169.031
168.045
166.845
165.445
163.861
162.105
160.193
158.138
155.954
153.655
151.253
148.762
146.195
143.565
140.883
138.163
135.417
132.657
129.894
127.141
124.409
121.709
119.051
116.446
113.903
111.432
109.04
106.735
104.527
102.421
100.425
98.545
96.786
95.153
93.651
92.284
91.054
89.964
89.015
88.21
87.547
87.028
86.65
86.412
86.312
86.346
86.509
86.795
87.198
87.709
88.321
89.023
89.805
90.657
91.567
92.522
93.511
94.52
95.536
96.545
97.534
98.487
99.391
100.23
100.992
101.662
102.226
102.67
102.983
103.151
103.162
103.006
102.67
102.146
101.423
100.493
99.349
97.984
96.395
94.576
92.528
90.248
87.738
84.999
82.034
78.849
75.447
71.837
68.026
64.023
59.837
55.481
50.965
46.304
41.509
36.597
31.58
26.475
21.297
16.061
10.783
5.479
0.166
-5.139
-10.422
-15.666
-20.854
-25.972
-31.005
-35.938
-40.759
-45.456
-50.016
-54.43
-58.689
-62.783
-66.707
-70.453
-74.016
-77.391
-80.576
-83.569
-86.367
-88.972
-91.383
-93.603
-95.634
-97.479
-99.141
-100.625
-101.934
-103.073
-104.049
-104.866
-105.532
-106.051
-106.433
-106.683
-106.81
-106.82
-106.72
-106.516
-106.214
-105.82
-105.339
-104.774
-104.13
-103.41
-102.616
-101.75
-100.814
-99.808
-98.731
-97.582
-96.359
-95.058
-93.678
-92.214
-90.663
-89.02
-87.282
-85.447
-83.51
-81.468
-79.318
-77.056
-74.678
-72.179
-69.557
-66.806
-63.924
-60.907
-57.754
-54.464
-51.039
-47.479
-43.787
-39.966
-36.021
-31.959
-27.784
-23.506
-19.133
-14.675
-10.147
-5.563
-0.941
3.701
8.345
12.972
17.56
22.088
26.538
30.89
35.124
39.219
43.154
46.905
50.446
53.751
56.794
59.547
61.983
64.077
65.808
67.159
68.116
68.67
68.812
68.531
67.818
66.667
65.073
63.037
60.563
57.647
54.301
50.559
46.46
42.048
37.356
32.378
27.109
21.578
15.772
9.626
3.052
-4.032
-11.643
-19.676
-28.029
-36.691
-45.512
-54.066
-61.985
-69.114
-75.453
-81.323
-85.983
-87.311
-84.464
-78.712
-75.037
-80.847
-99.065
-125.741
-150.264
-160.314
-150.897
-126.829
-100.16
-82.639
-79.133
-87.013
-99.146
-109.929
-117.211
-121.366
-124.133
-126.846
-130.528
-135.562
-140.954
-142.882
-136.787
-121.861
-101.414
-84.443
-81.849
-97.871
-131.744
-178.416
-227.48
-270.523
-298.044
-296.573
-258.868
-183.412
-76.993
42.684
160.877
268.991
364.066
448.907
522.783
581.108
618.655
630.511
615.768
575.986
513.321
431.687
335.567
230.079
121.105
13.323
-89.101
-181.74
-260.747
-323.221
-367.994
-395.961
-409.151
-409.587
-399.668
-382.361
-361.133
-339.794
-320.549
-303.824
-289.295
-276.167
-264.091
-253.189
-242.723
-231.238
-218.327
-204.531
-190.907
-179.198
-169.999
-162.55
-156.724
-152.838
-150.769
-150.283
-150.645
-150.374
-148.939
-146.906
-144.484
-141.72
-138.64
-134.929
-130.621
-126.225
-121.814
-117.054
-111.73
-105.616
-98.658
-91.104
-83.078
-74.575
-65.696
-56.57
-47.347
-38.238
-29.357
-20.72
-12.351
-4.253
3.566
11.067
18.24
25.102
31.66
37.93
43.923
49.634
55.07
60.244
65.175
69.883
74.381
78.672
82.755
86.631
90.301
93.772
97.045
100.116
102.988
105.663
108.151
110.462
112.605
114.59
116.426
118.124
119.695
121.147
122.49
123.729
124.872
125.926
126.898
127.797
128.628
129.398
130.113
130.779
131.402
131.985
132.531
133.041
133.517
133.958
134.366
134.737
135.07
135.362
135.608
135.804
135.944
136.02
136.025
135.95
135.784
135.518
135.141
134.641
134.008
133.231
132.298
131.2
129.926
128.465
126.809
124.949
122.875
120.58
118.059
115.303
112.31
109.077
105.6
101.882
97.922
93.724
89.292
84.633
79.753
74.662
69.37
63.89
58.235
52.42
46.461
40.376
34.185
27.908
21.565
15.179
8.774
2.373
-4.001
-10.321
-16.565
-22.705
-28.719
-34.582
-40.269
-45.758
-51.028
-56.055
-60.822
-65.31
-69.502
-73.383
-76.94
-80.162
-83.039
-85.564
-87.73
-89.535
-90.977
-92.054
-92.769
-93.126
-93.13
-92.788
-92.109
-91.104
-89.785
-88.165
-86.26
-84.086
-81.662
-79.006
-76.138
-73.08
-69.852
-66.477
-62.978
-59.377
-55.697
-51.96
-48.19
-44.407
-40.634
-36.89
-33.195
-29.568
-26.027
-22.588
-19.268
-16.08
-13.039
-10.158
-7.447
-4.919
-2.583
-0.447
1.482
3.196
4.691
5.963
7.009
7.827
8.417
8.779
8.915
8.827
8.519
7.996
7.263
6.328
5.196
3.876
2.377
0.707
-1.126
-3.11
-5.238
-7.5
-9.886
-12.385
-14.989
-17.686
-20.467
-23.32
-26.236
-29.202
-32.209
-35.246
-38.301
-41.363
-44.422
-47.467
-50.487
-53.472
-56.412
-59.297
-62.117
-64.865
-67.532
-70.11
-72.594
-74.976
-77.253
-79.418
-81.469
-83.401
-85.212
-86.9
-88.463
-89.899
-91.208
-92.391
-93.448
-94.38
-95.191
-95.883
-96.46
-96.926
-97.286
-97.546
-97.713
-97.794
-97.797
-97.73
-97.603
-97.426
-97.209
-96.963
-96.697
-96.423
-96.15
-95.888
-95.648
-95.437
-95.265
-95.141
-95.072
-95.065
-95.129
-95.267
-95.487
-95.792
-96.186
-96.671
-97.249
-97.92
-98.686
-99.545
-100.497
-101.54
-102.669
-103.883
-105.174
-106.539
-107.968
-109.454
-110.986
-112.553
-114.144
-115.747
-117.353
-118.947
-120.518
-122.055
-123.547
-124.981
-126.347
-127.632
-128.826
-129.92
-130.903
-131.767
-132.505
-133.112
-133.582
-133.914
-134.106
-134.159
-134.073
-133.847
-133.484
-132.987
-132.359
-131.608
-130.74
-129.765
-128.696
-127.551
-126.352
-125.119
-123.872
-122.631
-121.418
-120.252
-119.152
-118.134
-117.209
-116.395
-115.709
-115.168
-114.789
-114.586
-114.574
-114.765
-115.171
-115.798
-116.651
-117.732
-119.038
-120.58
-122.362
-124.398
-126.713
-129.314
-132.205
-135.385
-138.845
-142.56
-146.501
-150.609
-154.807
-159.036
-163.22
-167.286
-171.17
-174.782
-178.059
-180.944
-183.369
-185.29
-186.684
-187.527
-187.821
-187.596
-186.888
-185.8
-184.505
-183.176
-182.043
-181.325
-181.277
-182.259
-184.433
-187.772
-192.071
-196.848
-201.653
-206.216
-210.119
-212.745
-213.886
-213.743
-213.107
-213.572
-216.342
-221.893
-230.524
-242.446
-257.464
-274.632
-291.734
-304.725
-309.494
-303.279
-283.881
-250.528
-203.89
-143.086
-67.664
21.81
126.667
241.977
357.318
462.391
543.051
593.676
619.512
625.61
619.507
603.368
570.731
517.812
443.922
351.703
248.364
139.562
28.309
-81.94
-187.065
-282.197
-362.549
-426.724
-476.76
-512.665
-533.156
-536.225
-517.742
-482.308
-440.128
-398.786
-369.159
-353.63
-346.058
-344.518
-341.51
-330.581
-310.415
-274.435
-221.441
-154.784
-79.538
-7.717
52.278
96.76
127.396
153.201
181.159
215.458
255.808
297.224
335.119
366.113
391.064
412.189
433.333
459.518
488.362
515.869
534.343
532.973
512.676
480.785
451.051
440.033
451.435
479.215
510.138
530.332
535.712
529.757
519.926
512.455
508.665
506.839
504.797
501.61
497.413
492.595
487.3
481.251
474.334
466.681
458.119
448.472
437.67
425.625
412.543
398.682
384.141
369.009
353.401
337.445
321.32
305.216
289.263
273.561
258.203
243.265
228.844
215.023
201.861
189.402
177.66
166.651
156.395
146.906
138.192
130.247
123.052
116.577
110.788
105.65
101.125
97.174
93.75
90.806
88.293
86.165
84.383
82.899
81.661
80.608
79.672
78.788
77.891
76.913
75.789
74.451
72.835
70.889
68.578
65.864
62.718
59.101
54.965
50.284
45.051
39.268
32.948
26.113
18.786
11.029
2.939
-5.388
-13.856
-22.395
-30.98
-39.57
-48.114
-56.563
-64.85
-72.956
-80.917
-88.739
-96.41
-103.925
-111.259
-118.469
-125.705
-133.08
-140.683
-148.548
-156.619
-164.87
-173.299
-181.846
-190.419
-198.839
-206.813
-214.119
-220.587
-226.037
-230.321
-233.174
-234.195
-233.05
-229.462
-223.215
-214.204
-202.295
-187.313
-169.225
-148.108
-124.167
-97.763
-69.204
-38.746
-6.689
26.669
60.899
95.427
129.722
163.288
195.665
226.472
255.29
281.652
305.236
325.859
343.448
358.077
369.798
378.637
384.675
388.031
388.921
387.665
384.589
380.018
374.267
367.609
360.351
352.833
345.311
337.954
330.864
324.057
317.558
311.407
305.609
300.146
294.949
289.912
284.916
279.828
274.542
268.975
263.042
256.657
249.771
242.37
234.477
226.158
217.477
208.489
199.265
189.885
180.447
171.059
161.838
152.903
144.356
136.284
128.766
121.867
115.643
110.14
105.382
101.379
98.139
95.672
93.981
93.067
92.919
93.518
94.837
96.844
99.509
102.805
106.699
111.162
116.165
121.678
127.674
134.129
141.006
148.26
155.841
163.69
171.747
179.951
188.235
196.531
204.777
212.912
220.883
228.645
236.139
243.305
250.081
256.388
262.171
267.389
271.996
275.973
279.316
282.043
284.206
285.867
287.049
287.767
288.008
287.732
286.922
285.554
283.591
281.039
277.897
274.155
269.841
264.96
259.465
253.294
246.313
238.375
229.428
219.473
208.562
196.821
184.36
171.334
157.956
144.417
130.928
117.674
104.763
92.312
80.465
69.455
59.696
51.455
44.729
39.48
35.555
32.95
32.018
32.781
34.848
38.237
43.218
50.134
59.71
71.871
85.514
99.981
114.97
129.779
143.791
156.181
165.589
171.888
176.235
179.374
181.871
184.335
187.002
190.43
195.675
202.827
211.082
219.901
228.816
237.549
246.201
254.583
262.186
268.899
274.945
280.451
285.53
290.148
294.07
297.205
299.589
301.199
301.976
301.866
300.804
298.772
295.811
291.94
287.161
281.474
274.875
267.381
259.016
249.8
239.742
228.834
217.079
204.497
191.101
176.909
161.943
146.234
129.847
112.883
95.433
77.59
59.436
41.048
22.534
4.019
-14.375
-32.524
-50.351
-67.824
-84.888
-101.506
-117.679
-133.417
-148.832
-164.128
-179.469
-195.014
-210.92
-227.309
-244.426
-262.636
-282.123
-302.851
-324.582
-346.853
-369.306
-391.714
-413.588
-434.136
-452.839
-469.767
-485.514
-501.114
-517.548
-535.33
-554.988
-577.508
-602.087
-625.642
-645.238
-658.138
-664.671
-668.301
-668.691
-660.396
-633.701
-578.416
-491.034
-375.369
-242.037
-103.748
27.66
138.625
219.676
266.713
280.338
269.382
242.652
203.579
152.31
85.966
3.335
-92.474
-195.637
-299.942
-400.688
-493.531
-575.111
-643.51
-696.654
-733.776
-755.884
-763.66
-758.342
-742.745
-719.219
-689.818
-657.394
-623.743
-589.925
-557.615
-527.727
-500.126
-475.192
-453.312
-433.935
-416.919
-401.905
-387.618
-373.453
-359.302
-344.593
-328.774
-311.836
-293.726
-274.827
-256.199
-238.338
-221.382
-205.616
-191.198
-178.091
-166.192
-155.139
-144.288
-133.305
-122.105
-110.624
-98.917
-87.039
-75.041
-63.068
-51.339
-40.006
-29.155
-18.857
-9.148
-0.11
8.128
15.476
21.873
27.282
31.695
35.113
37.538
39
39.557
39.261
38.162
36.305
33.724
30.466
26.586
22.145
17.206
11.833
6.093
0.05
-6.233
-12.695
-19.282
-25.941
-32.623
-39.277
-45.85
-52.29
-58.544
-64.563
-70.302
-75.714
-80.758
-85.398
-89.603
-93.347
-96.607
-99.364
-101.601
-103.308
-104.478
-105.107
-105.196
-104.749
-103.776
-102.288
-100.305
-97.847
-94.938
-91.604
-87.877
-83.789
-79.376
-74.677
-69.731
-64.58
-59.265
-53.831
-48.322
-42.783
-37.259
-31.794
-26.432
-21.215
-16.187
-11.388
-6.857
-2.631
1.255
4.767
7.875
10.55
12.766
14.5
15.731
16.441
16.616
16.244
15.316
13.827
11.776
9.164
5.995
2.277
-1.979
-6.758
-12.044
-17.815
-24.048
-30.718
-37.796
-45.25
-53.046
-61.149
-69.519
-78.118
-86.903
-95.83
-104.852
-113.924
-122.997
-132.022
-140.948
-149.725
-158.302
-166.627
-174.649
-182.317
-189.58
-196.39
-202.697
-208.455
-213.618
-218.144
-221.99
-225.118
-227.492
-229.081
-229.853
-229.783
-228.848
-227.03
-224.315
-220.691
-216.154
-210.701
-204.336
-197.067
-188.906
-179.871
-169.984
-159.273
-147.771
-135.513
-122.541
-108.901
-94.642
-79.82
-64.492
-48.72
-32.568
-16.104
0.6
17.474
34.442
51.429
68.357
85.151
101.734
118.028
133.958
149.451
164.434
178.837
192.594
205.64
217.915
229.364
239.935
249.58
258.258
265.932
272.57
278.148
282.645
286.048
288.348
289.544
289.64
288.644
286.574
283.451
279.301
274.156
268.053
261.035
253.147
244.439
234.965
224.781
213.947
202.523
190.573
178.161
165.353
152.214
138.809
125.203
111.458
97.637
83.801
70.005
56.307
42.756
29.403
16.292
3.466
-9.039
-21.188
-32.952
-44.304
-55.223
-65.692
-75.697
-85.228
-94.281
-102.853
-110.947
-118.568
-125.724
-132.428
-138.693
-144.536
-149.975
-155.032
-159.728
-164.086
-168.129
-171.882
-175.368
-178.611
-181.636
-184.465
-187.119
-189.619
-191.982
-194.227
-196.368
-198.418
-200.387
-202.285
-204.118
-205.892
-207.61
-209.275
-210.887
-212.443
-213.941
-215.377
-216.745
-218.037
-219.244
-220.358
-221.369
-222.266
-223.039
-223.676
-224.166
-224.498
-224.664
-224.654
-224.461
-224.077
-223.496
-222.715
-221.731
-220.547
-219.164
-217.586
-215.823
-213.885
-211.788
-209.549
-207.185
-204.714
-202.156
-199.532
-196.865
-194.174
-191.474
-188.786
-186.13
-183.529
-181.006
-178.583
-176.276
-174.107
-172.103
-170.284
-168.672
-167.28
-166.104
-165.151
-164.428
-163.946
-163.717
-163.741
-163.992
-164.452
-165.106
-165.92
-166.857
-167.847
-168.785
-169.587
-170.189
-170.531
-170.583
-170.29
-169.573
-168.379
-166.668
-164.415
-161.637
-158.337
-154.482
-150.105
-145.278
-140.118
-134.821
-129.519
-124.265
-119.117
-114.098
-109.264
-104.713
-100.467
-96.511
-92.844
-89.408
-86.212
-83.355
-80.696
-77.947
-74.649
-69.973
-63.229
-53.952
-41.569
-25.79
-6.653
15.809
40.638
65.905
89.955
111.055
128.9
145.617
162.669
180.243
196.184
206.588
212.171
220.303
244.145
296.533
380.984
490.062
607.466
716.824
808.461
878.536
928.034
957.844
966.545
952.619
914.629
852.416
768.651
667.932
555.835
438.306
320.043
204.276
94.363
-5.99
-93.88
-167.344
-226.036
-271.274
-304.098
-325.205
-336.183
-339.302
-337.196
-332.633
-327.054
-320.649
-313.703
-306.516
-299.055
-291.04
-281.641
-269.759
-255.198
-238.528
-220.464
-201.779
-183.053
-164.721
-147.415
-131.899
-118.58
-107.504
-98.508
-91.244
-85.44
-80.935
-77.522
-74.882
-72.667
-70.526
-68.138
-65.333
-62.024
-58.13
-53.607
-48.443
-42.669
-36.387
-29.743
-22.871
-15.885
-8.88
-1.939
4.822
11.268
17.257
22.653
27.369
31.358
34.59
37.051
38.745
39.699
39.967
39.626
38.738
37.357
35.53
33.303
30.732
27.88
24.809
21.581
18.253
14.879
11.513
8.208
5.009
1.958
-0.91
-3.568
-5.981
-8.118
-9.946
-11.434
-12.555
-13.284
-13.598
-13.477
-12.905
-11.873
-10.377
-8.417
-5.997
-3.122
0.195
3.941
8.098
12.646
17.561
22.817
28.381
34.221
40.299
46.577
53.01
59.551
66.151
72.758
79.325
85.805
92.149
98.311
104.247
109.915
115.282
120.309
124.954
129.177
132.933
136.182
138.886
141.009
142.512
143.368
143.55
143.045
141.854
139.974
137.403
134.139
130.169
125.501
120.164
114.192
107.62
100.506
92.917
84.95
76.74
68.394
59.992
51.594
43.23
34.939
26.772
18.771
10.976
3.424
-3.872
-10.881
-17.543
-23.848
-29.809
-35.483
-41.017
-46.493
-51.914
-57.261
-62.465
-67.443
-72.132
-76.426
-80.164
-83.207
-85.419
-86.69
-86.973
-86.145
-84.047
-80.482
-75.141
-67.781
-58.256
-46.434
-32.241
-15.665
3.309
24.625
48.092
73.538
100.799
129.693
160.083
191.737
224.347
257.57
290.954
324.035
356.388
387.552
417.098
444.682
469.958
492.632
512.554
529.569
543.532
554.355
561.944
566.279
567.423
565.469
560.601
553.064
543.146
531.202
517.573
502.533
486.365
469.333
451.628
433.433
414.913
396.174
377.326
358.459
339.624
320.862
302.175
283.514
264.789
245.872
226.658
207.092
187.128
166.733
145.902
124.649
103.017
81.095
58.964
36.704
14.4
-7.86
-29.973
-51.817
-73.256
-94.146
-114.362
-133.805
-152.386
-170.03
-186.676
-202.273
-216.797
-230.245
-242.612
-253.891
-264.079
-273.173
-281.181
-288.121
-294.013
-298.879
-302.745
-305.632
-307.566
-308.573
-308.677
-307.905
-306.282
-303.831
-300.579
-296.559
-291.806
-286.355
-280.244
-273.508
-266.184
-258.314
-249.933
-241.078
-231.785
-222.085
-212.012
-201.599
-190.877
-179.874
-168.622
-157.146
-145.476
-133.64
-121.664
-109.575
-97.402
-85.17
-72.905
-60.636
-48.388
-36.188
-24.062
-12.036
-0.138
11.607
23.171
34.526
45.644
56.495
67.05
77.276
87.144
96.62
105.672
114.266
122.368
129.944
136.958
143.374
149.16
154.28
158.703
162.398
165.334
167.485
168.827
169.338
168.998
167.791
165.703
162.725
158.85
154.076
148.404
141.84
134.393
126.076
116.907
106.912
96.126
84.59
72.358
59.487
46.04
32.09
17.714
2.987
-12.01
-27.205
-42.525
-57.893
-73.226
-88.435
-103.429
-118.123
-132.434
-146.281
-159.59
-172.285
-184.29
-195.54
-205.972
-215.508
-224.063
-231.52
-237.737
-242.583
-245.955
-247.771
-247.958
-246.441
-243.13
-237.95
-230.891
-221.975
-211.23
-198.698
-184.426
-168.467
-151.007
-132.384
-112.79
-92.327
-70.96
-48.32
-24.131
1.617
29.16
58.784
90.127
122.722
155.781
187.215
215.221
238.871
256.684
268.908
278.559
286.62
293.968
301.738
307.444
314.641
332.637
369.325
433.215
523.2
627.7
735.24
834.324
918.651
987.728
1039.521
1071.899
1082.523
1068.276
1028.557
964.153
877.322
772.661
655.522
531.742
406.552
284.491
170.286
68.437
-17.491
-85.634
-136.122
-170.549
-190.67
-198.837
-198.394
-193.036
-186.605
-181.77
-179.598
-180.423
-184.303
-190.806
-199.008
-207.529
-214.657
-219.58
-222.457
-223.666
-223.796
-223.4
-222.922
-223.07
-224.693
-228.177
-233.507
-240.455
-248.567
-257.497
-267.035
-276.852
-286.557
-295.754
-304.055
-311.233
-317.205
-321.899
-325.256
-327.222
-327.753
-326.895
-324.758
-321.44
-317.041
-311.639
-305.294
-298.103
-290.19
-281.687
-272.739
-263.447
-253.868
-244.052
-234.039
-223.856
-213.529
-203.048
-192.382
-181.515
-170.442
-159.165
-147.698
-136.04
-124.187
-112.137
-99.89
-87.453
-74.841
-62.066
-49.143
-36.095
-22.945
-9.726
3.525
16.775
29.993
43.147
56.209
69.147
81.929
94.522
106.895
119.017
130.851
142.361
153.508
164.254
174.563
184.395
193.713
202.478
210.654
218.205
225.098
231.299
236.779
241.508
245.459
248.607
250.93
252.406
253.017
252.745
251.577
249.502
246.515
242.611
237.789
232.051
225.404
217.857
209.422
200.115
189.952
178.954
167.148
154.565
141.24
127.212
112.526
97.231
81.381
65.036
48.257
31.105
13.642
-4.066
-21.954
-39.956
-58.009
-76.052
-94.02
-111.841
-129.442
-146.746
-163.676
-180.156
-196.108
-211.452
-226.115
-240.022
-253.112
-265.335
-276.633
-286.948
-296.215
-304.364
-311.341
-317.117
-321.664
-324.962
-327.016
-327.842
-327.494
-326.065
-323.618
-320.189
-315.798
-310.432
-304.088
-296.776
-288.5
-279.263
-269.069
-257.905
-245.785
-232.751
-218.798
-203.894
-187.953
-170.817
-152.415
-132.761
-111.911
-89.988
-67.143
-43.533
-19.383
5.026
29.445
53.637
77.407
100.628
123.101
144.583
164.781
183.326
199.946
214.487
226.831
236.929
244.803
250.506
254.205
256.178
256.643
255.774
253.704
250.493
246.265
241.197
235.485
229.375
223.06
216.659
210.285
204.026
197.904
191.907
185.935
179.793
173.353
166.545
159.328
151.723
143.724
135.301
126.438
117.121
107.341
97.114
86.448
75.346
63.85
52.026
39.978
27.858
15.78
3.824
-7.942
-19.475
-30.734
-41.673
-52.268
-62.512
-72.389
-81.88
-90.963
-99.606
-107.791
-115.512
-122.768
-129.57
-135.922
-141.824
-147.276
-152.277
-156.826
-160.92
-164.551
-167.704
-170.375
-172.562
-174.269
-175.503
-176.273
-176.587
-176.456
-175.895
-174.918
-173.536
-171.762
-169.604
-167.074
-164.185
-160.948
-157.376
-153.481
-149.274
-144.769
-139.979
-134.918
-129.599
-124.035
-118.238
-112.221
-106.001
-99.592
-93.008
-86.265
-79.379
-72.366
-65.245
-58.032
-50.741
-43.384
-35.975
-28.526
-21.051
-13.56
-6.067
1.418
8.879
16.293
23.641
30.903
38.061
45.095
51.988
58.72
65.275
71.644
77.816
83.777
89.514
95.009
100.25
105.227
109.93
114.351
118.481
122.31
125.837
129.066
131.992
134.605
136.882
138.786
140.297
141.41
142.115
142.412
142.31
141.824
141.008
139.944
138.708
137.371
135.992
134.62
133.339
132.239
131.417
130.964
130.92
131.297
132.125
133.421
135.169
137.309
139.673
142.014
144.114
145.77
146.815
147.026
146.056
143.63
139.6
134.084
127.489
120.138
112.188
103.969
96
88.801
82.784
77.529
71.933
65.38
57.371
47.317
34.871
19.352
1.752
-13.373
-21.359
-19.956
-11.441
-3.118
0.963
6.962
31.432
94.842
209.116
367.982
545.989
710.605
836.882
915.054
953.473
969.613
976.28
978.02
970.846
945.181
895.515
823.014
732.403
630.923
524.654
416.586
308.912
204.811
108.213
22.673
-48.82
-105.134
-146.827
-173.886
-186.335
-185.532
-173.618
-153.641
-129.319
-103.137
-76.47
-51.285
-29.705
-13.294
-3.284
0.332
-1.363
-7.678
-18.182
-31.811
-47.095
-62.634
-77.016
-89.585
-100.545
-110.067
-118.317
-125.842
-133.41
-141.64
-151.148
-162.174
-174.415
-187.57
-201.328
-215.209
-228.827
-241.944
-254.191
-265.39
-275.539
-284.569
-292.741
-300.414
-307.6
-314.324
-320.932
-327.614
-334.763
-342.864
-351.495
-360.156
-368.845
-377.418
-385.528
-393.028
-399.3
-403.646
-406.587
-408.671
-409.985
-410.812
-411.298
-411.412
-411.635
-412.486
-413.534
-414.376
-414.856
-414.664
-413.801
-412.363
-410.099
-406.776
-402.562
-397.594
-391.965
-385.842
-379.176
-371.899
-364.083
-355.777
-346.985
-337.73
-328.015
-317.833
-307.241
-296.296
-285.037
-273.513
-261.751
-249.778
-237.63
-225.341
-212.949
-200.493
-188.01
-175.534
-163.101
-150.745
-138.504
-126.414
-114.507
-102.817
-91.375
-80.212
-69.362
-58.86
-48.737
-39.024
-29.748
-20.935
-12.61
-4.796
2.486
9.218
15.383
20.967
25.955
30.336
34.098
37.234
39.736
41.599
42.82
43.396
43.329
42.618
41.27
39.288
36.681
33.459
29.633
25.218
20.229
14.686
8.61
2.023
-5.049
-12.578
-20.536
-28.891
-37.611
-46.659
-56.002
-65.599
-75.413
-85.404
-95.528
-105.745
-116.009
-126.275
-136.499
-146.634
-156.632
-166.448
-176.034
-185.344
-194.33
-202.948
-211.151
-218.897
-226.142
-232.846
-238.969
-244.476
-249.331
-253.503
-256.964
-259.689
-261.655
-262.845
-263.243
-262.839
-261.626
-259.601
-256.766
-253.126
-248.691
-243.475
-237.497
-230.779
-223.35
-215.24
-206.485
-197.124
-187.202
-176.764
-165.861
-154.547
-142.878
-130.913
-118.714
-106.344
-93.868
-81.354
-68.867
-56.476
-44.249
-32.252
-20.552
-9.214
1.699
12.126
22.008
31.29
39.919
47.846
55.027
61.42
66.99
71.705
75.537
78.467
80.476
81.555
81.698
80.905
79.18
76.536
72.987
68.556
63.267
57.154
50.25
42.597
34.239
25.225
15.607
5.442
-5.214
-16.298
-27.747
-39.498
-51.483
-63.638
-75.895
-88.188
-100.45
-112.617
-124.624
-136.409
-147.911
-159.072
-169.835
-180.147
-189.959
-199.224
-207.9
-215.945
-223.325
-230.008
-235.964
-241.17
-245.603
-249.248
-252.089
-254.119
-255.331
-255.724
-255.302
-254.069
-252.035
-249.212
-245.616
-241.263
-236.174
-230.37
-223.874
-216.709
-208.904
-200.487
-191.486
-181.934
-171.861
-161.299
-150.283
-138.845
-127.018
-114.835
-102.329
-89.533
-76.48
-63.203
-49.735
-36.11
-22.361
-8.523
5.371
19.287
33.193
47.058
60.852
74.545
88.106
101.507
114.718
127.709
140.45
152.907
165.043
176.824
188.22
199.198
209.73
219.785
229.341
238.377
246.879
254.83
262.211
269.005
275.196
280.773
285.725
290.043
293.722
296.762
299.169
300.958
302.145
302.741
302.756
302.192
301.038
299.297
296.99
294.135
290.765
286.925
282.668
278.074
273.246
268.269
263.229
258.206
253.266
248.501
243.992
239.81
236.056
232.8
230.072
227.904
226.289
225.188
224.588
224.405
224.487
224.711
224.908
224.9
224.535
223.565
221.715
218.879
215.045
210.327
205.106
199.83
194.943
191.116
189.03
188.925
190.713
194.018
197.702
200.297
200.651
197.465
190.8
182.917
175.755
170.461
165.302
156.553
144.845
136.253
143.88
182.57
258.493
369.633
504.759
647.123
782.524
897.45
982.074
1032.755
1051.342
1046.445
1026.466
995.913
954.454
896.545
819.072
723.251
612.74
493.539
371.712
252.08
137.308
29.425
-71.34
-167.342
-255.065
-327.573
-378.805
-400.68
-394.738
-371.57
-339.969
-309.742
-284.756
-261.42
-238.422
-214.803
-190.331
-167.314
-146.566
-127.6
-110.367
-94.293
-78.376
-62.5
-46.935
-31.729
-17.196
-3.545
9.572
22.086
33.314
43.04
51.272
57.986
63.55
68.211
71.906
74.96
77.917
81.07
84.662
88.79
93.308
98.155
103.335
108.708
114.106
119.374
124.333
128.883
132.962
136.465
139.276
141.271
142.358
142.503
141.702
139.969
137.334
133.847
129.589
124.655
119.116
113.038
106.484
99.523
92.263
84.795
77.173
69.503
61.938
54.604
47.632
41.101
34.992
29.338
24.279
19.772
15.548
11.578
7.997
4.806
2.367
0.108
-3.917
-9.319
-14.261
-15.813
-8.389
7.799
27.089
43.88
50.22
45.379
36.856
30.448
32.357
43.778
59.035
74.572
87.999
98.482
108.244
118.299
128.495
138.851
148.962
158.666
168.209
177.626
186.8
195.679
204.219
212.352
220.012
227.119
233.575
239.317
244.329
248.586
252.052
254.7
256.508
257.457
257.543
256.758
255.097
252.558
249.146
244.871
239.747
233.791
227.027
219.479
211.177
202.155
192.449
182.099
171.15
159.646
147.637
135.173
122.308
109.097
95.596
81.864
67.961
53.947
39.886
25.84
11.872
-1.951
-15.568
-28.915
-41.93
-54.553
-66.726
-78.393
-89.502
-100.002
-109.846
-118.989
-127.389
-135.007
-141.809
-147.763
-152.843
-157.026
-160.295
-162.637
-164.044
-164.513
-164.044
-162.643
-160.321
-157.092
-152.975
-147.993
-142.178
-135.565
-128.195
-120.114
-111.375
-102.036
-92.16
-81.814
-71.069
-59.993
-48.659
-37.14
-25.507
-13.831
-2.182
9.368
20.746
31.879
42.689
53.097
63.027
72.402
81.151
89.207
96.51
103.005
108.644
113.391
117.207
120.054
121.892
122.674
122.371
120.969
118.474
114.909
110.321
104.779
98.362
91.163
83.257
74.708
65.551
55.797
45.455
34.53
23.06
11.117
-1.231
-13.925
-26.915
-40.168
-53.686
-67.499
-81.66
-96.248
-111.291
-126.768
-142.584
-158.573
-174.531
-190.215
-205.428
-220.024
-233.867
-246.841
-258.827
-269.706
-279.327
-287.517
-294.07
-298.739
-301.346
-301.781
-300.038
-296.22
-290.499
-283.126
-274.319
-264.261
-253.116
-241.017
-228.096
-214.478
-200.307
-185.738
-170.977
-156.279
-141.865
-127.915
-114.536
-101.755
-89.541
-77.804
-66.472
-55.493
-44.839
-34.516
-24.544
-14.958
-5.794
2.905
11.133
18.919
26.289
33.263
39.833
45.958
51.575
56.6
60.954
64.57
67.397
69.409
70.597
70.966
70.538
69.346
67.414
64.759
61.395
57.336
52.602
47.225
41.243
34.702
27.65
20.139
12.216
3.929
-4.683
-13.585
-22.745
-32.142
-41.75
-51.542
-61.489
-71.557
-81.711
-91.919
-102.142
-112.34
-122.473
-132.503
-142.395
-152.121
-161.653
-170.961
-180.017
-188.794
-197.268
-205.429
-213.261
-220.736
-227.837
-234.546
-240.863
-246.822
-252.445
-257.745
-262.732
-267.409
-271.773
-275.826
-279.537
-282.826
-285.605
-287.774
-289.259
-290.044
-290.113
-289.452
-288.023
-285.747
-282.571
-278.479
-273.466
-267.534
-260.72
-253.098
-244.847
-236.268
-227.741
-219.716
-212.489
-206.148
-200.585
-195.444
-190.439
-185.441
-180.167
-174.219
-167.488
-160.218
-153.379
-148.658
-147.352
-150.213
-157.775
-170.247
-187.589
-209.151
-232.564
-254.089
-269.985
-276.618
-271.18
-251.556
-215.351
-161.246
-90.353
-5.545
88.897
187.67
286.312
380.26
463.457
530.562
577.64
601.935
603.094
581.722
537.689
472.276
388.613
291.781
189.346
86.494
-14.302
-112.744
-212.133
-307.991
-389.682
-446.971
-465.863
-447.582
-408.382
-363.047
-330.566
-316.403
-308.527
-298.431
-277.268
-242.866
-205.407
-171.456
-144.324
-125.97
-113.426
-105.201
-101.978
-103.509
-109.12
-117.33
-126.22
-134.261
-140.689
-145.011
-146.815
-146.093
-143.363
-139.692
-136.009
-132.925
-130.744
-129.449
-128.997
-129.305
-130.077
-130.808
-131.158
-130.966
-130.202
-129.029
-127.573
-125.903
-124.157
-122.487
-121.013
-119.837
-118.997
-118.459
-118.209
-118.24
-118.537
-119.103
-119.915
-120.923
-122.089
-123.382
-124.772
-126.24
-127.759
-129.292
-130.806
-132.27
-133.658
-134.949
-136.12
-137.144
-137.996
-138.652
-139.095
-139.315
-139.299
-139.032
-138.499
-137.685
-136.577
-135.167
-133.445
-131.404
-129.038
-126.346
-123.329
-119.993
-116.344
-112.391
-108.14
-103.601
-98.787
-93.708
-88.379
-82.812
-77.024
-71.032
-64.854
-58.512
-52.026
-45.416
-38.705
-31.916
-25.072
-18.195
-11.309
-4.435
2.404
9.185
15.887
22.488
28.968
35.307
41.487
47.49
53.3
58.903
64.284
69.432
74.337
78.987
83.373
87.487
91.322
94.872
98.13
101.092
103.756
106.118
108.178
109.936
111.394
112.553
113.417
113.99
114.276
114.282
114.013
113.476
112.68
111.631
110.34
108.815
107.065
105.101
102.932
100.569
98.021
95.298
92.412
89.371
86.187
82.869
79.43
75.878
72.226
68.483
64.66
60.767
56.814
52.811
48.767
44.691
40.591
36.477
32.355
28.233
24.118
20.018
15.938
11.885
7.864
3.882
-0.057
-3.947
-7.785
-11.564
-15.28
-18.928
-22.503
-26
-29.415
-32.741
-35.973
-39.106
-42.133
-45.05
-47.849
-50.525
-53.069
-55.475
-57.736
-59.842
-61.785
-63.557
-65.147
-66.547
-67.745
-68.733
-69.5
-70.036
-70.329
-70.371
-70.15
-69.656
-68.88
-67.812
-66.443
-64.765
-62.77
-60.45
-57.802
-54.819
-51.497
-47.836
-43.833
-39.489
-34.805
-29.786
-24.435
-18.761
-12.771
-6.476
0.111
6.977
14.104
21.474
29.069
36.865
44.84
52.97
61.227
69.584
78.012
86.481
94.96
103.415
111.815
120.124
128.309
136.334
144.165
151.766
159.104
166.143
172.85
179.193
185.138
190.656
195.715
200.288
204.348
207.871
210.832
213.211
214.991
216.155
216.691
216.587
215.835
214.429
212.367
209.647
206.272
202.246
197.578
192.278
186.359
179.839
172.736
165.074
156.879
148.177
139
129.378
119.347
108.943
98.204
87.17
75.881
64.381
52.716
40.93
29.07
17.183
5.315
-6.486
-18.173
-29.701
-41.025
-52.1
-62.885
-73.336
-83.411
-93.069
-102.273
-110.987
-119.177
-126.811
-133.86
-140.303
-146.12
-151.303
-155.839
-159.719
-162.941
-165.501
-167.403
-168.648
-169.237
-169.17
-168.454
-167.105
-165.141
-162.584
-159.457
-155.784
-151.594
-146.92
-141.793
-136.244
-130.301
-123.99
-117.347
-110.418
-103.258
-95.934
-88.503
-81.005
-73.479
-65.961
-58.472
-51.028
-43.62
-36.213
-28.787
-21.326
-13.817
-6.26
1.36
9.059
16.851
24.768
32.818
40.968
49.181
57.4
65.542
73.548
81.314
88.656
95.417
101.405
106.404
110.274
112.831
113.852
113.274
111.101
107.469
102.879
97.886
92.93
88.624
85.472
83.531
82.869
83.048
82.667
80.55
75.823
68.324
59.36
50.584
42.635
33.918
22.475
8.856
-1.926
1.809
32.034
93.285
181.441
282.917
382.251
470.678
545.67
608.781
660.997
700.147
722.565
725.743
710.205
677.499
629.306
567.793
494.936
413.88
328.73
242.176
156.195
73.153
-4.371
-72.926
-129.188
-172.094
-202.037
-219.389
-224.931
-219.719
-205.425
-185.562
-163.888
-142.348
-121.945
-103.117
-85.835
-70.734
-58.161
-46.949
-35.771
-24.341
-12.73
-1.752
7.509
15.327
22.035
27.197
30.472
31.784
31.178
29.441
27.545
25.399
22.871
20.152
17.337
14.757
12.722
11.085
9.615
8.51
7.955
8.063
8.977
10.578
12.706
15.352
18.493
22.047
25.937
30.047
34.244
38.491
42.787
47.126
51.532
56.004
60.539
65.162
69.908
74.812
79.9
85.189
90.683
96.393
102.332
108.514
114.947
121.625
128.534
135.655
142.967
150.449
158.073
165.803
173.603
181.434
189.261
197.048
204.76
212.358
219.802
227.054
234.074
240.825
247.264
253.351
259.046
264.311
269.111
273.414
277.188
280.407
283.046
285.085
286.509
287.303
287.458
286.966
285.826
284.039
281.61
278.55
274.87
270.587
265.72
260.294
254.335
247.871
240.935
233.561
225.784
217.645
209.183
200.443
191.466
182.299
172.989
163.583
154.128
144.672
135.261
125.939
116.752
107.741
98.947
90.406
82.155
74.227
66.652
59.458
52.669
46.306
40.387
34.927
29.938
25.426
21.397
17.852
14.788
12.201
10.082
8.421
7.202
6.409
6.02
6.013
6.362
7.038
8.01
9.244
10.707
12.362
14.172
16.097
18.1
20.14
22.179
24.176
26.093
27.892
29.534
30.985
32.208
33.173
33.847
34.203
34.215
33.858
33.113
31.96
30.385
28.375
25.921
23.018
19.663
15.857
11.606
6.918
1.807
-3.713
-9.621
-15.893
-22.502
-29.419
-36.609
-44.038
-51.665
-59.45
-67.349
-75.317
-83.307
-91.272
-99.162
-106.928
-114.523
-121.897
-129.003
-135.795
-142.227
-148.256
-153.84
-158.941
-163.521
-167.547
-170.987
-173.815
-176.006
-177.54
-178.402
-178.58
-178.066
-176.859
-174.96
-172.375
-169.116
-165.199
-160.644
-155.476
-149.725
-143.425
-136.613
-129.331
-121.622
-113.535
-105.12
-96.428
-87.513
-78.431
-69.237
-59.99
-50.745
-41.561
-32.493
-23.599
-14.934
-6.552
1.496
9.159
16.391
23.146
29.383
35.063
40.151
44.615
48.43
51.57
54.017
55.757
56.781
57.083
56.664
55.527
53.682
51.141
47.922
44.047
39.541
34.43
28.747
22.525
15.804
8.622
1.021
-6.952
-15.254
-23.834
-32.642
-41.627
-50.74
-59.929
-69.143
-78.33
-87.44
-96.422
-105.229
-113.814
-122.132
-130.139
-137.793
-145.058
-151.9
-158.287
-164.192
-169.589
-174.457
-178.78
-182.546
-185.744
-188.369
-190.417
-191.887
-192.786
-193.121
-192.908
-192.161
-190.903
-189.16
-186.966
-184.359
-181.377
-178.059
-174.45
-170.593
-166.533
-162.316
-157.983
-153.578
-149.148
-144.743
-140.415
-136.21
-132.173
-128.346
-124.773
-121.495
-118.55
-115.971
-113.779
-112.01
-110.701
-109.9
-109.662
-110.025
-111
-112.599
-114.827
-117.676
-121.127
-125.131
-129.606
-134.478
-139.687
-145.181
-150.909
-156.786
-162.697
-168.529
-174.166
-179.547
-184.654
-189.45
-193.909
-198.046
-201.887
-205.551
-209.239
-213.111
-217.32
-222.032
-227.368
-233.567
-240.994
-249.831
-260.049
-271.346
-283.087
-294.746
-306.029
-316.506
-325.498
-332.556
-337.685
-341.692
-346.252
-352.69
-361.42
-372.395
-385.672
-401.047
-417.188
-431.487
-439.906
-438.187
-424.751
-399.104
-358.876
-302.724
-228.091
-133.7
-26.806
85.49
195.399
294.761
384.39
463.371
529.646
583.647
620.258
636.114
630.855
602.402
551.701
481.984
396.076
298.259
193.441
85.255
-22.818
-126.148
-220.109
-301.231
-366.643
-415.381
-448.394
-466.325
-469.968
-461.51
-443.574
-418.767
-390.412
-360.851
-331.335
-303.577
-278.918
-257.867
-241.031
-228.941
-220.98
-216.535
-215.007
-214.973
-215.595
-216.667
-217.492
-217.291
-216.012
-213.676
-210.693
-208.237
-206.743
-206.01
-206.089
-206.905
-208.202
-209.896
-211.587
-212.498
-212.242
-210.665
-207.651
-203.31
-197.68
-190.676
-182.337
-172.748
-162.031
-150.433
-138.14
-125.274
-111.995
-98.422
-84.669
-70.897
-57.19
-43.574
-30.082
-16.709
-3.476
9.539
22.261
34.609
46.533
58.043
69.135
79.787
89.985
99.704
108.932
117.681
125.933
133.639
140.754
147.23
153.035
158.163
162.61
166.368
169.437
171.81
173.49
174.493
174.832
174.52
173.573
172.004
169.839
167.115
163.873
160.154
156.001
151.456
146.566
141.385
135.962
130.348
124.593
118.746
112.86
106.99
101.188
95.506
89.994
84.7
79.671
74.952
70.586
66.609
63.055
59.955
57.335
55.218
53.621
52.556
52.031
52.05
52.611
53.709
55.334
57.47
60.097
63.191
66.724
70.663
74.973
79.612
84.538
89.707
95.07
100.578
106.179
111.82
117.444
122.997
128.422
133.664
138.667
143.376
147.737
151.699
155.213
158.231
160.712
162.613
163.898
164.535
164.495
163.755
162.295
160.101
157.165
153.483
149.056
143.891
138
131.397
124.106
116.153
107.567
98.385
88.645
78.391
67.67
56.533
45.036
33.233
21.183
8.944
-3.419
-15.843
-28.256
-40.599
-52.81
-64.811
-76.529
-87.892
-98.825
-109.277
-119.21
-128.551
-137.231
-145.24
-152.562
-159.177
-165.085
-170.223
-174.503
-177.936
-180.564
-182.215
-182.698
-182.121
-180.474
-177.731
-174.302
-169.131
-161.195
-152.014
-142.071
-134.142
-131.55
-130.706
-129.239
-123.596
-108.883
-89.536
-69.328
-50.867
-38.42
-29.05
-19.779
-9.997
2.082
15.312
28.238
41.058
53.527
65.674
77.717
89.411
100.554
111.138
121.124
130.446
139.065
146.952
154.075
160.43
166.021
170.812
174.771
177.888
180.153
181.562
182.116
181.817
180.67
178.691
175.9
172.321
167.98
162.91
157.144
150.722
143.687
136.083
127.961
119.371
110.366
101.003
91.337
81.428
71.333
61.113
50.825
40.528
30.281
20.143
10.169
0.417
-9.06
-18.207
-26.97
-35.3
-43.148
-50.469
-57.223
-63.368
-68.869
-73.694
-77.815
-81.209
-83.855
-85.738
-86.844
-87.167
-86.705
-85.459
-83.438
-80.654
-77.12
-72.854
-67.882
-62.232
-55.935
-49.03
-41.546
-33.518
-25.001
-16.047
-6.709
2.953
12.894
23.074
33.413
43.832
54.31
64.81
75.293
85.729
96.025
106.075
115.869
125.407
134.479
142.86
150.583
157.598
163.868
169.717
174.128
176.163
177.19
177.651
180.039
187.272
196.016
204.069
208.279
204.142
195.253
184.843
175.283
170.3
167.574
163.872
156.718
144.894
131.279
120.107
116.806
121.514
128.622
132.416
125.248
106.533
83.817
63.001
50.394
47.326
48.137
49.213
48.045
43.631
38.113
32.428
26.257
19.359
11.163
1.501
-9.142
-20.168
-31.201
-42.007
-52.178
-61.171
-68.699
-74.743
-79.933
-85.753
-93.375
-103.256
-116.104
-132.596
-152.482
-175.245
-198.067
-215.04
-222.445
-218.409
-202.651
-179.501
-148.702
-103.936
-38.933
56.981
186.803
338.928
496.815
635.477
734.026
788.084
802.41
790.901
767.516
735.901
693.399
635.109
558.759
467.609
368.243
267.142
168.395
75.431
-8.09
-79.419
-136.116
-177.248
-203.914
-217.009
-217.374
-207.164
-189.39
-167.531
-145.268
-124.725
-106.566
-91.419
-79.676
-71.229
-65.557
-61.466
-57.464
-52.968
-48.125
-43.207
-38.639
-34.746
-31.788
-30.303
-30.913
-33.825
-38.906
-45.847
-54.202
-63.633
-73.865
-84.526
-95.151
-105.33
-114.802
-123.449
-131.265
-138.269
-144.455
-149.818
-154.448
-158.522
-162.159
-165.419
-168.262
-170.549
-172.222
-173.302
-173.841
-173.911
-173.506
-172.545
-170.958
-168.682
-165.633
-161.723
-156.775
-150.525
-142.85
-133.734
-123.282
-111.736
-99.261
-85.941
-71.872
-57.134
-41.829
-26.1
-10.042
6.292
22.799
39.35
55.749
71.715
87.079
101.767
115.772
129.194
142.078
154.416
166.218
177.494
188.242
198.464
208.115
217.103
225.382
232.932
239.772
245.972
251.557
256.508
260.79
264.336
267.097
269.056
270.186
270.457
269.862
268.407
266.13
263.103
259.384
255.018
250.051
244.517
238.464
231.956
225.056
217.833
210.358
202.699
194.932
187.138
179.392
171.762
164.311
157.094
150.164
143.579
137.393
131.655
126.413
121.71
117.587
114.084
111.235
109.065
107.596
106.842
106.812
107.509
108.932
111.073
113.916
117.444
121.632
126.452
131.868
137.844
144.337
151.302
158.688
166.445
174.517
182.848
191.378
200.047
208.795
217.56
226.28
234.894
243.34
251.557
259.488
267.074
274.258
280.985
287.203
292.862
297.915
302.321
306.039
309.034
311.275
312.736
313.395
313.235
312.243
310.41
307.735
304.219
299.867
294.69
288.704
281.927
274.382
266.096
257.099
247.425
237.112
226.199
214.729
202.746
190.3
177.439
164.214
150.679
136.888
122.897
108.761
94.539
80.286
66.06
51.917
37.913
24.101
10.535
-2.737
-15.665
-28.205
-40.314
-51.954
-63.088
-73.684
-83.713
-93.15
-101.973
-110.165
-117.711
-124.602
-130.832
-136.4
-141.306
-145.556
-149.16
-152.131
-154.485
-156.243
-157.428
-158.067
-158.19
-157.831
-157.027
-155.815
-154.238
-152.339
-150.162
-147.755
-145.163
-142.434
-139.614
-136.75
-133.888
-131.072
-128.345
-125.748
-123.321
-121.1
-119.118
-117.408
-115.996
-114.906
-114.16
-113.775
-113.765
-114.14
-114.905
-116.062
-117.61
-119.544
-121.853
-124.524
-127.537
-130.871
-134.499
-138.39
-142.511
-146.823
-151.285
-155.855
-160.486
-165.132
-169.745
-174.275
-178.672
-182.885
-186.865
-190.564
-193.933
-196.928
-199.503
-201.617
-203.232
-204.313
-204.831
-204.754
-204.059
-202.725
-200.736
-198.082
-194.757
-190.756
-186.083
-180.746
-174.759
-168.142
-160.919
-153.123
-144.79
-135.968
-126.707
-117.062
-107.092
-96.86
-86.429
-75.867
-65.24
-54.613
-44.055
-33.632
-23.418
-13.488
-3.915
5.233
13.89
21.993
29.479
36.287
42.365
47.674
52.169
55.802
58.513
60.23
60.9
60.497
59.005
56.42
52.75
48.008
42.238
35.525
27.948
19.584
10.493
0.71
-9.691
-20.596
-31.87
-43.355
-54.938
-66.575
-78.234
-89.862
-101.445
-112.992
-124.559
-136.317
-148.399
-160.881
-173.835
-187.327
-201.466
-216.473
-232.663
-250.198
-269.023
-288.852
-309.13
-329.311
-348.94
-367.407
-383.87
-397.712
-408.832
-417.892
-426.448
-436.096
-447.961
-461.791
-476.224
-490.103
-501.573
-511.852
-525.212
-541.182
-557.546
-564.734
-542.773
-481.336
-377.93
-240.145
-93.422
44.063
162.268
255.643
332.537
396.931
447.892
485.878
505.036
502.709
479.612
435.199
373.554
299.443
216.397
129.099
40.637
-46.924
-129.977
-204.653
-268.177
-318.436
-355.001
-378.907
-390.893
-391.772
-383.533
-369.021
-351.36
-333.65
-317.613
-303.711
-292.383
-283.927
-278.194
-274.567
-271.912
-268.873
-264.86
-260.084
-254.878
-249.647
-244.759
-240.498
-237.339
-235.884
-236.387
-238.726
-242.618
-247.628
-253.342
-259.493
-265.763
-271.763
-277.195
-281.814
-285.454
-288.071
-289.645
-290.134
-289.498
-287.71
-284.822
-280.938
-276.156
-270.575
-264.256
-257.225
-249.614
-241.61
-233.149
-224.11
-214.656
-204.805
-194.544
-184.303
-173.025
-159.667
-145.736
-131.695
-120.304
-114.875
-111.798
-108.667
-101.894
-86.542
-67.014
-47.058
-29.254
-17.842
-9.851
-2.273
5.528
15.365
26.118
36.367
46.344
55.842
64.927
73.852
82.409
90.43
97.945
104.944
111.392
117.279
122.601
127.357
131.566
135.258
138.418
141.038
143.127
144.693
145.747
146.306
146.378
145.979
145.127
143.848
142.164
140.101
137.685
134.943
131.903
128.596
125.052
121.303
117.378
113.307
109.118
104.843
100.514
96.162
91.817
87.507
83.254
79.084
75.032
71.116
67.338
63.704
60.213
56.881
53.75
50.837
48.122
45.633
43.444
41.609
40.189
39.193
38.539
38.196
38.251
38.613
38.954
39.185
39.398
39.545
39.946
40.002
37.675
33.292
28.742
26.985
33.751
48.946
66.73
81.376
84.745
75.945
62.731
51.123
47.507
53.286
62.67
72.011
78.925
82.56
85.26
88.156
91.148
94.326
97.34
100.081
102.865
105.795
108.813
111.923
115.14
118.447
121.829
125.252
128.657
132.022
135.364
138.685
141.973
145.221
148.415
151.546
154.61
157.593
160.48
163.252
165.893
168.386
170.712
172.853
174.789
176.501
177.968
179.171
180.089
180.704
180.996
180.946
180.536
179.749
178.568
176.977
174.963
172.512
169.614
166.258
162.436
158.143
153.375
148.13
142.409
136.214
129.55
122.426
114.851
106.838
98.403
89.564
80.34
70.757
60.84
50.618
40.121
29.383
18.439
7.325
-3.919
-15.254
-26.637
-38.027
-49.379
-60.647
-71.787
-82.751
-93.493
-103.967
-114.126
-123.926
-133.319
-142.263
-150.715
-158.633
-165.976
-172.706
-178.786
-184.18
-188.856
-192.784
-195.935
-198.283
-199.807
-200.488
-200.311
-199.265
-197.341
-194.536
-190.848
-186.281
-180.842
-174.542
-167.395
-159.421
-150.641
-141.082
-130.775
-119.754
-108.055
-95.718
-82.787
-69.308
-55.331
-40.906
-26.088
-10.932
4.505
20.161
35.975
51.883
67.817
83.71
99.491
115.088
130.427
145.439
160.053
174.201
187.818
200.842
213.216
224.888
235.806
245.921
255.18
263.539
270.957
277.401
282.839
287.245
290.593
292.87
294.077
294.213
293.274
291.248
288.109
283.851
278.485
272.036
264.538
256.039
246.595
236.289
225.242
213.57
201.387
188.786
175.832
162.618
149.265
135.91
122.711
109.782
97.179
84.959
73.163
61.788
50.795
40.077
29.456
18.784
7.935
-3.216
-14.768
-26.855
-39.626
-53.268
-68.04
-84.034
-101.092
-118.852
-136.775
-154.317
-171.019
-186.23
-199.013
-208.805
-215.688
-220.433
-224.316
-228.201
-232.547
-237.948
-244.982
-253.903
-262.988
-267.925
-265.258
-252.993
-231.74
-204.959
-170.891
-123.189
-54.766
41.074
162.566
298.821
435.3
558.235
657.312
728.246
773.932
796.874
799.497
784.718
749.883
693.72
618.808
527.715
426.038
319.874
212.636
107.132
6.737
-85.142
-165.637
-232.152
-283.509
-320.095
-342.247
-350.459
-346.441
-332.433
-310.983
-285.452
-258.575
-232.198
-207.868
-186.609
-168.898
-155.179
-145.506
-138.934
-134.353
-130.604
-126.896
-123.058
-118.943
-114.147
-108.217
-101.24
-93.829
-86.936
-81.16
-76.523
-72.93
-70.33
-68.869
-68.531
-68.858
-69.17
-68.949
-67.98
-66.265
-63.883
-60.798
-56.967
-52.488
-47.537
-42.314
-36.973
-31.575
-26.157
-20.788
-15.579
-10.669
-6.167
-2.129
1.416
4.459
6.995
9.023
10.56
11.654
12.347
12.676
12.672
12.356
11.756
10.911
9.863
8.656
7.337
5.943
4.512
3.078
1.671
0.318
-0.956
-2.132
-3.187
-4.097
-4.84
-5.39
-5.726
-5.828
-5.679
-5.264
-4.572
-3.598
-2.338
-0.794
1.032
3.136
5.508
8.137
11.01
14.113
17.426
20.93
24.602
28.416
32.348
36.367
40.447
44.557
48.667
52.745
56.761
60.683
64.483
68.13
71.595
74.85
77.868
80.624
83.093
85.254
87.086
88.57
89.689
90.431
90.784
90.741
90.295
89.443
88.184
86.52
84.456
81.999
79.157
75.943
72.371
68.457
64.221
59.684
54.868
49.798
44.499
38.998
33.324
27.505
21.57
15.548
9.468
3.361
-2.744
-8.819
-14.834
-20.761
-26.574
-32.246
-37.751
-43.066
-48.168
-53.034
-57.647
-61.99
-66.046
-69.795
-73.223
-76.318
-79.069
-81.476
-83.533
-85.227
-86.562
-87.563
-88.25
-88.649
-88.769
-88.588
-88.113
-87.393
-86.418
-85.13
-83.491
-81.455
-79.035
-76.344
-73.428
-70.206
-66.803
-63.599
-60.689
-57.987
-55.56
-53.038
-51.168
-52.209
-55.676
-59.539
-60.408
-51.916
-34.524
-14.631
1.364
4.386
-6.071
-21.458
-35.169
-40.045
-34.896
-26.123
-17.634
-12.119
-10.362
-9.742
-9.081
-8.455
-7.767
-7.401
-7.443
-7.531
-7.548
-7.543
-7.497
-7.38
-7.195
-6.945
-6.65
-6.359
-6.079
-5.77
-5.412
-4.998
-4.518
-3.964
-3.327
-2.591
-1.747
-0.793
0.273
1.454
2.752
4.169
5.705
7.358
9.126
11.005
12.992
15.082
17.271
19.553
21.921
24.371
26.896
29.488
32.14
34.842
37.586
40.361
43.158
45.965
48.771
51.564
54.333
57.065
59.75
62.377
64.932
67.406
69.785
72.059
74.217
76.25
78.147
79.899
81.497
82.934
84.204
85.3
86.215
86.944
87.48
87.82
87.957
87.887
87.605
87.107
86.391
85.456
84.304
82.934
81.349
79.551
77.543
75.328
72.912
70.293
67.471
64.446
61.223
57.804
54.194
50.4
46.426
42.286
37.995
33.568
29.014
24.348
19.579
14.722
9.792
4.806
-0.226
-5.286
-10.359
-15.426
-20.464
-25.461
-30.413
-35.323
-40.206
-45.064
-49.891
-54.682
-59.43
-64.117
-68.716
-73.174
-77.41
-81.358
-84.955
-88.138
-90.855
-93.034
-94.6
-95.489
-95.644
-95.04
-93.664
-91.518
-88.61
-84.971
-80.692
-75.929
-70.921
-65.914
-61.161
-56.899
-53.402
-51.047
-50.064
-50.477
-52.107
-54.491
-57.197
-59.966
-62.425
-63.964
-64.29
-63.606
-62.582
-62.616
-64.959
-70.069
-78.295
-90.115
-105.288
-122.474
-139.337
-152.091
-156.442
-149.543
-129.166
-92.494
-38.954
30.564
115.814
212.963
318.968
432.246
544.82
648.743
734.921
793.558
824.988
831.659
816.944
785.324
734.356
663.474
575.525
473.435
363.907
252.502
142.144
37.259
-57.52
-138.755
-203.521
-251.025
-282.68
-299.701
-303.364
-296.292
-282.013
-264.328
-246.875
-231.627
-218.985
-209.214
-202.387
-198.045
-195.332
-192.946
-189.533
-184.709
-178.823
-172.318
-165.743
-159.604
-154.383
-150.771
-149.521
-150.991
-155.213
-162.088
-171.332
-182.645
-195.715
-210.06
-225.058
-240.122
-254.818
-268.845
-282.031
-294.242
-305.32
-315.151
-323.655
-330.773
-336.428
-340.494
-342.865
-343.491
-342.415
-339.774
-335.783
-330.683
-324.657
-317.853
-310.375
-302.283
-293.626
-284.425
-274.67
-264.353
-253.505
-242.197
-230.508
-218.505
-206.216
-193.637
-180.741
-167.487
-153.846
-139.799
-125.344
-110.504
-95.319
-79.847
-64.166
-48.359
-32.496
-16.633
-0.824
14.883
30.432
45.762
60.811
75.511
89.79
103.579
116.809
129.417
141.35
152.56
163.005
172.651
181.466
189.423
196.493
202.65
207.872
212.14
215.438
217.756
219.088
219.436
218.807
217.212
214.671
211.204
206.841
201.613
195.554
188.705
181.108
172.81
163.861
154.313
144.221
133.642
122.638
111.271
99.605
87.704
75.633
63.459
51.246
39.058
26.96
15.013
3.279
-8.184
-19.318
-30.067
-40.381
-50.208
-59.504
-68.228
-76.343
-83.817
-90.622
-96.736
-102.143
-106.829
-110.787
-114.015
-116.516
-118.298
-119.373
-119.76
-119.481
-118.565
-117.041
-114.947
-112.322
-109.209
-105.654
-101.708
-97.421
-92.85
-88.05
-83.08
-78
-72.871
-67.755
-62.713
-57.807
-53.096
-48.639
-44.496
-40.72
-37.366
-34.483
-32.12
-30.32
-29.124
-28.569
-28.685
-29.499
-31.034
-33.305
-36.322
-40.093
-44.616
-49.886
-55.894
-62.625
-70.058
-78.168
-86.924
-96.294
-106.236
-116.707
-127.661
-139.045
-150.807
-162.888
-175.23
-187.772
-200.451
-213.204
-225.963
-238.663
-251.236
-263.615
-275.732
-287.519
-298.911
-309.843
-320.256
-330.091
-339.294
-347.817
-355.612
-362.638
-368.86
-374.243
-378.761
-382.387
-385.103
-386.894
-387.752
-387.672
-386.658
-384.714
-381.853
-378.09
-373.445
-367.944
-361.611
-354.479
-346.581
-337.955
-328.645
-318.7
-308.171
-297.113
-285.588
-273.662
-261.403
-248.88
-236.159
-223.307
-210.389
-197.471
-184.613
-171.873
-159.302
-146.956
-134.892
-123.17
-111.848
-100.983
-90.626
-80.83
-71.647
-63.123
-55.299
-48.203
-41.851
-36.266
-31.473
-27.503
-24.39
-22.15
-20.777
-20.261
-20.586
-21.708
-23.568
-26.076
-29.102
-32.552
-36.358
-40.472
-44.882
-49.571
-54.513
-59.697
-65.105
-70.72
-76.542
-82.543
-88.676
-94.944
-101.371
-108.041
-115.11
-122.665
-130.718
-139.243
-148.145
-157.292
-166.538
-175.688
-184.508
-192.803
-200.383
-207.109
-212.918
-217.708
-221.365
-223.724
-224.508
-223.507
-220.601
-215.713
-208.84
-200.051
-189.435
-177.143
-163.432
-148.522
-132.614
-115.875
-98.356
-80.094
-61.122
-41.521
-21.486
-1.221
19.12
39.429
59.591
79.526
99.138
118.319
137.098
155.507
173.55
191.199
208.286
224.562
239.751
253.641
266.093
276.991
286.188
293.465
298.679
301.739
302.601
301.246
297.451
291.035
282.05
270.737
257.629
243.35
228.421
213.404
199.076
185.929
173.871
162.474
150.782
137.648
122.319
104.081
82.08
57.218
32.437
10.715
-5.22
-15.77
-24.215
-31.413
-33.621
-20.575
19.694
94.807
204.253
334.337
465.998
580.086
660.839
705.829
721.658
718.397
706.26
688.202
659.983
615.203
550.823
468.312
373.733
276.088
180.708
89.75
3.112
-81.587
-162.917
-235.32
-288.948
-311.966
-299.769
-254.635
-187.34
-115.395
-49.469
4.886
46.783
83.329
117.244
148.273
177.328
200.656
216.939
227.837
233.74
237.418
241.418
246.576
253.721
262.737
272.68
282.672
291.745
298.666
302.672
303.378
300.634
294.792
286.423
276.052
264.293
251.845
239.158
226.565
214.345
202.566
191.324
180.783
170.995
161.976
153.749
146.245
139.33
132.827
126.486
120.116
113.589
106.774
99.543
91.739
83.222
73.959
63.991
53.362
42.126
30.367
18.194
5.821
-6.432
-18.243
-29.31
-39.384
-48.252
-55.672
-61.343
-64.929
-66.173
-64.938
-61.188
-54.934
-46.187
-35.016
-21.562
-6.08
11.072
29.583
49.206
69.736
90.971
112.663
134.497
156.128
177.287
197.772
217.422
236.107
253.686
270.073
285.255
299.305
312.351
324.464
335.65
345.882
355.132
363.394
370.696
377.067
382.489
386.941
390.405
392.871
394.344
394.806
394.203
392.45
389.456
385.169
379.579
372.698
364.552
355.175
344.606
332.91
320.176
306.492
291.942
276.605
260.564
243.912
226.759
209.225
191.429
173.487
155.51
137.61
119.895
102.468
85.427
68.86
52.848
37.472
22.813
8.947
-4.052
-16.119
-27.194
-37.225
-46.164
-53.975
-60.628
-66.106
-70.399
-73.506
-75.432
-76.191
-75.806
-74.305
-71.725
-68.108
-63.505
-57.969
-51.563
-44.355
-36.415
-27.819
-18.647
-8.981
1.094
11.493
22.127
32.911
43.757
54.579
65.289
75.806
86.045
95.93
105.384
114.336
122.719
130.473
137.542
143.877
149.437
154.187
158.096
161.144
163.315
164.602
165.003
164.524
163.176
160.979
157.957
154.14
149.567
144.278
138.322
131.749
124.616
116.983
108.911
100.468
91.721
82.74
73.598
64.366
55.118
45.926
36.862
27.996
19.398
11.132
3.263
-4.152
-11.057
-17.401
-23.137
-28.225
-32.628
-36.315
-39.261
-41.446
-42.857
-43.486
-43.329
-42.391
-40.682
-38.214
-35.01
-31.093
-26.495
-21.249
-15.395
-8.977
-2.042
5.359
13.172
21.338
29.799
38.491
47.351
56.315
65.319
74.296
83.183
91.917
100.435
108.679
116.591
124.116
131.202
137.801
143.871
149.369
154.262
158.518
162.111
165.021
167.23
168.73
169.512
169.576
168.925
167.568
165.517
162.792
159.414
155.411
150.815
145.664
139.997
133.86
127.3
120.367
113.113
105.594
97.864
89.982
82.002
73.984
65.984
58.06
50.267
42.66
35.29
28.208
21.46
15.09
9.139
3.641
-1.372
-5.871
-9.832
-13.234
-16.059
-18.294
-19.932
-20.971
-21.409
-21.254
-20.519
-19.225
-17.398
-15.068
-12.265
-9.026
-5.389
-1.395
2.914
7.497
12.318
17.33
22.487
27.742
33.045
38.351
43.616
48.792
53.834
58.701
63.351
67.747
71.86
75.647
79.07
82.085
84.64
86.701
88.248
89.257
89.715
89.625
88.994
87.86
86.284
84.317
82.022
79.467
76.712
73.842
70.924
68.02
65.204
62.518
59.982
57.619
55.433
53.413
51.541
49.725
47.804
45.619
42.95
39.619
35.418
30.026
23.349
15.475
6.641
-2.63
-11.872
-20.867
-29.197
-36.274
-42.12
-47.119
-52.126
-58.71
-67.784
-79.44
-93.923
-111.418
-131.154
-151.583
-169.925
-182.124
-185.132
-177.275
-156.976
-122.778
-74.163
-11.695
62.123
142.729
225.867
308.328
386.766
457.166
515.503
558.072
582.607
588.982
577.469
547.932
500.576
437.016
360.279
274.52
183.997
91.956
1.596
-83.298
-158.523
-220.696
-268.29
-301.458
-321.331
-329.063
-326.106
-314.769
-298.495
-280.894
-264.214
-249.47
-236.918
-226.595
-218.553
-212.446
-207.086
-200.972
-193.404
-184.386
-174.329
-163.873
-153.428
-143.33
-134.199
-126.73
-121.277
-117.934
-116.563
-116.643
-117.711
-119.676
-122.292
-125.229
-128.537
-130.975
-131.444
-131.277
-130.883
-132.754
-139.868
-148.87
-157.574
-162.745
-159.918
-153.195
-146.042
-140.859
-141.582
-145.533
-150.01
-154.447
-157.16
-159.139
-161.637
-164.388
-167.53
-170.933
-174.267
-177.633
-181.099
-184.562
-187.96
-191.251
-194.362
-197.216
-199.741
-201.857
-203.486
-204.594
-205.15
-205.11
-204.444
-203.13
-201.15
-198.491
-195.142
-191.09
-186.329
-180.859
-174.687
-167.824
-160.288
-152.103
-143.3
-133.918
-124.001
-113.596
-102.756
-91.538
-80.001
-68.21
-56.232
-44.134
-31.987
-19.862
-7.834
4.025
15.64
26.942
37.86
48.327
58.275
67.643
76.372
84.406
91.695
98.192
103.855
108.648
112.541
115.508
117.532
118.601
118.71
117.861
116.062
113.328
109.683
105.153
99.771
93.578
86.616
78.936
70.59
61.635
52.131
42.143
31.735
20.976
9.935
-1.318
-12.71
-24.173
-35.635
-47.026
-58.277
-69.324
-80.099
-90.542
-100.592
-110.194
-119.295
-127.847
-135.806
-143.133
-149.793
-155.757
-161
-165.503
-169.254
-172.242
-174.465
-175.925
-176.627
-176.584
-175.812
-174.331
-172.166
-169.347
-165.904
-161.876
-157.3
-152.219
-146.678
-140.724
-134.407
-127.778
-120.889
-113.795
-106.55
-99.21
-91.83
-84.467
-77.175
-70.009
-63.021
-56.264
-49.788
-43.64
-37.867
-32.51
-27.61
-23.205
-19.328
-16.009
-13.277
-11.153
-9.659
-8.81
-8.619
-9.094
-10.239
-12.057
-14.543
-17.691
-21.49
-25.926
-30.982
-36.635
-42.863
-49.635
-56.922
-64.69
-72.901
-81.516
-90.495
-99.792
-109.359
-119.153
-129.127
-139.231
-149.416
-159.633
-169.827
-179.954
-189.969
-199.815
-209.437
-218.784
-227.801
-236.456
-244.727
-252.562
-259.912
-266.78
-273.161
-279.052
-284.46
-289.34
-293.621
-297.318
-300.476
-302.947
-304.562
-305.42
-305.515
-304.824
-303.712
-301.233
-296.466
-290.77
-284.572
-280.353
-281.082
-283.535
-285.574
-284.004
-274.423
-260.792
-246.476
-233.792
-226.545
-222.082
-217.712
-212.866
-205.918
-197.872
-190.004
-182.114
-174.395
-166.794
-159.093
-151.486
-144.133
-137.018
-130.153
-123.579
-117.309
-111.352
-105.715
-100.387
-95.345
-90.608
-86.188
-82.083
-78.29
-74.806
-71.621
-68.731
-66.127
-63.794
-61.716
-59.876
-58.255
-56.836
-55.597
-54.519
-53.582
-52.768
-52.056
-51.429
-50.866
-50.347
-49.854
-49.366
-48.864
-48.33
-47.746
-47.097
-46.37
-45.556
-44.649
-43.647
-42.549
-41.353
-40.062
-38.677
-37.202
-35.637
-33.987
-32.254
-30.445
-28.57
-26.638
-24.664
-22.661
-20.647
-18.638
-16.649
-14.698
-12.803
-10.982
-9.25
-7.629
-6.139
-4.81
-3.682
-2.788
-2.159
-1.819
-1.785
-2.067
-2.666
-3.566
-4.727
-6.093
-7.605
-9.206
-10.852
-12.512
-14.161
-15.767
-17.291
-18.712
-20.019
-21.207
-22.263
-23.181
-23.989
-24.776
-25.719
-27.047
-28.98
-31.769
-35.711
-40.931
-47.368
-54.82
-62.839
-70.971
-78.989
-86.512
-93.04
-98.631
-103.749
-109.281
-116.698
-126.978
-140.283
-156.903
-177.103
-200.096
-224.348
-247.156
-264.565
-273.54
-272.251
-258.853
-231.634
-189.999
-134.446
-67.412
6.631
83.633
160.373
233.374
298.557
352.064
390.652
412.313
417.136
405.638
377.478
333.916
277.628
210.273
135.377
54.354
-32.835
-119.809
-200.554
-267.375
-312.313
-338.188
-348.921
-348.403
-342.095
-328.742
-307.937
-282.619
-254.662
-227.523
-203.594
-182.835
-165.433
-151.217
-139.567
-129.613
-120.052
-110.1
-99.666
-89.055
-78.797
-69.272
-60.733
-53.623
-48.466
-45.48
-44.645
-45.72
-48.249
-51.885
-56.332
-61.228
-66.281
-71.26
-75.98
-80.367
-84.398
-88.02
-91.208
-93.958
-96.252
-98.119
-99.6
-100.713
-101.517
-102.072
-102.44
-102.699
-102.891
-103.023
-103.093
-103.076
-102.935
-102.641
-102.148
-101.394
-100.338
-98.936
-97.148
-94.948
-92.3
-89.165
-85.507
-81.291
-76.494
-71.103
-65.112
-58.518
-51.328
-43.555
-35.217
-26.345
-16.965
-7.104
3.209
13.942
25.062
36.526
48.293
60.318
72.553
84.946
97.442
109.984
122.514
134.974
147.308
159.459
171.37
182.984
194.248
205.109
215.517
225.421
234.775
243.534
251.659
259.111
265.86
271.875
277.131
281.61
285.296
288.177
290.249
291.51
291.963
291.616
290.482
288.578
285.928
282.558
278.498
273.786
268.459
262.561
256.138
249.239
241.914
234.215
226.198
217.916
209.428
200.787
192.052
183.279
174.523
165.839
157.279
148.896
140.737
132.848
125.274
118.054
111.224
104.817
98.863
93.384
88.401
83.93
79.981
76.561
73.67
71.306
69.458
68.116
67.261
66.873
66.927
67.392
68.238
69.43
70.928
72.694
74.684
76.854
79.158
81.55
83.982
86.406
88.775
91.042
93.159
95.084
96.77
98.179
99.269
100.006
100.356
100.289
99.779
98.805
97.348
95.395
92.938
89.974
86.502
82.529
78.066
73.126
67.73
61.902
55.669
49.064
42.122
34.882
27.386
19.678
11.808
3.822
-4.227
-12.286
-20.304
-28.225
-35.996
-43.562
-50.87
-57.867
-64.503
-70.729
-76.497
-81.762
-86.485
-90.626
-94.152
-97.034
-99.244
-100.762
-101.571
-101.66
-101.023
-99.657
-97.566
-94.759
-91.249
-87.053
-82.195
-76.701
-70.604
-63.937
-56.741
-49.059
-40.934
-32.418
-23.559
-14.413
-5.034
4.521
14.194
23.925
33.656
43.328
52.881
62.257
71.4
80.254
88.766
96.884
104.561
111.751
118.411
124.504
129.994
134.852
139.051
142.569
145.388
147.496
148.884
149.548
149.489
148.712
147.227
145.047
142.191
138.681
134.545
129.811
124.514
118.691
112.382
105.631
98.483
90.986
83.191
75.148
66.913
58.54
50.084
41.602
33.149
24.784
16.56
8.534
0.759
-6.714
-13.836
-20.559
-26.84
-32.636
-37.908
-42.622
-46.746
-50.252
-53.115
-55.316
-56.84
-57.677
-57.82
-57.266
-56.019
-54.085
-51.478
-48.213
-44.311
-39.796
-34.697
-29.048
-22.886
-16.251
-9.189
-1.749
6.013
14.039
22.268
30.636
39.079
47.53
55.926
64.2
72.293
80.146
87.7
94.897
101.677
107.98
113.752
118.943
123.508
127.403
130.59
133.032
134.708
135.61
135.726
135.04
133.526
131.151
127.902
123.791
118.842
113.078
106.539
99.273
91.358
82.912
74.042
64.845
55.399
45.759
36.01
26.274
16.69
7.403
-1.479
-9.913
-17.863
-25.272
-32.126
-38.443
-44.294
-49.865
-55.315
-60.751
-66.277
-71.975
-77.944
-84.408
-91.662
-99.859
-108.985
-118.754
-128.649
-138.287
-147.351
-155.356
-161.654
-165.644
-167.084
-166.598
-165.495
-164.828
-165.299
-167.272
-170.88
-176.285
-183.144
-189.569
-192.528
-189.011
-175.949
-150.973
-112.706
-59.468
8.906
89.388
179.568
277.315
380.474
490.079
601.948
705.632
791.006
846.398
868.092
862.704
836.842
797.709
747.834
683.149
602.304
506.185
397.868
283.343
166.692
50.869
-60.527
-163.871
-255.614
-333.406
-396.593
-445.337
-479.983
-501.356
-511.236
-512.865
-510.003
-505.18
-499.678
-494.061
-488.53
-483.17
-477.704
-470.861
-460.923
-447.046
-429.214
-407.932
-384.065
-358.37
-331.49
-304.303
-277.754
-252.331
-228.19
-205.227
-183.123
-161.653
-140.65
-119.925
-99.307
-78.649
-57.84
-36.847
-15.688
5.626
27.012
48.336
69.384
89.82
109.332
127.639
144.465
159.583
172.766
183.829
192.679
199.271
203.584
205.667
205.588
203.466
199.545
194.076
187.324
179.626
171.244
162.413
153.376
144.324
135.42
126.815
118.608
110.864
103.658
97.023
90.95
85.392
80.245
75.435
70.866
66.438
62.11
57.851
53.683
49.695
45.922
42.367
39.246
36.806
34.995
33.887
33.591
33.821
35.66
40.134
45.935
52.686
57.911
58.624
58.114
58.543
63.121
76.283
93.988
112.792
130.324
142.695
152.554
162.584
173.312
186.336
200.589
214.727
228.902
242.864
256.615
270.326
283.758
296.701
309.121
320.953
332.108
342.519
352.133
360.893
368.767
375.731
381.733
386.724
390.681
393.581
395.408
396.155
395.816
394.392
391.894
388.341
383.753
378.159
371.592
364.088
355.693
346.453
336.422
325.656
314.213
302.16
289.561
276.487
263.008
249.198
235.131
220.883
206.529
192.145
177.805
163.584
149.554
135.785
122.345
109.297
96.703
84.619
73.099
62.19
51.936
42.376
33.544
25.469
18.174
11.679
5.996
1.133
-2.909
-6.134
-8.549
-10.17
-11.015
-11.11
-10.483
-9.168
-7.203
-4.63
-1.495
2.155
6.266
10.784
15.653
20.815
26.21
31.777
37.455
43.184
48.903
54.553
60.075
65.414
70.516
75.327
79.8
83.888
87.549
90.745
93.44
95.603
97.21
98.238
98.671
98.497
97.709
96.304
94.286
91.661
88.442
84.646
80.293
75.408
70.02
64.164
57.874
51.19
44.155
36.814
29.214
21.403
13.432
5.352
-2.785
-10.926
-19.02
-27.014
-34.858
-42.501
-49.896
-56.997
-63.758
-70.138
-76.099
-81.604
-86.62
-91.119
-95.073
-98.462
-101.266
-103.471
-105.066
-106.045
-106.405
-106.147
-105.276
-103.8
-101.73
-99.083
-95.876
-92.131
-87.874
-83.131
-77.932
-72.311
-66.301
-59.938
-53.261
-46.308
-39.119
-31.734
-24.195
-16.543
-8.82
-1.067
6.674
14.362
21.958
29.422
36.717
43.807
50.657
57.235
63.51
69.454
75.038
80.239
85.031
89.394
93.308
96.753
99.715
102.18
104.138
105.579
106.496
106.886
106.746
106.077
104.879
103.155
100.909
98.147
94.877
91.108
86.852
82.122
76.934
71.303
65.248
58.788
51.945
44.736
37.181
29.297
21.102
12.614
3.855
-5.154
-14.391
-23.832
-33.446
-43.201
-53.062
-62.994
-72.969
-82.955
-92.922
-102.843
-112.688
-122.427
-132.031
-141.466
-150.701
-159.7
-168.424
-176.842
-184.93
-192.675
-200.082
-207.149
-213.857
-220.184
-226.107
-231.589
-236.59
-241.061
-244.924
-248.108
-250.555
-252.208
-253.042
-253.047
-252.204
-250.482
-247.825
-244.203
-239.65
-234.231
-228.021
-221.084
-213.473
-205.296
-196.777
-188.168
-179.699
-171.608
-164.033
-157.131
-151.178
-146.306
-142.544
-139.792
-137.588
-135.383
-132.83
-129.464
-124.718
-118.568
-111.076
-102.452
-93.935
-86.777
-81.8
-80.226
-82.006
-84.891
-86.739
-85.905
-83.18
-81.773
-82.843
-82.68
-68.543
-26.342
51.41
164.804
296.611
423.971
531.206
604.732
645.524
664.374
666.574
658.216
639.849
603.891
546.887
468.639
371.549
262.727
148.63
33.053
-80.924
-189.669
-288.872
-374.525
-443.52
-495.269
-531.11
-551.954
-558.974
-554.602
-541.781
-523.958
-504.473
-484.493
-464.063
-443.888
-424.486
-406.222
-389.73
-374.761
-360.972
-349.544
-341.737
-338.001
-338.621
-343.013
-349.766
-358.264
-368.009
-377.632
-386.09
-392.768
-397.136
-399.583
-401.092
-402.012
-402.502
-402.968
-403.497
-404.159
-405.081
-405.91
-406.129
-405.537
-404.021
-401.556
-398.309
-394.355
-389.764
-384.758
-379.485
-374.029
-368.671
-363.629
-358.773
-354.11
-349.673
-345.089
-341.387
-339.536
-338.079
-336.554
-332.341
-322.315
-309.904
-297.377
-288.118
-286.792
-289.241
-291.948
-292.51
-286.947
-278.098
-268.844
-259.823
-252.797
-246.756
-240.398
-233.977
-227.335
-220.566
-213.946
-207.312
-200.537
-193.68
-186.766
-179.796
-172.792
-165.788
-158.811
-151.909
-145.137
-138.505
-132.028
-125.733
-119.644
-113.785
-108.18
-102.851
-97.814
-93.093
-88.707
-84.675
-81.013
-77.736
-74.855
-72.381
-70.321
-68.68
-67.461
-66.664
-66.288
-66.326
-66.771
-67.612
-68.836
-70.428
-72.37
-74.641
-77.218
-80.077
-83.19
-86.531
-90.067
-93.77
-97.606
-101.543
-105.547
-109.586
-113.626
-117.632
-121.572
-125.414
-129.127
-132.681
-136.047
-139.2
-142.115
-144.771
-147.148
-149.232
-151.007
-152.466
-153.6
-154.406
-154.883
-155.034
-154.865
-154.383
-153.599
-152.526
-151.182
-149.583
-147.751
-145.707
-143.476
-141.085
-138.56
-135.93
-133.225
-130.476
-127.713
-124.968
-122.272
-119.655
-117.148
-114.779
-112.577
-110.566
-108.77
-107.209
-105.903
-104.866
-104.11
-103.643
-103.469
-103.591
-104.005
-104.706
-105.684
-106.927
-108.418
-110.14
-112.071
-114.186
-116.459
-118.861
-121.36
-123.923
-126.516
-129.101
-131.64
-134.095
-136.425
-138.591
-140.552
-142.268
-143.699
-144.807
-145.555
-145.907
-145.831
-145.295
-144.272
-142.74
-140.676
-138.065
-134.896
-131.16
-126.854
-121.978
-116.539
-110.544
-104.007
-96.946
-89.38
-81.333
-72.834
-63.913
-54.603
-44.941
-34.965
-24.717
-14.239
-3.577
7.223
18.115
29.049
39.977
50.85
61.62
72.238
82.658
92.835
102.726
112.289
121.488
130.288
138.659
146.574
154.01
160.948
167.375
173.28
178.658
183.505
187.825
191.624
194.909
197.695
199.998
201.837
203.234
204.213
204.802
205.028
204.922
204.516
203.843
202.936
201.83
200.561
199.162
197.67
196.116
194.535
192.957
191.41
189.922
188.515
187.211
186.026
184.974
184.067
183.311
182.71
182.262
181.965
181.811
181.79
181.888
182.088
182.372
182.716
183.1
183.498
183.884
184.231
184.512
184.702
184.773
184.698
184.452
184.007
183.338
182.424
181.242
179.774
178.001
175.909
173.487
170.729
167.63
164.191
160.413
156.303
151.872
147.135
142.111
136.821
131.29
125.545
119.621
113.553
107.38
101.14
94.875
88.628
82.439
76.353
70.408
64.639
59.081
53.769
48.738
44.021
39.649
35.654
32.066
28.92
26.247
24.071
22.407
21.267
20.659
20.591
21.067
22.085
23.637
25.713
28.309
31.422
35.034
39.118
43.624
48.486
53.647
59.065
64.7
70.516
76.483
82.58
88.815
95.223
101.831
108.652
115.675
122.881
130.277
137.884
145.738
153.883
162.322
171.024
179.948
189.035
198.18
207.258
216.101
224.461
232.115
238.87
244.533
248.913
251.835
253.023
252.12
249.003
243.709
236.443
227.743
218.141
208.077
198.335
189.867
182.964
177.652
173.567
169.205
163.375
155.456
144.079
129.521
114.74
101.918
93.82
90.703
87.685
83.102
79.082
85.866
120.813
196.005
317.336
474.756
644.497
802.019
921.706
991.722
1016.938
1009.307
987.05
961.475
932.685
895.128
840.037
763.995
669.741
562.517
450.104
338.538
230.043
127.071
30.87
-59.799
-140.521
-203.953
-244.364
-253.377
-230.732
-186.333
-129.475
-70.783
-16.489
35.059
84.292
129.928
169.644
200.064
220.085
230.741
234.064
232.316
227.395
221.562
217.17
214.553
213.7
215.705
219.808
227.785
241.38
256.77
273.106
286.062
288.865
282.401
264.214
237.659
213.589
196.31
192.748
203.296
217.758
230.148
234.279
228.283
219.316
213.121
211.595
213.521
212.983
202.696
182.858
159.199
137.945
127.447
127.945
131.462
132.001
123.161
103.908
80.291
56.186
34.388
16.133
-0.376
-15.67
-29.18
-40.577
-49.225
-54.803
-57.407
-56.981
-53.363
-46.499
-36.414
-23.088
-6.48
13.327
36.135
61.559
88.935
117.628
147.102
176.817
206.367
235.381
263.444
290.281
315.738
339.579
361.53
381.278
398.44
412.846
424.572
433.724
440.463
445.18
448.558
451.036
452.749
453.935
454.334
454.795
457.88
463.157
468.322
469.67
460.129
440.092
416.932
397.919
393.265
403.733
419.414
432.525
434.784
424.515
408.962
392.683
378.773
368.26
358.208
347.269
335.551
322.962
309.988
296.78
283.007
268.643
253.872
238.843
223.693
208.554
193.544
178.779
164.38
150.429
136.944
123.941
111.466
99.56
88.266
77.629
67.674
58.419
49.875
42.041
34.906
28.458
22.685
17.568
13.091
9.233
5.976
3.3
1.183
-0.408
-1.51
-2.166
-2.423
-2.33
-1.939
-1.305
-0.485
0.463
1.484
2.523
3.522
4.427
5.181
5.73
6.022
6.006
5.634
4.86
3.639
1.932
-0.295
-3.073
-6.429
-10.384
-14.955
-20.155
-25.991
-32.464
-39.572
-47.308
-55.66
-64.609
-74.133
-84.203
-94.785
-105.841
-117.329
-129.199
-141.401
-153.88
-166.578
-179.435
-192.388
-205.374
-218.325
-231.174
-243.854
-256.296
-268.432
-280.195
-291.52
-302.341
-312.598
-322.231
-331.182
-339.401
-346.843
-353.462
-359.221
-364.085
-368.02
-371.007
-373.035
-374.081
-374.13
-373.178
-371.22
-368.28
-364.397
-359.58
-353.847
-347.273
-339.929
-331.885
-323.232
-313.997
-304.188
-293.903
-283.27
-272.212
-260.626
-248.698
-236.497
-224.069
-211.877
-198.971
-184.426
-169.755
-155.469
-144.275
-139.398
-137.418
-136.076
-131.97
-120.401
-105.628
-91.264
-79.793
-75.287
-74.89
-75.696
-77.071
-77.241
-77.244
-78.408
-80.468
-83.579
-87.627
-92.315
-97.783
-104.133
-111.272
-119.139
-127.696
-136.878
-146.613
-156.829
-167.433
-178.322
-189.437
-200.716
-212.079
-223.451
-234.758
-245.92
-256.867
-267.53
-277.836
-287.717
-297.108
-305.947
-314.178
-321.749
-328.614
-334.728
-340.055
-344.562
-348.221
-351.011
-352.917
-353.928
-354.04
-353.256
-351.584
-349.039
-345.639
-341.41
-336.38
-330.584
-324.06
-316.848
-308.995
-300.547
-291.558
-282.084
-272.185
-261.923
-251.365
-240.575
-229.621
-218.572
-207.495
-196.459
-185.53
-174.773
-164.253
-154.033
-144.178
-134.748
-125.801
-117.391
-109.57
-102.388
-95.895
-90.136
-85.148
-80.963
-77.606
-75.101
-73.461
-72.694
-72.797
-73.761
-75.573
-78.222
-81.693
-85.967
-91.017
-96.806
-103.285
-110.394
-118.068
-126.229
-134.8
-143.718
-152.909
-162.294
-171.824
-181.439
-191.088
-200.755
-210.367
-219.779
-228.916
-237.749
-246.242
-254.426
-262.271
-269.621
-276.416
-282.7
-288.275
-292.695
-295.742
-297.344
-297.374
-296.236
-293.267
-286.331
-276.312
-265.738
-258.562
-262.088
-275.705
-291.676
-302.028
-294.998
-268.461
-231.801
-192.624
-159.824
-136.453
-116.118
-95.531
-74.032
-52.862
-36.786
-28.235
-26.526
-30.199
-37.895
-48.448
-59.896
-69.35
-73.05
-67.57
-51.4
-24.332
14.318
65.564
129.341
204.11
286.305
371.303
455.456
536.261
610.939
675.472
725.724
758.222
770.997
763.996
737.552
691.291
624.996
540.171
439.723
327.885
209.434
87.957
-33.43
-150.683
-259.106
-354.513
-433.683
-495.437
-540.102
-567.705
-578.346
-573.229
-554.909
-526.994
-493.536
-457.395
-420.607
-385.592
-354.554
-329.189
-310.232
-297.044
-288.037
-281.995
-277.777
-273.736
-268.564
-261.007
-250.095
-235.819
-218.787
-199.621
-179.188
-158.616
-138.546
-119.529
-102.058
-86.136
-71.602
-58.208
-45.391
-32.524
-19.309
-5.578
8.674
23.225
37.936
52.687
67.197
81.171
94.338
106.427
117.364
127.225
136.003
143.661
150.111
155.231
158.999
161.452
162.617
162.536
161.238
158.739
155.152
150.631
145.323
139.401
132.93
125.872
118.238
110.063
101.4
92.344
82.952
73.244
63.284
53.169
42.993
32.862
22.839
12.944
3.213
-6.327
-15.609
-24.517
-32.963
-40.872
-48.17
-54.803
-60.708
-65.81
-70.072
-73.488
-76.051
-77.765
-78.625
-78.615
-77.733
-75.987
-73.392
-69.979
-65.776
-60.815
-55.138
-48.791
-41.828
-34.31
-26.295
-17.836
-8.989
0.182
9.613
19.233
28.975
38.771
48.549
58.237
67.762
77.053
86.039
94.656
102.839
110.529
117.668
124.201
130.081
135.262
139.703
143.37
146.229
148.256
149.427
149.728
149.146
147.676
145.319
142.078
137.964
132.994
127.189
120.574
113.18
105.043
96.203
86.704
76.595
65.925
54.751
43.132
31.129
18.807
6.23
-6.534
-19.418
-32.354
-45.272
-58.107
-70.791
-83.261
-95.452
-107.304
-118.759
-129.759
-140.252
-150.189
-159.523
-168.213
-176.219
-183.509
-190.053
-195.827
-200.811
-204.99
-208.354
-210.898
-212.623
-213.533
-213.636
-212.949
-211.49
-209.282
-206.354
-202.738
-198.47
-193.591
-188.143
-182.172
-175.728
-168.86
-161.622
-154.067
-146.25
-138.226
-130.053
-121.785
-113.478
-105.188
-96.969
-88.873
-80.951
-73.253
-65.824
-58.709
-51.949
-45.581
-39.641
-34.16
-29.165
-24.68
-20.726
-17.317
-14.468
-12.184
-10.468
-9.321
-8.736
-8.705
-9.214
-10.246
-11.781
-13.795
-16.26
-19.148
-22.428
-26.066
-30.02
-34.249
-38.71
-43.363
-48.169
-53.084
-58.053
-63.039
-68.018
-72.965
-77.856
-82.653
-87.289
-91.72
-95.946
-99.914
-103.525
-106.698
-109.351
-111.455
-113.083
-114.255
-114.867
-115.003
-115.01
-114.98
-114.809
-114.552
-113.866
-113.395
-115.332
-119.35
-123.43
-124.422
-116.195
-98.829
-78.621
-61.733
-56.92
-65.216
-78.318
-89.786
-92.8
-85.841
-75.15
-64.685
-57.024
-53.122
-50.489
-47.921
-45.547
-43.284
-41.523
-40.393
-39.56
-38.92
-38.536
-38.401
-38.495
-38.826
-39.398
-40.23
-41.365
-42.808
-44.51
-46.441
-48.581
-50.906
-53.393
-56.012
-58.729
-61.514
-64.34
-67.18
-70.005
-72.784
-75.488
-78.088
-80.559
-82.873
-85.009
-86.944
-88.66
-90.14
-91.37
-92.339
-93.038
-93.461
-93.606
-93.473
-93.064
-92.387
-91.453
-90.276
-88.872
-87.262
-85.466
-83.508
-81.414
-79.209
-76.919
-74.576
-72.207
-69.843
-67.517
-65.265
-63.125
-61.137
-59.338
-57.766
-56.458
-55.449
-54.771
-54.452
-54.513
-54.972
-55.844
-57.149
-58.897
-61.1
-63.765
-66.895
-70.49
-74.544
-79.043
-83.97
-89.3
-95.001
-101.044
-107.403
-114.059
-121.006
-128.227
-135.685
-143.341
-151.152
-159.059
-166.999
-174.891
-182.628
-190.106
-197.231
-203.909
-210.062
-215.621
-220.509
-224.647
-227.928
-230.27
-231.65
-232.065
-231.531
-230.056
-227.631
-224.306
-220.24
-215.633
-210.698
-205.65
-200.624
-195.786
-191.412
-187.639
-184.466
-181.688
-178.72
-174.961
-170.009
-163.404
-154.61
-143.542
-130.462
-116.118
-102.197
-90.276
-81.331
-76.374
-76.152
-80.263
-87.322
-94.872
-98.655
-94.212
-78.003
-46.485
2.351
67.793
148.124
241.409
346.76
464.303
591.616
719.701
831.851
910.927
946.599
939.578
902.646
849.679
788.638
721.101
642.79
551.474
449.435
341.011
231.832
125.654
24.468
-69.562
-154.685
-229.419
-292.204
-341.928
-378.243
-401.162
-411.043
-408.965
-395.874
-372.46
-340.371
-301.736
-258.12
-211.155
-162.541
-113.831
-67.485
-26.233
8.648
36.728
57.667
71.838
79.989
83.371
84.535
86.081
89.441
95.435
104.52
116.612
131.501
148.494
166.055
182.92
198.525
212.659
225.439
237.088
247.692
257.519
267.13
276.861
286.788
296.835
306.726
316.224
325.222
333.585
341.135
347.736
353.268
357.642
360.863
362.939
363.862
363.642
362.293
359.853
356.399
352.016
346.782
340.77
334.044
326.669
318.716
310.256
301.364
292.115
282.584
272.847
262.982
253.065
243.174
233.381
223.75
214.339
205.209
196.417
188.024
180.086
172.656
165.782
159.509
153.877
148.92
144.666
141.135
138.341
136.293
134.995
134.445
134.638
135.563
137.203
139.537
142.54
146.18
150.421
155.226
160.552
166.352
172.576
179.173
186.089
193.269
200.656
208.192
215.819
223.478
231.11
238.658
246.065
253.275
260.235
266.891
273.195
279.1
284.564
289.546
294.011
297.927
301.266
304.003
306.119
307.6
308.435
308.617
308.146
307.025
305.262
302.87
299.867
296.273
292.112
287.414
282.211
276.536
270.428
263.927
257.075
249.916
242.497
234.865
227.068
219.155
211.175
203.177
195.212
187.325
179.565
171.977
164.604
157.489
150.672
144.189
138.074
132.359
127.07
122.233
117.865
113.985
110.602
107.727
105.361
103.505
102.155
101.303
100.938
101.045
101.605
102.596
103.996
105.775
107.905
110.352
113.082
116.06
119.246
122.602
126.086
129.658
133.276
136.897
140.479
143.98
147.359
150.574
153.586
156.357
158.849
161.027
162.861
164.322
165.383
166.023
166.218
165.946
165.198
163.966
162.231
159.979
157.202
153.889
150.054
145.719
140.882
135.538
129.738
123.526
116.944
110.046
102.832
95.277
87.439
79.403
71.067
62.302
53.247
43.932
34.366
24.943
14.753
2.914
-9.211
-21.184
-30.525
-34.277
-35.625
-36.666
-40.589
-51.785
-66.273
-80.678
-92.677
-98.454
-100.687
-102.122
-103.305
-105.81
-108.809
-111.23
-113.185
-114.516
-115.332
-115.488
-115.869
-117.37
-118.578
-119.069
-116.157
-106.65
-94.132
-81.002
-70.839
-68.551
-69.87
-71.187
-70.054
-62.395
-51.196
-39.486
-27.972
-18.515
-10.11
-1.451
7.155
15.829
24.433
32.643
40.593
48.381
55.914
63.138
70.031
76.55
82.65
88.291
93.416
97.968
101.937
105.314
108.081
110.228
111.746
112.632
112.893
112.541
111.584
110.036
107.915
105.246
102.055
98.374
94.237
89.679
84.741
79.465
73.895
68.078
62.061
55.891
49.615
43.281
36.937
30.63
24.405
18.307
12.376
6.654
1.183
-4.001
-8.866
-13.383
-17.527
-21.276
-24.614
-27.532
-30.029
-32.109
-33.777
-35.042
-35.916
-36.418
-36.567
-36.384
-35.888
-35.103
-34.059
-32.791
-31.34
-29.742
-28.036
-26.259
-24.452
-22.654
-20.907
-19.242
-17.686
-16.275
-15.054
-14.079
-13.419
-13.125
-13.225
-13.747
-14.712
-16.127
-17.992
-20.273
-22.899
-25.811
-28.96
-32.307
-35.825
-39.449
-43.086
-46.643
-50.02
-53.168
-56.082
-58.731
-61.093
-63.19
-65.056
-66.814
-68.658
-70.728
-73.152
-76.091
-79.695
-84.211
-89.972
-97.166
-105.818
-115.755
-126.548
-137.731
-148.869
-159.361
-168.476
-175.673
-180.764
-184.26
-187.442
-191.758
-198.517
-207.79
-218.307
-228.857
-237.834
-246.386
-258.704
-275.415
-293.702
-303.635
-287.796
-234.009
-138.804
-9.498
136.912
282.871
414.897
526.319
613.427
675.998
717.901
740.855
747.869
740.6
715.321
670.19
606.115
525.874
435.22
339.405
241.752
144.644
50.671
-36.315
-114.319
-182.155
-236.964
-278.198
-303.376
-309.407
-300.68
-281.718
-258.011
-236.111
-214.385
-191.116
-165.6
-136.094
-106.643
-80.329
-58.302
-42.936
-33.041
-27.167
-25.003
-24.889
-26.026
-28.425
-31.247
-33.602
-35.362
-36.384
-36.936
-38.058
-40.24
-43.513
-48.105
-54.078
-61.219
-69.402
-78.254
-87.068
-95.489
-103.358
-110.519
-117.008
-122.867
-128.077
-132.724
-136.953
-140.826
-144.398
-147.705
-150.739
-153.543
-156.153
-158.567
-160.785
-162.779
-164.508
-165.935
-167.001
-167.63
-167.764
-167.353
-166.357
-164.753
-162.51
-159.598
-155.999
-151.694
-146.676
-140.941
-134.487
-127.32
-119.459
-110.929
-101.766
-92.015
-81.715
-70.91
-59.648
-47.978
-35.952
-23.629
-11.064
1.684
14.551
27.472
40.377
53.199
65.87
78.325
90.5
102.33
113.756
124.72
135.167
145.049
154.317
162.928
170.844
178.029
184.457
190.103
194.947
198.976
202.18
204.555
206.104
206.834
206.755
205.885
204.247
201.866
198.776
195.012
190.615
185.627
180.096
174.074
167.611
160.765
153.592
146.149
138.494
130.688
122.788
114.853
106.939
99.101
91.391
83.862
76.562
69.536
62.827
56.475
50.516
44.983
39.904
35.307
31.21
27.633
24.586
22.078
20.113
18.691
17.805
17.447
17.602
18.254
19.38
20.955
22.95
25.335
28.073
31.129
34.462
38.032
41.796
45.709
49.727
53.806
57.9
61.965
65.956
69.831
73.545
77.059
80.333
83.329
86.011
88.347
90.304
91.857
92.98
93.651
93.855
93.576
92.805
91.536
89.767
87.501
84.743
81.505
77.8
73.647
69.068
64.09
58.74
53.051
47.059
40.801
34.316
27.647
20.837
13.931
6.974
0.013
-6.905
-13.733
-20.424
-26.931
-33.209
-39.212
-44.899
-50.228
-55.16
-59.659
-63.691
