Name,John Breau
Date of Birth,"Dec 20, 1971"
Recorded Date,2023-05-20 17:18:57 -0500
Classification,Sinus Rhythm
Symptoms,
Software Version,1.90
Device,"Watch6,3"
Sample Rate,512 hertz


Lead,Lead I
Unit,µV

-57.747
-70.632
-77.615
-81.353
-84.554
-87.489
-91.73
-96.476
-100.464
-103.607
-105.626
-106.862
-107.813
-108.939
-110.905
-112.13
-110.913
-108.588
-105.079
-103.632
-109.259
-117.07
-122.285
-118.686
-95.94
-59.193
-19.051
15.421
30.509
27.067
15.995
4.555
2.183
10.267
21.516
32.417
40.622
45.634
50.678
57.001
63.859
70.952
77.765
84.055
90.185
96.271
102.049
107.384
112.459
117.368
122.111
126.679
130.879
134.571
137.787
140.549
142.823
144.597
145.84
146.521
146.68
146.346
145.527
144.242
142.489
140.276
137.625
134.565
131.124
127.333
123.215
118.789
114.076
109.097
103.874
98.427
92.773
86.933
80.927
74.78
68.518
62.169
55.759
49.315
42.862
36.423
30.022
23.681
17.422
11.263
5.225
-0.676
-6.422
-11.997
-17.386
-22.575
-27.553
-32.307
-36.827
-41.106
-45.134
-48.904
-52.411
-55.649
-58.613
-61.298
-63.704
-65.831
-67.678
-69.248
-70.543
-71.56
-72.31
-72.804
-73.037
-73.007
-72.717
-72.163
-71.365
-70.351
-69.116
-67.654
-66.015
-64.239
-62.36
-60.427
-58.423
-56.301
-54.108
-51.918
-49.588
-46.949
-44.127
-41.126
-37.925
-34.935
-31.107
-25.423
-19.374
-13.426
-10.307
-13.283
-18.769
-24.382
-26.564
-20.422
-10.308
0.09
8.24
9.968
8.24
6.066
4.108
4.198
5.261
5.917
6.423
6.598
6.531
6.497
6.311
5.828
5.094
4.123
2.898
1.427
-0.274
-2.195
-4.302
-6.557
-8.963
-11.524
-14.224
-17.054
-20.002
-23.052
-26.197
-29.426
-32.723
-36.074
-39.463
-42.875
-46.295
-49.709
-53.102
-56.457
-59.761
-62.997
-66.15
-69.204
-72.146
-74.959
-77.629
-80.142
-82.483
-84.641
-86.601
-88.353
-89.886
-91.19
-92.256
-93.076
-93.643
-93.95
-93.993
-93.767
-93.27
-92.497
-91.449
-90.126
-88.529
-86.66
-84.524
-82.124
-79.468
-76.562
-73.415
-70.036
-66.435
-62.625
-58.618
-54.43
-50.076
-45.573
-40.94
-36.195
-31.36
-26.456
-21.503
-16.526
-11.546
-6.587
-1.671
3.176
7.931
12.571
17.07
21.404
25.547
29.471
33.151
36.562
39.679
42.478
44.936
47.033
48.753
50.081
51.003
51.509
51.585
51.222
50.413
49.155
47.445
45.285
42.68
39.638
36.178
32.318
28.077
23.468
18.497
13.172
7.506
1.517
-4.772
-11.329
-18.12
-25.098
-32.192
-39.334
-46.45
-53.471
-60.346
-67.013
-73.406
-79.447
-85.043
-90.106
-94.566
-98.366
-101.465
-103.847
-105.52
-106.531
-106.966
-106.935
-106.566
-105.993
-105.356
-104.818
-104.53
-104.691
-105.569
-107.361
-110.152
-113.874
-118.23
-122.818
-127.247
-130.96
-133.243
-133.583
-131.74
-127.951
-123.135
-118.381
-114.746
-113.404
-115.408
-121.271
-130.775
-142.634
-154.354
-162.673
-163.741
-153.528
-128.242
-85.812
-26.641
48.35
138.25
244.061
367.752
505.98
648.202
776.582
871.982
923.984
933.426
910.891
868.608
812.387
741.685
652.937
544.997
421.67
290.247
158.243
31.107
-86.797
-192.004
-282.069
-354.939
-409.979
-448.205
-470.575
-478.163
-472.765
-456.486
-431.986
-402.21
-369.322
-334.667
-299.667
-266.025
-235.67
-210.217
-190.175
-175.194
-164.795
-158.668
-156.339
-156.753
-158.007
-158.082
-155.89
-151.214
-144.259
-135.32
-124.695
-112.92
-101.132
-90.692
-82.38
-76.41
-72.616
-70.633
-70.177
-71.027
-72.766
-74.843
-76.876
-78.632
-80.038
-81.149
-81.963
-82.402
-82.386
-81.882
-80.891
-79.449
-77.599
-75.359
-72.752
-69.804
-66.547
-63.029
-59.297
-55.396
-51.355
-47.204
-42.989
-38.78
-34.678
-30.752
-27.035
-23.535
-20.235
-17.123
-14.188
-11.411
-8.757
-6.192
-3.687
-1.224
1.205
3.618
6.041
8.512
11.08
13.78
16.631
19.645
22.828
26.18
29.702
33.382
37.199
41.134
45.173
49.304
53.518
57.802
62.136
66.499
70.867
75.219
79.531
83.78
87.943
91.997
95.92
99.692
103.298
106.719
109.936
112.93
115.684
118.18
120.402
122.337
123.968
125.286
126.28
126.942
127.27
127.258
126.905
126.212
125.181
123.816
122.123
120.108
117.781
115.151
112.232
109.036
105.581
101.881
97.956
93.825
89.508
85.027
80.402
75.657
70.813
65.892
60.918
55.913
50.899
45.896
40.927
36.011
31.167
26.414
21.767
17.243
12.854
8.613
4.532
0.62
-3.114
-6.663
-10.022
-13.187
-16.153
-18.92
-21.487
-23.856
-26.029
-28.009
-29.802
-31.412
-32.848
-34.115
-35.223
-36.181
-36.998
-37.685
-38.252
-38.71
-39.069
-39.34
-39.534
-39.661
-39.729
-39.748
-39.726
-39.67
-39.587
-39.484
-39.365
-39.236
-39.101
-38.963
-38.825
-38.689
-38.557
-38.428
-38.304
-38.185
-38.069
-37.956
-37.845
-37.734
-37.621
-37.505
-37.382
-37.251
-37.109
-36.953
-36.781
-36.589
-36.376
-36.139
-35.877
-35.587
-35.271
-34.926
-34.554
-34.154
-33.727
-33.276
-32.8
-32.304
-31.788
-31.257
-30.712
-30.157
-29.595
-29.031
-28.467
-27.907
-27.353
-26.81
-26.279
-25.764
-25.266
-24.789
-24.333
-23.902
-23.496
-23.119
-22.77
-22.452
-22.165
-21.91
-21.687
-21.497
-21.339
-21.212
-21.116
-21.051
-21.015
-21.006
-21.024
-21.067
-21.133
-21.22
-21.326
-21.449
-21.587
-21.737
-21.899
-22.07
-22.248
-22.433
-22.624
-22.82
-23.018
-23.22
-23.423
-23.628
-23.832
-24.036
-24.237
-24.436
-24.631
-24.82
-25.004
-25.179
-25.345
-25.5
-25.64
-25.764
-25.868
-25.951
-26.008
-26.038
-26.036
-26
-25.926
-25.812
-25.655
-25.45
-25.195
-24.886
-24.519
-24.09
-23.595
-23.031
-22.394
-21.681
-20.889
-20.016
-19.059
-18.016
-16.885
-15.666
-14.356
-12.957
-11.468
-9.89
-8.224
-6.474
-4.643
-2.735
-0.755
1.291
3.398
5.558
7.764
10.01
12.287
14.586
16.898
19.215
21.527
23.821
26.087
28.309
30.474
32.567
34.573
36.476
38.262
39.916
41.425
42.779
43.968
44.984
45.817
46.456
46.891
47.116
47.125
46.915
46.484
45.832
44.962
43.888
42.621
41.17
39.54
37.721
35.709
33.509
31.125
28.572
25.868
23.034
20.107
17.145
14.204
11.342
8.611
6.045
3.688
1.593
-0.169
-1.513
-2.359
-2.649
-2.336
-1.397
0.175
2.362
5.108
8.313
11.862
15.615
19.437
23.196
26.73
29.89
32.464
34.15
34.747
34.181
32.549
30.214
27.585
25.037
23.13
22.593
23.952
27.453
32.731
38.66
44.128
48.111
49.53
47.488
41.427
31.515
19.278
7.521
-0.469
-0.869
10.17
36.166
79.341
139.472
215.386
305.946
412.567
537.701
678.542
824.953
958.329
1058.566
1114.992
1128.504
1109.829
1071.312
1018.565
950.498
863.09
755.075
629.919
494.672
357.524
224.511
100.417
-10.663
-106.139
-184.017
-243.369
-285.068
-310.509
-321.174
-319.269
-307.357
-288.199
-264.73
-239.153
-212.663
-186.199
-160.846
-137.88
-118.39
-102.634
-90.13
-80.357
-73.1
-68.202
-65.171
-62.751
-59.426
-54.377
-47.489
-39.029
-29.319
-18.578
-7.125
4.233
14.412
22.731
28.936
33.121
35.588
36.593
36.354
35.209
33.606
31.85
30.111
28.483
26.949
25.501
24.17
22.975
21.931
21.095
20.551
20.335
20.473
20.959
21.757
22.864
24.279
25.987
27.966
30.178
32.586
35.176
37.942
40.85
43.847
46.862
49.807
52.641
55.347
57.917
60.356
62.666
64.847
66.919
68.911
70.848
72.748
74.622
76.473
78.32
80.191
82.12
84.146
86.295
88.575
90.993
93.55
96.241
99.058
101.981
104.984
108.045
111.145
114.267
117.397
120.514
123.596
126.618
129.555
132.384
135.082
137.627
139.997
142.172
144.134
145.867
147.359
148.596
149.565
150.252
150.645
150.734
150.508
149.96
149.083
147.873
146.328
144.448
142.236
139.698
136.838
133.665
130.19
126.423
122.378
118.067
113.506
108.713
103.703
98.496
93.111
87.568
81.888
76.091
70.198
64.232
58.213
52.162
46.101
40.05
34.031
28.062
22.164
16.354
10.652
5.072
-0.368
-5.655
-10.777
-15.721
-20.478
-25.04
-29.399
-33.551
-37.492
-41.219
-44.731
-48.028
-51.111
-53.983
-56.649
-59.112
-61.378
-63.455
-65.35
-67.07
-68.626
-70.026
-71.281
-72.401
-73.398
-74.282
-75.066
-75.761
-76.378
-76.93
-77.426
-77.877
-78.294
-78.685
-79.06
-79.425
-79.788
-80.155
-80.531
-80.919
-81.324
-81.746
-82.187
-82.647
-83.125
-83.619
-84.126
-84.644
-85.168
-85.694
-86.216
-86.73
-87.228
-87.704
-88.151
-88.562
-88.929
-89.244
-89.499
-89.687
-89.799
-89.829
-89.768
-89.611
-89.351
-88.983
-88.502
-87.904
-87.186
-86.345
-85.38
-84.291
-83.077
-81.741
-80.285
-78.714
-77.031
-75.243
-73.357
-71.38
-69.32
-67.186
-64.988
-62.735
-60.439
-58.111
-55.763
-53.406
-51.054
-48.718
-46.412
-44.149
-41.939
-39.797
-37.732
-35.757
-33.883
-32.119
-30.475
-28.96
-27.581
-26.347
-25.263
-24.335
-23.566
-22.958
-22.514
-22.233
-22.114
-22.155
-22.353
-22.701
-23.196
-23.83
-24.595
-25.482
-26.482
-27.583
-28.773
-30.041
-31.373
-32.755
-34.174
-35.616
-37.065
-38.509
-39.933
-41.324
-42.667
-43.949
-45.157
-46.279
-47.3
-48.21
-48.997
-49.65
-50.161
-50.521
-50.723
-50.76
-50.627
-50.321
-49.838
-49.176
-48.336
-47.317
-46.121
-44.752
-43.214
-41.513
-39.657
-37.652
-35.51
-33.239
-30.852
-28.359
-25.773
-23.106
-20.372
-17.585
-14.76
-11.91
-9.053
-6.204
-3.384
-0.61
2.098
4.721
7.24
9.635
11.888
13.981
15.899
17.63
19.158
20.469
21.552
22.391
22.976
23.297
23.346
23.117
22.605
21.809
20.733
19.385
17.77
15.892
13.744
11.325
8.638
5.693
2.499
-0.922
-4.548
-8.343
-12.253
-16.221
-20.193
-24.114
-27.943
-31.635
-35.136
-38.383
-41.301
-43.821
-45.892
-47.47
-48.525
-49.052
-49.062
-48.613
-47.813
-46.765
-45.576
-44.366
-43.241
-42.344
-41.838
-41.843
-42.508
-44.031
-46.513
-49.999
-54.418
-59.436
-64.69
-69.881
-74.551
-78.135
-80.217
-80.463
-78.936
-76.369
-73.378
-70.288
-67.621
-66.06
-66.195
-68.433
-71.274
-70.909
-63.941
-48.613
-27.16
-4.103
18.92
45.167
86.247
155.052
257.781
392.263
540.791
680.112
792.311
864.446
898.639
905.186
890.482
860.671
815.063
748.198
660.8
555.607
437.481
314.808
193.173
76.459
-30.822
-125.771
-206.84
-272.787
-323.563
-360.369
-384.327
-397.047
-400.93
-398.038
-389.781
-377.153
-360.957
-341.653
-319.531
-294.739
-267.393
-237.843
-207.176
-177.153
-148.988
-123.61
-102.022
-84.843
-72.312
-64.386
-60.091
-57.663
-56.019
-54.492
-52.442
-49.656
-46.041
-41.595
-36.952
-33.192
-30.894
-30.236
-31.203
-33.479
-36.812
-40.982
-45.493
-49.692
-53.1
-55.461
-56.707
-56.944
-56.243
-54.629
-52.179
-49.019
-45.277
-41.079
-36.518
-31.636
-26.479
-21.14
-15.734
-10.392
-5.248
-0.38
4.176
8.395
12.265
15.789
18.975
21.853
24.473
26.877
29.097
31.162
33.092
34.923
36.699
38.472
40.295
42.206
44.224
46.366
48.643
51.06
53.614
56.294
59.079
61.954
64.905
67.92
70.99
74.099
77.229
80.359
83.469
86.539
89.548
92.478
95.308
98.02
100.596
103.021
105.282
107.364
109.253
110.935
112.394
113.62
114.6
115.325
115.786
115.976
115.891
115.529
114.89
113.977
112.791
111.341
109.633
107.676
105.481
103.061
100.43
97.603
94.597
91.428
88.115
84.676
81.131
77.499
73.8
70.054
66.279
62.494
58.717
54.965
51.255
47.602
44.019
40.52
37.115
33.814
30.625
27.556
24.609
21.788
19.094
16.525
14.08
11.752
9.537
7.427
5.412
3.483
1.628
-0.164
-1.907
-3.614
-5.299
-6.977
-8.66
-10.365
-12.105
-13.893
-15.742
-17.665
-19.673
-21.777
-23.986
-26.308
-28.75
-31.318
-34.014
-36.841
-39.8
-42.889
-46.106
-49.444
-52.899
-56.461
-60.119
-63.863
-67.679
-71.551
-75.463
-79.399
-83.339
-87.265
-91.157
-94.994
-98.757
-102.424
-105.975
-109.39
-112.65
-115.734
-118.625
-121.305
-123.757
-125.967
-127.919
-129.602
-131.006
-132.119
-132.936
-133.449
-133.656
-133.555
-133.145
-132.429
-131.411
-130.097
-128.497
-126.62
-124.479
-122.089
-119.465
-116.625
-113.588
-110.374
-107.004
-103.499
-99.883
-96.179
-92.41
-88.599
-84.771
-80.949
-77.157
-73.417
-69.752
-66.183
-62.73
-59.414
-56.253
-53.264
-50.463
-47.865
-45.484
-43.33
-41.413
-39.742
-38.323
-37.16
-36.254
-35.606
-35.214
-35.074
-35.181
-35.528
-36.106
-36.905
-37.913
-39.118
-40.506
-42.061
-43.768
-45.611
-47.571
-49.632
-51.775
-53.982
-56.234
-58.514
-60.803
-63.082
-65.333
-67.54
-69.683
-71.747
-73.715
-75.572
-77.302
-78.894
-80.334
-81.611
-82.717
-83.642
-84.381
-84.926
-85.275
-85.422
-85.367
-85.109
-84.649
-83.988
-83.13
-82.08
-80.841
-79.422
-77.828
-76.067
-74.149
-72.082
-69.875
-67.539
-65.084
-62.523
-59.868
-57.13
-54.324
-51.463
-48.562
-45.634
-42.694
-39.755
-36.832
-33.939
-31.088
-28.294
-25.569
-22.929
-20.388
-17.962
-15.666
-13.515
-11.521
-9.7
-8.062
-6.619
-5.376
-4.341
-3.518
-2.914
-2.537
-2.391
-2.481
-2.809
-3.376
-4.182
-5.225
-6.499
-7.99
-9.685
-11.573
-13.65
-15.922
-18.389
-21.047
-23.887
-26.895
-30.052
-33.336
-36.711
-40.12
-43.508
-46.818
-49.999
-53.022
-55.84
-58.404
-60.649
-62.492
-63.866
-64.723
-65.026
-64.751
-63.9
-62.497
-60.61
-58.346
-55.822
-53.173
-50.529
-48.032
-45.838
-44.071
-42.905
-42.585
-43.276
-45.062
-47.857
-51.305
-55.04
-58.789
-62.119
-64.428
-65.232
-64.179
-61.489
-58.194
-55.151
-52.886
-52.136
-53.738
-58.403
-66.594
-76.224
-82.565
-82.075
-72.654
-56.176
-37.275
-16.115
11.914
57.529
133.207
245.01
389.597
551.388
708.251
837.73
924.079
964.41
964.667
936.515
890.222
829.258
753.224
659.876
549.319
426.202
297.569
170.953
52.301
-54.565
-147.326
-224.845
-286.291
-331.684
-362.42
-380.099
-386.722
-384.226
-373.805
-356.939
-335.58
-311.254
-284.84
-257.237
-229.158
-201.776
-177.145
-156.521
-140.168
-128.205
-120.674
-117.347
-117.935
-121.355
-125.514
-129.069
-131.532
-132.66
-132.54
-131.288
-128.896
-125.912
-123.497
-122.294
-122.423
-123.732
-125.735
-128.091
-130.66
-133.115
-134.921
-135.7
-135.251
-133.544
-130.765
-127.061
-122.499
-117.178
-111.243
-104.865
-98.248
-91.584
-84.999
-78.571
-72.37
-66.45
-60.872
-55.696
-50.942
-46.597
-42.64
-39.05
-35.815
-32.93
-30.368
-28.074
-25.98
-24.012
-22.11
-20.233
-18.346
-16.411
-14.396
-12.271
-10.021
-7.641
-5.126
-2.464
0.362
3.37
6.57
9.965
13.556
17.342
21.322
25.496
29.859
34.403
39.121
44.005
49.047
54.239
59.569
65.018
70.568
76.198
81.883
87.598
93.317
99.01
104.648
110.202
115.644
120.943
126.071
130.999
135.698
140.142
144.304
148.158
151.679
154.846
157.635
160.029
162.009
163.56
164.668
165.322
165.513
165.236
164.487
163.264
161.568
159.405
156.779
153.701
150.182
146.237
141.881
137.134
132.017
126.553
120.767
114.685
108.334
101.744
94.944
87.964
80.836
73.59
66.259
58.873
51.465
44.066
36.706
29.415
22.224
15.162
8.254
1.53
-4.987
-11.272
-17.304
-23.061
-28.525
-33.679
-38.508
-42.999
-47.142
-50.928
-54.351
-57.406
-60.091
-62.406
-64.355
-65.941
-67.171
-68.052
-68.596
-68.813
-68.717
-68.322
-67.643
-66.698
-65.504
-64.079
-62.442
-60.615
-58.616
-56.468
-54.191
-51.806
-49.337
-46.802
-44.224
-41.623
-39.019
-36.432
-33.88
-31.382
-28.954
-26.612
-24.371
-22.246
-20.247
-18.387
-16.674
-15.116
-13.721
-12.494
-11.437
-10.554
-9.845
-9.311
-8.951
-8.762
-8.742
-8.885
-9.186
-9.64
-10.238
-10.974
-11.838
-12.821
-13.913
-15.104
-16.382
-17.738
-19.16
-20.635
-22.153
-23.702
-25.271
-26.847
-28.42
-29.98
-31.515
-33.016
-34.475
-35.881
-37.229
-38.51
-39.719
-40.849
-41.896
-42.854
-43.721
-44.492
-45.165
-45.738
-46.209
-46.579
-46.846
-47.012
-47.077
-47.043
-46.912
-46.687
-46.371
-45.966
-45.477
-44.909
-44.265
-43.551
-42.771
-41.932
-41.037
-40.094
-39.105
-38.078
-37.016
-35.925
-34.809
-33.671
-32.518
-31.351
-30.177
-28.998
-27.818
-26.641
-25.469
-24.307
-23.156
-22.019
-20.897
-19.793
-18.707
-17.641
-16.596
-15.571
-14.568
-13.586
-12.624
-11.682
-10.758
-9.851
-8.96
-8.081
-7.215
-6.358
-5.511
-4.671
-3.838
-3.01
-2.189
-1.373
-0.563
0.243
1.042
1.835
2.621
3.399
4.167
4.924
5.665
6.383
7.074
7.729
8.34
8.9
9.398
9.824
10.17
10.43
10.596
10.661
10.615
10.449
10.152
9.716
9.133
8.395
7.495
6.429
5.194
3.796
2.239
0.525
-1.351
-3.403
-5.642
-8.074
-10.703
-13.527
-16.538
-19.727
-23.071
-26.525
-30.045
-33.584
-37.097
-40.554
-43.914
-47.125
-50.128
-52.84
-55.188
-57.114
-58.564
-59.511
-59.949
-59.889
-59.375
-58.491
-57.331
-56.026
-54.732
-53.583
-52.726
-52.3
-52.486
-53.58
-55.811
-59.259
-63.81
-69.132
-74.895
-80.822
-86.47
-91.183
-94.413
-95.869
-95.919
-95.523
-95.327
-96.133
-99.013
-104.597
-113.613
-125.185
-135.501
-142.165
-144.197
-141.763
-138.17
-130.167
-108.178
-63.329
14.08
122.659
249.852
383.667
510.838
624.322
724.277
808.152
873.45
916.892
933.085
920.247
878.99
810.777
719.81
611.162
489.714
361.415
232.173
106.804
-9.897
-113.825
-202.699
-275.011
-329.921
-368.405
-392.266
-403.194
-403.603
-395.687
-380.655
-360.249
-336.485
-310.206
-281.882
-252.26
-221.727
-191.317
-163.012
-137.725
-115.585
-97.182
-82.754
-72.107
-65.359
-61.577
-58.785
-56.285
-52.735
-46.771
-39.781
-32.27
-26.78
-27.017
-30.696
-36.1
-39.898
-37.304
-32.061
-27.347
-25.395
-29.731
-36.791
-43.219
-48.11
-49.606
-48.885
-47.357
-44.789
-41.443
-37.365
-32.421
-26.941
-21.178
-15.147
-8.922
-2.621
3.637
9.701
15.462
20.883
25.955
30.662
34.987
38.926
42.495
45.735
48.691
51.406
53.915
56.244
58.428
60.514
62.555
64.614
66.739
68.958
71.294
73.762
76.374
79.144
82.071
85.142
88.35
91.689
95.153
98.743
102.452
106.267
110.175
114.16
118.207
122.303
126.432
130.577
134.719
138.841
142.928
146.964
150.931
154.81
158.579
162.216
165.7
169.01
172.125
175.021
177.678
180.077
182.2
184.03
185.55
186.747
187.608
188.12
188.275
188.065
187.484
186.526
185.189
183.473
181.379
178.909
176.069
172.863
169.301
165.391
161.146
156.577
151.698
146.525
141.075
135.365
129.413
123.241
116.868
110.316
103.607
96.765
89.812
82.773
75.67
68.527
61.368
54.216
47.094
40.023
33.024
26.119
19.328
12.669
6.161
-0.178
-6.334
-12.289
-18.031
-23.547
-28.824
-33.852
-38.623
-43.129
-47.363
-51.321
-54.998
-58.392
-61.503
-64.33
-66.875
-69.141
-71.133
-72.855
-74.316
-75.522
-76.484
-77.211
-77.714
-78.004
-78.095
-77.997
-77.725
-77.292
-76.712
-75.998
-75.167
-74.231
-73.207
-72.108
-70.949
-69.746
-68.512
-67.26
-66.006
-64.761
-63.537
-62.348
-61.204
-60.116
-59.093
-58.146
-57.281
-56.507
-55.829
-55.254
-54.784
-54.424
-54.175
-54.04
-54.018
-54.111
-54.317
-54.634
-55.062
-55.598
-56.237
-56.976
-57.81
-58.732
-59.738
-60.821
-61.972
-63.186
-64.453
-65.766
-67.117
-68.498
-69.9
-71.315
-72.736
-74.153
-75.559
-76.947
-78.31
-79.642
-80.936
-82.187
-83.392
-84.545
-85.644
-86.685
-87.664
-88.58
-89.43
-90.213
-90.927
-91.572
-92.146
-92.651
-93.088
-93.457
-93.762
-94.005
-94.188
-94.314
-94.388
-94.413
-94.393
-94.333
-94.235
-94.106
-93.948
-93.765
-93.561
-93.339
-93.1
-92.847
-92.581
-92.301
-92.009
-91.703
-91.382
-91.046
-90.693
-90.321
-89.928
-89.513
-89.073
-88.604
-88.104
-87.568
-86.993
-86.373
-85.705
-84.982
-84.201
-83.355
-82.439
-81.449
-80.377
-79.22
-77.971
-76.628
-75.185
-73.638
-71.987
-70.229
-68.365
-66.397
-64.325
-62.154
-59.889
-57.536
-55.101
-52.591
-50.016
-47.385
-44.709
-41.998
-39.264
-36.52
-33.782
-31.067
-28.391
-25.776
-23.239
-20.801
-18.484
-16.308
-14.294
-12.459
-10.82
-9.395
-8.198
-7.248
-6.563
-6.159
-6.048
-6.242
-6.751
-7.582
-8.737
-10.212
-11.999
-14.092
-16.486
-19.189
-22.207
-25.537
-29.177
-33.116
-37.333
-41.802
-46.485
-51.323
-56.255
-61.22
-66.159
-71.026
-75.774
-80.346
-84.679
-88.691
-92.298
-95.429
-98.027
-100.048
-101.496
-102.391
-102.795
-102.808
-102.523
-102.058
-101.541
-101.083
-100.803
-100.836
-101.306
-102.427
-104.491
-107.63
-111.862
-117.075
-122.853
-128.714
-134.189
-138.557
-141.049
-141.349
-139.336
-135.218
-130.123
-125.458
-122.546
-122.902
-126.39
-130.581
-133.518
-134.373
-135.034
-139.651
-148.368
-153.603
-141.19
-96.454
-11.225
108.87
247.948
389.833
518.917
628.703
718.606
785.391
830.746
854.047
853.131
830.679
785.459
717.333
629.578
524.58
407.608
285.08
161.715
41.848
-70.596
-172.447
-260.914
-333.717
-389.634
-428.934
-452.685
-461.729
-457.358
-441.474
-415.924
-384.314
-350.322
-314.576
-278.047
-240.262
-200.74
-164.42
-134.583
-113.911
-104.092
-100.459
-100.642
-103.692
-109.346
-118.634
-127.31
-129.646
-119.214
-94.71
-63.711
-34.004
-13.784
-5.636
-4.138
-5.354
-6.223
-5.486
-5.344
-6.485
-8.17
-10.081
-11.584
-12.404
-12.908
-13.158
-12.966
-12.321
-11.256
-9.755
-7.842
-5.521
-2.744
0.45
3.952
7.702
11.643
15.723
19.915
24.152
28.354
32.447
36.341
39.97
43.292
46.279
48.929
51.263
53.303
55.087
56.668
58.085
59.381
60.591
61.737
62.853
63.981
65.164
66.458
67.91
69.55
71.408
73.502
75.841
78.433
81.276
84.359
87.671
91.204
94.951
98.909
103.069
107.419
111.944
116.624
121.441
126.375
131.405
136.509
141.663
146.844
152.031
157.202
162.333
167.401
172.379
177.239
181.954
186.499
190.845
194.967
198.837
202.432
205.73
208.708
211.348
213.63
215.539
217.059
218.178
218.883
219.165
219.017
218.431
217.403
215.93
214.013
211.652
208.85
205.613
201.948
197.863
193.368
188.476
183.2
177.555
171.557
165.224
158.575
151.631
144.413
136.943
129.246
121.345
113.264
105.03
96.665
88.197
79.65
71.048
62.417
53.781
45.164
36.59
28.082
19.663
11.354
3.178
-4.846
-12.698
-20.36
-27.814
-35.042
-42.028
-48.759
-55.223
-61.408
-67.305
-72.902
-78.187
-83.157
-87.812
-92.137
-96.119
-99.751
-103.02
-105.937
-108.522
-110.761
-112.644
-114.209
-115.491
-116.517
-117.327
-117.901
-118.19
-118.236
-118.103
-117.655
-116.727
-115.435
-113.781
-111.744
-109.711
-106.683
-101.694
-96.158
-90.517
-87.364
-89.799
-94.422
-98.971
-100.069
-93.074
-82.121
-70.718
-61.275
-57.759
-57.358
-57.222
-56.725
-54.135
-50.48
-47.076
-43.688
-40.494
-37.418
-34.208
-31.047
-28.084
-25.282
-22.641
-20.186
-17.92
-15.841
-13.95
-12.226
-10.644
-9.221
-7.971
-6.889
-5.98
-5.24
-4.667
-4.263
-4.026
-3.952
-4.035
-4.268
-4.646
-5.162
-5.81
-6.581
-7.47
-8.467
-9.564
-10.753
-12.026
-13.372
-14.783
-16.249
-17.76
-19.307
-20.88
-22.468
-24.061
-25.651
-27.225
-28.775
-30.29
-31.76
-33.176
-34.528
-35.806
-37.003
-38.111
-39.122
-40.029
-40.827
-41.51
-42.073
-42.511
-42.821
-42.998
-43.04
-42.942
-42.701
-42.316
-41.784
-41.104
-40.275
-39.296
-38.168
-36.891
-35.468
-33.899
-32.188
-30.338
-28.351
-26.234
-23.991
-21.629
-19.155
-16.578
-13.906
-11.149
-8.317
-5.419
-2.467
0.529
3.558
6.609
9.669
12.728
15.773
18.789
21.761
24.672
27.504
30.24
32.861
35.351
37.692
39.867
41.86
43.658
45.251
46.627
47.774
48.679
49.33
49.723
49.851
49.712
49.307
48.633
47.697
46.51
45.08
43.417
41.526
39.398
37.031
34.43
31.601
28.56
25.324
21.912
18.357
14.707
11.009
7.319
3.679
0.128
-3.284
-6.513
-9.499
-12.175
-14.485
-16.375
-17.795
-18.727
-19.165
-19.129
-18.684
-17.875
-16.759
-15.539
-14.41
-13.579
-13.288
-13.601
-14.599
-16.539
-19.565
-23.406
-27.64
-31.634
-34.694
-36.662
-37.352
-36.338
-33.509
-29.455
-25.326
-22.715
-23.229
-27.528
-35.938
-48.749
-65.523
-84.645
-103.239
-117.601
-123.697
-118.32
-98.941
-63.154
-9.582
61.381
147.509
245.014
348.74
453.42
553.877
644.124
718.509
772.651
803.262
808.647
788.971
745.061
678.411
592.179
490.3
377.012
257.326
136.043
17.068
-95.693
-198.44
-288.238
-362.654
-419.994
-460.196
-484.079
-492.334
-486.086
-467.133
-437.585
-400.288
-358.364
-313.918
-268.457
-223.929
-182.377
-145.558
-114.916
-90.681
-72.135
-58.918
-50.718
-46.628
-45.334
-45.185
-44.45
-42.354
-38.949
-34.24
-28.332
-21.583
-14.528
-8.082
-3.29
-0.595
0.094
-0.988
-3.481
-7.015
-11.221
-15.543
-19.332
-22.205
-24.024
-24.79
-24.626
-23.618
-21.811
-19.306
-16.255
-12.79
-9.026
-5.05
-0.904
3.341
7.576
11.684
15.536
19.048
22.184
24.931
27.288
29.267
30.885
32.177
33.2
34.006
34.643
35.154
35.573
35.942
36.316
36.754
37.319
38.061
39.011
40.195
41.633
43.337
45.319
47.577
50.102
52.886
55.924
59.212
62.746
66.518
70.513
74.717
79.11
83.673
88.386
93.228
98.175
103.204
108.29
113.409
118.539
123.655
128.727
133.729
138.63
143.401
148.012
152.433
156.636
160.592
164.273
167.655
170.713
173.425
175.77
177.729
179.286
180.425
181.133
181.401
181.219
180.583
179.489
177.936
175.926
173.463
170.554
167.209
163.439
159.257
154.679
149.722
144.406
138.751
132.781
126.518
119.988
113.218
106.234
99.066
91.742
84.291
76.744
69.129
61.476
53.814
46.171
38.576
31.056
23.637
16.343
9.2
2.229
-4.548
-11.112
-17.445
-23.533
-29.361
-34.917
-40.191
-45.176
-49.865
-54.255
-58.342
-62.128
-65.612
-68.799
-71.693
-74.301
-76.631
-78.693
-80.498
-82.058
-83.386
-84.497
-85.407
-86.131
-86.685
-87.088
-87.356
-87.507
-87.559
-87.528
-87.433
-87.289
-87.112
-86.918
-86.721
-86.534
-86.369
-86.238
-86.15
-86.114
-86.137
-86.227
-86.387
-86.621
-86.932
-87.321
-87.788
-88.332
-88.949
-89.638
-90.393
-91.21
-92.081
-93.001
-93.961
-94.953
-95.969
-96.998
-98.031
-99.059
-100.071
-101.058
-102.009
-102.916
-103.77
-104.561
-105.281
-105.924
-106.482
-106.949
-107.32
-107.59
-107.756
-107.814
-107.764
-107.604
-107.335
-106.956
-106.47
-105.879
-105.186
-104.395
-103.511
-102.538
-101.482
-100.35
-99.148
-97.884
-96.564
-95.198
-93.791
-92.354
-90.892
-89.414
-87.929
-86.443
-84.963
-83.498
-82.054
-80.638
-79.255
-77.912
-76.613
-75.363
-74.166
-73.025
-71.944
-70.924
-69.965
-69.071
-68.244
-67.485
-66.796
-66.173
-65.613
-65.118
-64.694
-64.326
-64.002
-63.713
-63.444
-63.204
-63.009
-62.84
-62.676
-62.555
-62.503
-62.539
-62.699
-62.946
-63.217
-63.542
-63.98
-64.366
-64.508
-64.517
-64.38
-64.058
-63.959
-62.976
-60.032
-56.661
-53.326
-52.847
-58.6
-66.847
-75.098
-79.646
-75.396
-66.857
-57.849
-50.991
-50.61
-53.617
-56.88
-59.706
-60.187
-59.437
-58.888
-58.276
-57.792
-57.347
-56.663
-55.936
-55.329
-54.801
-54.349
-53.998
-53.748
-53.596
-53.542
-53.568
-53.649
-53.806
-54.059
-54.408
-54.86
-55.418
-56.083
-56.853
-57.727
-58.7
-59.77
-60.949
-62.246
-63.667
-65.21
-66.872
-68.639
-70.495
-72.414
-74.347
-76.247
-78.067
-79.76
-81.298
-82.652
-83.783
-84.644
-85.173
-85.306
-85.001
-84.225
-82.956
-81.209
-79.019
-76.459
-73.648
-70.698
-67.728
-64.872
-62.264
-60.037
-58.313
-57.194
-56.84
-57.49
-59.317
-62.349
-66.384
-71.022
-75.89
-80.636
-84.76
-87.602
-88.522
-87.219
-84.18
-80.31
-76.294
-72.956
-71.162
-71.543
-75.022
-80.738
-84.9
-85.389
-81.245
-72.703
-63.294
-49.62
-22.274
25.933
101.85
202.735
316.696
436.526
556.465
671.783
778.741
864.891
916.033
924.935
892.112
828.498
746.984
655.22
555.955
447.335
329.444
206.446
83.973
-31.135
-133.867
-221.975
-293.944
-349.211
-388.653
-413.41
-424.807
-424.704
-414.595
-396.026
-371.313
-342.56
-310.9
-277.415
-243.217
-209.563
-178.45
-151.23
-128.027
-108.717
-93.32
-81.636
-73.334
-67.42
-61.958
-55.682
-48.287
-39.787
-30.449
-20.576
-10.375
-0.518
7.747
13.643
16.944
17.708
16.376
13.38
9.003
3.715
-1.807
-7.036
-11.589
-15.206
-17.869
-19.585
-20.32
-20.111
-19.021
-17.114
-14.492
-11.257
-7.491
-3.292
1.244
6.034
10.96
15.893
20.705
25.264
29.491
33.346
36.793
39.812
42.399
44.562
46.349
47.82
49.017
49.991
50.8
51.497
52.16
52.852
53.582
54.373
55.275
56.287
57.385
58.554
59.728
60.906
62.245
63.873
65.783
68.104
71.133
74.891
79.297
84.343
89.314
94.523
102.189
112.053
122.273
128.95
123.501
104.807
80.861
62.99
67.806
100.095
147.061
191.185
212.893
204.443
176.935
146.615
127.625
126.209
136.869
150.378
160.911
166.241
167.701
168.122
168.381
168.222
167.478
165.853
163.44
160.594
157.412
153.887
150.1
146.09
141.819
137.249
132.331
127.028
121.364
115.387
109.122
102.59
95.821
88.846
81.7
74.423
67.044
59.589
52.087
44.569
37.065
29.605
22.217
14.93
7.768
0.758
-6.077
-12.715
-19.133
-25.314
-31.238
-36.891
-42.257
-47.326
-52.086
-56.529
-60.65
-64.443
-67.907
-71.042
-73.849
-76.333
-78.498
-80.352
-81.903
-83.161
-84.139
-84.848
-85.302
-85.515
-85.502
-85.278
-84.861
-84.264
-83.506
-82.601
-81.567
-80.419
-79.173
-77.843
-76.446
-74.995
-73.503
-71.984
-70.45
-68.913
-67.383
-65.87
-64.384
-62.932
-61.521
-60.157
-58.846
-57.592
-56.398
-55.267
-54.2
-53.195
-52.256
-51.383
-50.576
-49.834
-49.155
-48.533
-47.969
-47.467
-47.014
-46.598
-46.209
-45.835
-45.482
-45.167
-44.87
-44.575
-44.315
-44.116
-43.998
-43.993
-44.07
-44.172
-44.329
-44.596
-44.826
-44.841
-44.746
-44.533
-44.168
-44.029
-43.1
-40.394
-37.325
-34.322
-33.984
-39.42
-47.192
-55.01
-59.465
-55.868
-48.371
-40.49
-34.636
-34.791
-38.113
-41.717
-44.964
-46.098
-46.14
-46.405
-46.642
-47.022
-47.455
-47.678
-47.864
-48.153
-48.499
-48.89
-49.343
-49.851
-50.402
-50.989
-51.584
-52.153
-52.705
-53.247
-53.769
-54.269
-54.741
-55.177
-55.575
-55.934
-56.245
-56.501
-56.696
-56.823
-56.877
-56.851
-56.741
-56.54
-56.243
-55.845
-55.342
-54.729
-54.002
-53.157
-52.19
-51.099
-49.882
-48.537
-47.064
-45.462
-43.734
-41.881
-39.906
-37.814
-35.611
-33.301
-30.892
-28.392
-25.81
-23.155
-20.439
-17.672
-14.868
-12.04
-9.205
-6.38
-3.584
-0.836
1.844
4.436
6.919
9.271
11.475
13.515
15.373
17.034
18.482
19.699
20.668
21.377
21.812
21.963
21.823
21.383
20.644
19.613
18.295
16.697
14.817
12.647
10.178
7.411
4.352
1.009
-2.599
-6.453
-10.517
-14.74
-19.067
-23.443
-27.819
-32.159
-36.419
-40.545
-44.466
-48.093
-51.344
-54.151
-56.459
-58.232
-59.453
-60.125
-60.286
-60.001
-59.352
-58.451
-57.411
-56.345
-55.392
-54.678
-54.395
-54.832
-56.204
-58.573
-61.793
-65.5
-69.255
-72.673
-75.269
-76.406
-75.623
-72.857
-68.751
-64.476
-61.295
-60.553
-63.202
-69.861
-81.069
-95.184
-109.166
-121
-127.071
-125.888
-117.216
-94.939
-54.607
8.016
96.44
203.454
320.612
439.544
550.824
651.739
739.14
808.473
857.377
881.87
880.177
853.55
802.53
729.139
637.073
530.038
412.958
291.554
170.037
52.208
-57.248
-154.487
-236.459
-300.826
-347.572
-378.024
-393.159
-394.359
-383.89
-364.318
-338.872
-310.708
-281.313
-251.534
-222.411
-195.058
-170.807
-150.285
-132.924
-117.922
-105.139
-94.603
-86.258
-79.499
-72.818
-65.29
-56.977
-48.191
-39.26
-30.385
-21.539
-13.089
-6.065
-1.127
1.597
2.206
1.141
-1.196
-4.649
-8.898
-13.393
-17.71
-21.498
-24.497
-26.708
-28.148
-28.789
-28.681
-27.874
-26.413
-24.406
-21.958
-19.153
-16.093
-12.848
-9.469
-6.04
-2.65
0.59
3.557
6.186
8.452
10.334
11.83
12.939
13.665
14.055
14.171
14.068
13.797
13.397
12.897
12.345
11.794
11.302
10.934
10.734
10.736
10.971
11.467
12.243
13.317
14.692
16.358
18.312
20.555
23.084
25.899
28.993
32.355
35.97
39.825
43.9
48.18
52.642
57.264
62.022
66.893
71.853
76.88
81.949
87.032
92.101
97.128
102.083
106.938
111.662
116.227
120.605
124.768
128.692
132.353
135.729
138.799
141.545
143.949
145.997
147.674
148.971
149.879
150.39
150.502
150.212
149.522
148.435
146.957
145.096
142.863
140.271
137.332
134.064
130.484
126.607
122.457
118.057
113.429
108.598
103.59
98.423
93.126
87.728
82.243
76.689
71.089
65.448
59.796
54.185
48.632
43.149
37.807
32.642
27.673
22.967
18.529
14.276
10.219
6.4
2.642
-1.194
-4.932
-8.614
-12.336
-15.548
-19.074
-24.028
-28.982
-33.474
-35.333
-30.294
-20.693
-10.442
-3.465
-7.423
-21.689
-38.845
-53.879
-58.936
-51.567
-39.391
-27.058
-19.08
-18.952
-22.139
-25.637
-28.555
-28.981
-28.337
-27.919
-27.313
-26.812
-26.366
-25.659
-24.935
-24.411
-24.078
-24.035
-24.328
-24.783
-25.256
-25.746
-26.07
-25.914
-25.31
-24.305
-22.903
-21.852
-20.621
-17.101
-11.883
-6.477
-4.993
-15.733
-38.561
-65.999
-86.786
-84.536
-56.471
-14.937
23.195
38.501
25.251
-5.446
-38.148
-58.686
-61.904
-53.499
-42.074
-33.439
-29.525
-28.818
-28.711
-28.344
-27.935
-27.684
-27.852
-28.327
-28.78
-29.131
-29.39
-29.492
-29.425
-29.242
-29
-28.774
-28.623
-28.546
-28.527
-28.571
-28.689
-28.881
-29.151
-29.495
-29.908
-30.393
-30.958
-31.603
-32.331
-33.14
-34.027
-34.991
-36.028
-37.137
-38.311
-39.547
-40.838
-42.178
-43.56
-44.977
-46.42
-47.88
-49.347
-50.813
-52.264
-53.691
-55.081
-56.424
-57.707
-58.92
-60.05
-61.088
-62.022
-62.842
-63.539
-64.103
-64.526
-64.801
-64.919
-64.876
-64.666
-64.286
-63.733
-63.007
-62.106
-61.033
-59.789
-58.379
-56.807
-55.078
-53.202
-51.187
-49.043
-46.783
-44.42
-41.97
-39.451
-36.882
-34.282
-31.674
-29.079
-26.52
-24.021
-21.605
-19.291
-17.101
-15.055
-13.173
-11.476
-9.983
-8.715
-7.69
-6.924
-6.433
-6.231
-6.323
-6.715
-7.406
-8.394
-9.681
-11.274
-13.176
-15.389
-17.91
-20.735
-23.85
-27.233
-30.85
-34.651
-38.584
-42.597
-46.643
-50.682
-54.672
-58.568
-62.317
-65.853
-69.113
-72.037
-74.569
-76.662
-78.294
-79.477
-80.26
-80.731
-80.978
-81.074
-81.095
-81.112
-81.204
-81.465
-82.015
-82.987
-84.564
-86.973
-90.361
-94.776
-100.104
-105.968
-111.845
-117.135
-121.132
-123.154
-122.743
-119.655
-114.262
-107.665
-101.297
-96.936
-95.218
-95.143
-95.775
-95.969
-97.653
-106.235
-122.971
-144.905
-160.322
-149.66
-101.105
-10.7
112.567
249.292
385.961
510.668
618.819
710.739
781.277
830.256
856.465
857.317
835.575
789.8
719.123
626.861
515.827
391.601
261.139
129.749
2.308
-116.408
-222.438
-312.951
-385.922
-440.377
-477.085
-497.81
-504.633
-500.408
-487.829
-468.67
-444.754
-417.896
-388.983
-358.325
-326.158
-292.503
-257.84
-223.771
-191.826
-162.839
-137.691
-117.18
-101.771
-91.725
-86.626
-84.862
-84.58
-84.657
-84.295
-82.968
-80.439
-76.528
-71.415
-65.975
-61.329
-58.089
-56.444
-56.319
-57.441
-59.593
-62.509
-65.674
-68.433
-70.331
-71.169
-70.93
-69.736
-67.685
-64.824
-61.256
-57.137
-52.615
-47.811
-42.81
-37.638
-32.34
-27.009
-21.743
-16.65
-11.841
-7.371
-3.267
0.448
3.78
6.744
9.358
11.664
13.714
15.551
17.216
18.743
20.158
21.501
22.82
24.168
25.603
27.168
28.89
30.796
32.904
35.223
37.762
40.52
43.483
46.644
49.999
53.541
57.266
61.166
65.228
69.437
73.773
78.218
82.752
87.356
92.008
96.685
101.365
106.026
110.65
115.214
119.695
124.068
128.309
132.392
136.293
139.99
143.457
146.672
149.615
152.266
154.608
156.625
158.304
159.631
160.597
161.193
161.413
161.251
160.707
159.779
158.469
156.782
154.725
152.305
149.533
146.421
142.985
139.238
135.199
130.885
126.317
121.513
116.496
111.286
105.908
100.383
94.734
88.985
83.16
77.282
71.372
65.453
59.546
53.672
47.851
42.101
36.441
30.887
25.455
20.162
15.019
10.04
5.235
0.615
-3.815
-8.045
-12.073
-15.893
-19.502
-22.9
-26.087
-29.062
-31.827
-34.385
-36.74
-38.895
-40.857
-42.63
-44.22
-45.634
-46.879
-47.961
-48.889
-49.668
-50.307
-50.812
-51.191
-51.452
-51.602
-51.649
-51.599
-51.46
-51.24
-50.943
-50.578
-50.149
-49.662
-49.122
-48.535
-47.905
-47.236
-46.533
-45.8
-45.041
-44.258
-43.457
-42.639
-41.808
-40.966
-40.117
-39.265
-38.411
-37.559
-36.712
-35.874
-35.049
-34.238
-33.446
-32.675
-31.929
-31.209
-30.52
-29.863
-29.24
-28.655
-28.11
-27.606
-27.145
-26.73
-26.362
-26.042
-25.771
-25.551
-25.382
-25.264
-25.199
-25.186
-25.225
-25.316
-25.46
-25.654
-25.899
-26.193
-26.536
-26.924
-27.356
-27.829
-28.342
-28.892
-29.476
-30.091
-30.734
-31.404
-32.097
-32.811
-33.542
-34.288
-35.047
-35.814
-36.589
-37.367
-38.147
-38.926
-39.701
-40.471
-41.232
-41.982
-42.719
-43.439
-44.14
-44.818
-45.469
-46.091
-46.679
-47.227
-47.733
-48.197
-48.614
-48.981
-49.295
-49.547
-49.738
-49.87
-49.928
-49.9
-49.776
-49.541
-49.2
-48.77
-48.231
-47.566
-46.808
-45.982
-45.107
-44.216
-43.277
-42.234
-41.116
-39.98
-38.679
-37.038
-35.167
-33.057
-30.68
-28.418
-25.264
-20.238
-14.759
-9.264
-6.352
-9.137
-14.197
-19.26
-20.934
-14.557
-4.282
6.363
14.956
17.505
16.83
15.786
14.992
16.182
18.318
20.073
21.681
22.959
23.978
24.986
25.793
26.248
26.384
26.202
25.678
24.81
23.611
22.093
20.291
18.245
15.944
13.371
10.526
7.412
4.034
0.406
-3.457
-7.54
-11.806
-16.202
-20.674
-25.165
-29.627
-34.023
-38.307
-42.427
-46.311
-49.871
-53.025
-55.698
-57.832
-59.387
-60.34
-60.688
-60.465
-59.728
-58.557
-57.073
-55.388
-53.624
-51.92
-50.406
-49.292
-48.89
-49.435
-51.001
-53.464
-56.487
-59.653
-62.586
-64.774
-65.521
-64.316
-61.097
-56.494
-51.646
-47.85
-46.534
-48.796
-55.518
-67.426
-82.836
-98.775
-113.447
-122.998
-125.446
-120.143
-99.967
-60.764
-0.236
85.891
192.233
313.445
447.039
582.049
708.423
815.826
890.038
927.963
933.912
912.494
872.013
814.728
737.523
641.259
527.899
402.545
273.805
147.482
27.862
-80.827
-175.901
-254.922
-315.895
-359.172
-386.198
-398.299
-397.243
-384.886
-363.342
-335.673
-304.803
-272.268
-239.169
-206.56
-175.577
-147.958
-124.642
-105.228
-89.085
-75.957
-65.634
-57.967
-52.219
-46.693
-40.398
-33.288
-25.563
-17.578
-9.569
-1.549
6.024
12.082
15.989
17.638
17.194
15.16
11.956
7.814
3.137
-1.444
-5.407
-8.415
-10.304
-11.138
-10.999
-9.901
-7.894
-5.073
-1.55
2.536
7.047
11.888
16.964
22.167
27.38
32.461
37.242
41.606
45.475
48.804
51.575
53.775
55.384
56.407
56.877
56.831
56.31
55.347
53.961
52.185
50.06
47.64
44.986
42.143
39.141
36.004
32.751
29.401
25.973
22.479
18.916
15.291
11.612
7.893
4.154
0.408
-3.333
-7.059
-10.758
-14.417
-18.02
-21.553
-25.004
-28.356
-31.596
-34.707
-37.671
-40.473
-43.102
-45.545
-47.792
-49.835
-51.665
-53.275
-54.66
-55.815
-56.735
-57.416
-57.855
-58.05
-58
-57.705
-57.167
-56.387
-55.371
-54.122
-52.648
-50.955
-49.052
-46.948
-44.654
-42.182
-39.544
-36.753
-33.822
-30.767
-27.603
-24.344
-21.008
-17.609
-14.164
-10.689
-7.199
-3.71
-0.238
3.203
6.598
9.934
13.197
16.376
19.457
22.43
25.284
28.011
30.602
33.05
35.349
37.494
39.482
41.311
42.979
44.487
45.836
47.028
48.068
48.959
49.709
50.323
50.81
51.179
51.438
51.599
51.67
51.665
51.594
51.468
51.301
51.103
50.886
50.663
50.446
50.244
50.07
49.934
49.847
49.817
49.853
49.965
50.16
50.444
50.824
51.305
51.892
52.589
53.398
54.321
55.359
56.511
57.777
59.153
60.637
62.223
63.907
65.682
67.541
69.477
71.479
73.538
75.646
77.79
79.96
82.144
84.33
86.507
88.662
90.784
92.861
94.88
96.831
98.703
100.484
102.164
103.733
105.181
106.5
107.682
108.719
109.606
110.336
110.907
111.314
111.559
111.641
111.561
111.318
110.917
110.362
109.66
108.824
107.858
106.766
105.572
104.295
102.956
101.58
100.173
98.731
97.284
95.867
94.457
93.044
91.622
90.174
88.745
87.408
86.146
84.917
83.885
83.238
82.883
82.84
83.151
83.444
84.746
88.054
91.948
95.998
97.589
93.592
87.455
81.47
79.054
84.904
94.832
105.286
113.822
116.414
115.898
115.144
114.769
116.508
119.304
121.806
124.23
126.376
128.296
130.223
131.947
133.293
134.274
134.867
135.024
134.716
133.926
132.631
130.833
128.541
125.722
122.35
118.417
113.916
108.842
103.196
96.978
90.187
82.835
74.936
66.503
57.553
48.103
38.179
27.805
17.014
5.837
-5.692
-17.536
-29.653
-42.002
-54.536
-67.214
-79.995
-92.834
-105.683
-118.492
-131.208
-143.783
-156.179
-168.359
-180.285
-191.928
-203.263
-214.275
-224.967
-235.335
-245.371
-255.065
-264.396
-273.356
-281.948
-290.166
-298.001
-305.434
-312.429
-318.952
-324.979
-330.467
-335.351
-339.556
-342.981
-345.543
-347.191
-347.872
-347.536
-346.132
-343.602
-339.922
-335.108
-329.193
-322.232
-314.29
-305.427
-295.752
-285.429
-274.64
-263.598
-252.51
-241.55
-230.925
-220.869
-211.589
-203.303
-196.198
-190.401
-186.055
-183.285
-182.163
-182.789
-185.254
-189.483
-195.294
-202.326
-209.974
-217.628
-224.71
-230.516
-234.319
-235.629
-234.274
-230.671
-225.846
-220.891
-216.749
-214.23
-213.971
-216.185
-220.361
-224.864
-226.995
-223.581
-211.521
-188.189
-151.244
-98.976
-30.958
51.721
146.364
248.79
354.136
457.447
553.144
635.607
700.088
742.563
760.283
752.369
718.969
661.081
581.413
483.798
372.593
253.213
131.287
11.651
-100.939
-201.998
-288.248
-357.334
-407.804
-439.919
-454.988
-454.374
-440.17
-415.231
-382.396
-344.624
-304.862
-265.141
-226.996
-192.226
-162.05
-136.772
-116.409
-100.494
-88.087
-78.567
-71.206
-64.71
-58.175
-51.364
-44.223
-37.079
-30.526
-24.881
-20.656
-18.785
-19.861
-24.061
-31.334
-41.236
-53.216
-66.896
-81.732
-96.955
-111.888
-125.924
-138.612
-149.778
-159.323
-167.157
-173.257
-177.628
-180.304
-181.378
-180.938
-179.058
-175.813
-171.237
-165.411
-158.504
-150.737
-142.382
-133.693
-124.83
-115.91
-107.027
-98.244
-89.626
-81.197
-72.934
-64.822
-56.863
-49.079
-41.537
-34.271
-27.255
-20.435
-13.717
-6.998
-0.222
6.652
13.671
20.853
28.211
35.743
43.412
51.188
59.063
67.041
75.145
83.395
91.781
100.285
108.873
117.501
126.136
134.745
143.289
151.742
160.083
168.295
176.375
184.323
192.129
199.776
207.242
214.505
221.543
228.34
234.877
241.14
247.116
252.788
258.148
263.181
267.872
272.206
276.161
279.717
282.856
285.557
287.806
289.586
290.884
291.687
291.984
291.769
291.032
289.767
287.971
285.638
282.767
279.36
275.418
270.947
265.954
260.449
254.444
247.953
240.993
233.583
225.744
217.498
208.871
199.889
190.58
180.974
171.105
161.005
150.709
140.254
129.678
119.017
108.313
97.603
86.926
76.323
65.83
55.485
45.326
35.389
25.707
16.314
7.241
-1.484
-9.832
-17.781
-25.309
-32.397
-39.03
-45.194
-50.881
-56.083
-60.797
-65.023
-68.764
-72.025
-74.815
-77.147
-79.035
-80.498
-81.556
-82.231
-82.549
-82.537
-82.224
-81.639
-80.814
-79.783
-78.579
-77.235
-75.787
-74.267
-72.711
-71.15
-69.617
-68.142
-66.755
-65.482
-64.35
-63.38
-62.595
-62.012
-61.647
-61.514
-61.623
-61.981
-62.594
-63.464
-64.588
-65.964
-67.585
-69.442
-71.523
-73.814
-76.299
-78.96
-81.777
-84.728
-87.791
-90.94
-94.15
-97.394
-100.647
-103.88
-107.067
-110.182
-113.197
-116.089
-118.833
-121.406
-123.787
-125.956
-127.894
-129.586
-131.017
-132.175
-133.05
-133.634
-133.923
-133.914
-133.605
-132.998
-132.097
-130.909
-129.44
-127.702
-125.704
-123.461
-120.988
-118.301
-115.418
-112.357
-109.139
-105.783
-102.312
-98.746
-95.107
-91.417
-87.695
-83.963
-80.24
-76.547
-72.9
-69.319
-65.817
-62.411
-59.114
-55.937
-52.891
-49.984
-47.223
-44.612
-42.156
-39.857
-37.713
-35.725
-33.889
-32.201
-30.656
-29.245
-27.96
-26.791
-25.729
-24.759
-23.871
-23.049
-22.282
-21.554
-20.851
-20.159
-19.463
-18.749
-18.003
-17.209
-16.355
-15.427
-14.412
-13.297
-12.073
-10.728
-9.254
-7.643
-5.887
-3.98
-1.919
0.301
2.682
5.225
7.932
10.799
13.823
17.001
20.325
23.789
27.384
31.1
34.927
38.853
42.866
46.953
51.099
55.288
59.506
63.733
67.952
72.14
76.277
80.34
84.306
88.151
91.848
95.371
98.692
101.787
104.636
107.215
109.504
111.482
113.13
114.434
115.382
115.963
116.164
115.97
115.371
114.368
112.967
111.18
109.018
106.479
103.554
100.24
96.537
92.454
87.992
83.149
77.93
72.359
66.491
60.401
54.155
47.801
41.363
34.848
28.287
21.765
15.378
9.231
3.42
-2.038
-7.082
-11.6
-15.588
-19.137
-22.473
-26.056
-30.275
-35.229
-41.003
-47.601
-54.798
-62.518
-70.461
-77.791
-83.784
-88.018
-90.266
-90.864
-90.537
-89.58
-88.507
-88.486
-90.743
-96.68
-107.352
-122.635
-141.723
-164.217
-189.313
-215.352
-240.234
-259.562
-269.107
-267.347
-252.132
-224.102
-184.348
-129.293
-59.37
26.793
132.076
251.104
381.418
515.129
636.885
737.886
807.698
843.463
852.899
840.548
812.37
770.061
709.031
628.674
530.216
416.946
295.762
171.874
49.052
-67.882
-174.714
-267.776
-343.771
-401.172
-439.994
-460.426
-462.98
-450.031
-425.094
-392.07
-355.058
-317.043
-279.92
-245.922
-217.532
-195.799
-180.549
-170.821
-164.957
-161.785
-160.698
-160.455
-159.159
-155.624
-149.405
-140.645
-130.149
-118.566
-106.234
-93.854
-82.515
-72.916
-65.36
-59.818
-55.769
-52.654
-50.032
-47.335
-43.972
-39.636
-34.15
-27.397
-19.601
-11.103
-2.214
6.606
15.118
23.441
31.514
39.073
46.113
52.693
58.876
65.007
70.901
75.732
79.084
80.865
80.811
78.74
74.364
67.03
56.887
44.981
32.01
18.483
4.986
-8.078
-20.032
-29.819
-37.088
-42.228
-45.47
-47.018
-47.042
-45.481
-42.549
-38.748
-34.228
-28.854
-22.604
-15.45
-7.485
0.968
9.714
18.688
27.667
36.398
44.883
53.143
60.977
68.4
75.461
81.787
88.479
96.583
104.622
112.182
116.572
114.586
109.929
105.076
103.68
110.723
121.866
133.431
142.891
146.044
145.855
145.327
145.095
146.98
149.888
152.407
154.763
156.74
158.38
159.928
161.175
161.955
162.307
162.233
161.714
160.761
159.402
157.658
155.571
153.188
150.505
147.528
144.279
140.777
137.044
133.101
128.962
124.639
120.15
115.513
110.742
105.851
100.849
95.747
90.56
85.302
79.988
74.63
69.238
63.823
58.398
52.973
47.563
42.173
36.804
31.477
26.207
21.008
15.9
10.879
5.933
1.084
-3.647
-8.291
-12.871
-17.404
-21.919
-26.383
-30.734
-35.001
-39.235
-43.285
-46.971
-50.396
-53.546
-56.386
-59.295
-61.247
-61.243
-60.705
-60.066
-61.941
-69.461
-79.161
-88.729
-94.725
-92.425
-86.009
-79.023
-73.898
-74.648
-78.409
-82.276
-85.606
-86.633
-86.391
-86.209
-85.84
-85.459
-84.986
-84.159
-83.161
-82.139
-81.054
-79.904
-78.713
-77.484
-76.214
-74.904
-73.538
-72.091
-70.582
-69.032
-67.442
-65.819
-64.171
-62.502
-60.821
-59.139
-57.458
-55.784
-54.121
-52.473
-50.845
-49.241
-47.665
-46.118
-44.605
-43.126
-41.685
-40.284
-38.923
-37.604
-36.329
-35.098
-33.914
-32.777
-31.688
-30.649
-29.662
-28.728
-27.847
-27.022
-26.253
-25.541
-24.887
-24.291
-23.754
-23.277
-22.86
-22.503
-22.208
-21.975
-21.806
-21.701
-21.661
-21.688
-21.784
-21.948
-22.183
-22.491
-22.873
-23.331
-23.865
-24.478
-25.17
-25.942
-26.794
-27.725
-28.736
-29.823
-30.987
-32.224
-33.532
-34.908
-36.348
-37.85
-39.409
-41.02
-42.679
-44.379
-46.115
-47.88
-49.668
-51.472
-53.283
-55.095
-56.898
-58.685
-60.447
-62.174
-63.858
-65.487
-67.053
-68.545
-69.951
-71.263
-72.469
-73.56
-74.528
-75.363
-76.057
-76.603
-76.994
-77.222
-77.283
-77.171
-76.881
-76.411
-75.757
-74.919
-73.896
-72.689
-71.3
-69.732
-67.99
-66.078
-64.003
-61.772
-59.392
-56.873
-54.226
-51.46
-48.591
-45.63
-42.596
-39.508
-36.384
-33.246
-30.115
-27.013
-23.964
-20.988
-18.106
-15.336
-12.695
-10.202
-7.874
-5.733
-3.797
-2.082
-0.604
0.621
1.583
2.27
2.675
2.802
2.65
2.22
1.502
0.479
-0.864
-2.532
-4.529
-6.848
-9.481
-12.411
-15.608
-19.017
-22.585
-26.256
-29.982
-33.728
-37.45
-41.096
-44.596
-47.868
-50.838
-53.445
-55.65
-57.43
-58.783
-59.731
-60.33
-60.666
-60.858
-61.051
-61.379
-61.971
-62.96
-64.458
-66.668
-69.89
-74.301
-79.908
-86.553
-93.872
-101.51
-109.187
-116.395
-122.397
-126.704
-129.251
-130.489
-131.287
-132.619
-135.376
-140.409
-148.76
-159.707
-170.447
-178.512
-181.909
-182.178
-183.359
-184.48
-178.794
-153.593
-95.631
-2.264
118.25
249.463
374.129
483.154
574.175
648.452
706.822
747.032
765.477
759.633
729.394
676
602.036
511.389
407.936
296.016
180.495
65.185
-46.523
-150.649
-243.845
-323.522
-387.56
-435.273
-467.201
-483.861
-486.089
-475.45
-453.906
-424.049
-388.829
-350.599
-311.04
-271.787
-234.544
-201.128
-172.9
-150.102
-132.28
-118.751
-108.783
-101.724
-96.778
-92.496
-87.711
-81.417
-71.593
-57.224
-39.898
-24.407
-19.045
-30.667
-56.376
-83.686
-97.014
-83.47
-46.489
-4.589
24.539
26.963
4.322
-26.311
-51.918
-63.314
-59.557
-49.89
-39.815
-31.846
-26.948
-22.387
-17.064
-11.553
-5.909
-0.548
4.27
8.757
12.931
16.697
20.089
23.17
25.936
28.345
30.373
32.003
33.261
34.229
34.963
35.496
35.878
36.168
36.434
36.762
37.219
37.846
38.68
39.749
41.076
42.683
44.584
46.781
49.275
52.069
55.165
58.571
62.286
66.305
70.618
75.213
80.075
85.191
90.546
96.12
101.895
107.848
113.958
120.203
126.559
132.996
139.485
145.991
152.481
158.923
165.281
171.519
177.604
183.502
189.182
194.613
199.765
204.61
209.121
213.273
217.043
220.409
223.352
225.856
227.906
229.49
230.599
231.227
231.37
231.027
230.198
228.888
227.103
224.853
222.147
219
215.429
211.451
207.087
202.36
197.294
191.916
186.251
180.328
174.176
167.824
161.303
154.64
147.868
141.015
134.113
127.189
120.272
113.392
106.575
99.846
93.231
86.753
80.434
74.294
68.353
62.628
57.134
51.886
46.897
42.177
37.735
33.577
29.708
26.132
22.85
19.86
17.159
14.745
12.612
10.752
9.158
7.819
6.726
5.866
5.227
4.794
4.554
4.491
4.59
4.836
5.212
5.704
6.296
6.972
7.717
8.517
9.355
10.219
11.094
11.967
12.825
13.656
14.448
15.191
15.875
16.492
17.034
17.493
17.863
18.139
18.315
18.389
18.357
18.217
17.968
17.609
17.142
16.567
15.885
15.1
14.214
13.229
12.15
10.981
9.723
8.383
6.964
5.47
3.907
2.278
0.59
-1.154
-2.947
-4.786
-6.667
-8.584
-10.533
-12.51
-14.512
-16.533
-18.572
-20.623
-22.684
-24.752
-26.824
-28.897
-30.97
-33.041
-35.109
-37.173
-39.231
-41.283
-43.328
-45.364
-47.393
-49.412
-51.421
-53.419
-55.406
-57.382
-59.345
-61.296
-63.233
-65.156
-67.064
-68.955
-70.829
-72.682
-74.514
-76.323
-78.105
-79.86
-81.583
-83.272
-84.925
-86.537
-88.106
-89.626
-91.094
-92.506
-93.856
-95.14
-96.354
-97.494
-98.555
-99.532
-100.423
-101.223
-101.928
-102.536
-103.042
-103.445
-103.739
-103.925
-103.999
-103.959
-103.805
-103.535
-103.149
-102.649
-102.035
-101.308
-100.47
-99.525
-98.475
-97.323
-96.075
-94.734
-93.306
-91.797
-90.213
-88.561
-86.849
-85.082
-83.269
-81.416
-79.53
-77.619
-75.688
-73.745
-71.794
-69.843
-67.898
-65.965
-64.049
-62.157
-60.293
-58.464
-56.675
-54.929
-53.231
-51.584
-49.992
-48.46
-46.989
-45.583
-44.244
-42.977
-41.784
-40.673
-39.646
-38.706
-37.857
-37.101
-36.443
-35.888
-35.437
-35.091
-34.853
-34.723
-34.705
-34.807
-35.03
-35.377
-35.847
-36.438
-37.151
-37.986
-38.938
-40
-41.165
-42.422
-43.776
-45.231
-46.787
-48.444
-50.199
-52.035
-53.941
-55.9
-57.878
-59.847
-61.772
-63.614
-65.347
-66.935
-68.352
-69.581
-70.583
-71.328
-71.775
-71.849
-71.513
-70.776
-69.65
-68.218
-66.544
-64.591
-62.49
-60.506
-58.849
-57.821
-57.537
-57.811
-58.753
-60.749
-63.781
-67.606
-71.783
-75.372
-77.957
-79.814
-80.645
-79.828
-77.321
-73.298
-68.554
-65.058
-64.25
-66.612
-73.038
-83.365
-95.708
-108.58
-120.628
-132.361
-145.86
-160.027
-168.855
-159.664
-120.508
-47.251
57.016
178.524
304.51
428.682
543.581
647.355
735.443
798.688
836.507
847.783
833.433
798.698
741.942
662.945
564.891
450.182
325.55
198.266
72.771
-46.227
-154.434
-248.745
-326.231
-385.119
-425.997
-450.372
-459.789
-456.345
-442.253
-419.978
-392.684
-363.115
-332.579
-301.977
-272.148
-243.967
-218.865
-197.51
-179.361
-163.858
-150.886
-140.355
-132.197
-125.763
-119.425
-112.249
-104.272
-95.669
-86.726
-77.644
-68.365
-59.302
-51.518
-45.636
-41.782
-39.857
-39.403
-40.043
-41.643
-43.859
-46.14
-48.058
-49.241
-49.487
-48.845
-47.354
-45.024
-41.908
-38.061
-33.557
-28.521
-23.062
-17.269
-11.232
-5.006
1.337
7.701
13.979
20.032
25.765
31.133
36.112
40.691
44.863
48.616
51.965
54.962
57.653
60.082
62.284
64.275
66.085
67.76
69.35
70.912
72.488
74.102
75.776
77.53
79.378
81.334
83.4
85.564
87.818
90.158
92.584
95.096
97.69
100.357
103.086
105.867
108.689
111.544
114.418
117.299
120.173
123.028
125.853
128.637
131.368
134.032
136.614
139.098
141.469
143.712
145.811
147.751
149.515
151.091
152.465
153.626
154.564
155.268
155.73
155.942
155.897
155.591
155.018
154.175
153.061
151.673
150.014
148.083
145.884
143.421
140.699
137.724
134.504
131.047
127.364
123.463
119.356
115.056
110.574
105.925
101.123
96.182
91.119
85.948
80.687
75.351
69.957
64.521
59.059
53.588
48.124
42.683
37.28
31.932
26.654
21.462
16.372
11.397
6.552
1.85
-2.696
-7.073
-11.272
-15.281
-19.091
-22.694
-26.082
-29.249
-32.189
-34.897
-37.37
-39.606
-41.603
-43.361
-44.882
-46.166
-47.218
-48.039
-48.636
-49.013
-49.176
-49.132
-48.889
-48.456
-47.842
-47.058
-46.114
-45.022
-43.794
-42.443
-40.982
-39.424
-37.782
-36.069
-34.299
-32.485
-30.64
-28.777
-26.908
-25.045
-23.201
-21.385
-19.609
-17.882
-16.213
-14.612
-13.085
-11.64
-10.283
-9.019
-7.855
-6.793
-5.838
-4.992
-4.257
-3.632
-3.119
-2.716
-2.42
-2.23
-2.141
-2.149
-2.25
-2.438
-2.707
-3.051
-3.463
-3.937
-4.466
-5.042
-5.659
-6.309
-6.985
-7.681
-8.391
-9.109
-9.829
-10.545
-11.253
-11.949
-12.628
-13.288
-13.925
-14.537
-15.122
-15.68
-16.21
-16.713
-17.191
-17.646
-18.081
-18.5
-18.907
-19.309
-19.709
-20.116
-20.534
-20.972
-21.436
-21.933
-22.471
-23.058
-23.7
-24.404
-25.177
-26.025
-26.953
-27.968
-29.073
-30.272
-31.568
-32.964
-34.46
-36.06
-37.761
-39.563
-41.465
-43.463
-45.554
-47.732
-49.99
-52.322
-54.718
-57.169
-59.664
-62.192
-64.738
-67.291
-69.835
-72.357
-74.841
-77.272
-79.635
-81.913
-84.091
-86.154
-88.086
-89.872
-91.497
-92.948
-94.211
-95.275
-96.128
-96.76
-97.161
-97.323
-97.239
-96.901
-96.307
-95.452
-94.333
-92.95
-91.305
-89.399
-87.239
-84.829
-82.177
-79.294
-76.19
-72.878
-69.373
-65.688
-61.841
-57.85
-53.733
-49.509
-45.199
-40.824
-36.408
-31.976
-27.551
-23.16
-18.827
-14.578
-10.438
-6.432
-2.582
1.092
4.573
7.84
10.877
13.665
16.187
18.429
20.38
22.029
23.369
24.394
25.104
25.508
25.613
25.427
24.952
24.183
23.119
21.767
20.135
18.237
16.09
13.716
11.149
8.442
5.645
2.809
-0.019
-2.807
-5.51
-8.077
-10.445
-12.537
-14.289
-15.651
-16.579
-17.041
-17.029
-16.556
-15.67
-14.444
-12.959
-11.32
-9.639
-8.038
-6.655
-5.601
-5.04
-5.222
-6.328
-8.442
-11.463
-15.071
-18.944
-22.828
-26.302
-28.785
-29.801
-29.075
-26.986
-24.511
-22.39
-21.402
-22.516
-26.596
-34.541
-45.653
-56.777
-64.578
-67.006
-65.271
-62.64
-58.576
-46.861
-15.645
46.393
141.55
262.446
393.117
517.215
624.882
711.361
776.86
821.638
843.355
839.577
808.333
749.683
666.3
562.871
444.856
317.833
187.495
58.588
-64.796
-178.674
-279.607
-365.251
-434.057
-485.353
-519.662
-537.494
-539.449
-527.219
-503.333
-470.584
-431.988
-390.553
-348.561
-308.465
-273.091
-243.989
-221.47
-205.254
-194.269
-187.041
-182.492
-179.074
-174.557
-167.702
-158.152
-145.961
-131.935
-117.038
-101.898
-87.469
-75.066
-65.399
-58.743
-55.093
-53.951
-54.792
-57.227
-60.716
-64.638
-68.553
-72.102
-75.023
-77.212
-78.586
-79.081
-78.701
-77.485
-75.466
-72.7
-69.257
-65.213
-60.671
-55.742
-50.52
-45.086
-39.539
-33.995
-28.579
-23.422
-18.613
-14.194
-10.196
-6.634
-3.507
-0.798
1.536
3.559
5.33
6.9
8.317
9.621
10.864
12.106
13.408
14.836
16.44
18.254
20.31
22.633
25.237
28.133
31.318
34.782
38.516
42.515
46.774
51.286
56.042
61.027
66.223
71.611
77.17
82.88
88.715
94.65
100.659
106.716
112.792
118.863
124.897
130.865
136.732
142.466
148.032
153.397
158.528
163.393
167.96
172.2
176.086
179.592
182.697
185.377
187.615
189.393
190.697
191.516
191.84
191.663
190.98
189.789
188.092
185.893
183.198
180.017
176.362
172.247
167.69
162.711
157.332
151.578
145.474
139.05
132.335
125.361
118.159
110.763
103.209
95.529
87.759
79.934
72.087
64.253
56.464
48.751
41.146
33.678
26.376
19.266
12.373
5.721
-0.669
-6.776
-12.582
-18.072
-23.231
-28.049
-32.516
-36.625
-40.373
-43.756
-46.776
-49.435
-51.738
-53.692
-55.307
-56.593
-57.563
-58.232
-58.616
-58.732
-58.598
-58.235
-57.662
-56.9
-55.97
-54.894
-53.693
-52.388
-51
-49.55
-48.059
-46.544
-45.027
-43.523
-42.051
-40.627
-39.265
-37.979
-36.781
-35.682
-34.691
-33.816
-33.061
-32.432
-31.931
-31.559
-31.316
-31.199
-31.205
-31.33
-31.567
-31.908
-32.346
-32.871
-33.472
-34.139
-34.86
-35.624
-36.418
-37.23
-38.049
-38.862
-39.658
-40.426
-41.154
-41.831
-42.449
-42.997
-43.467
-43.853
-44.147
-44.344
-44.44
-44.433
-44.321
-44.104
-43.782
-43.357
-42.834
-42.216
-41.51
-40.722
-39.86
-38.933
-37.952
-36.927
-35.87
-34.792
-33.707
-32.627
-31.564
-30.531
-29.54
-28.605
-27.735
-26.944
-26.241
-25.638
-25.143
-24.766
-24.514
-24.394
-24.412
-24.571
-24.875
-25.325
-25.921
-26.663
-27.548
-28.573
-29.733
-31.021
-32.429
-33.95
-35.572
-37.285
-39.075
-40.93
-42.834
-44.773
-46.731
-48.692
-50.641
-52.561
-54.437
-56.253
-57.992
-59.641
-61.184
-62.606
-63.895
-65.038
-66.022
-66.837
-67.474
-67.923
-68.179
-68.236
-68.089
-67.736
-67.175
-66.406
-65.431
-64.251
-62.872
-61.298
-59.537
-57.599
-55.493
-53.232
-50.828
-48.294
-45.648
-42.904
-40.079
-37.191
-34.257
-31.295
-28.325
-25.365
-22.434
-19.553
-16.742
-14.023
-11.418
-8.947
-6.633
-4.496
-2.553
-0.825
0.674
1.933
2.939
3.683
4.156
4.345
4.241
3.84
3.139
2.136
0.834
-0.767
-2.659
-4.821
-7.24
-9.9
-12.795
-15.929
-19.3
-22.894
-26.696
-30.685
-34.833
-39.113
-43.482
-47.875
-52.232
-56.494
-60.612
-64.559
-68.293
-71.759
-74.886
-77.585
-79.783
-81.436
-82.515
-82.993
-82.867
-82.158
-80.923
-79.262
-77.286
-75.105
-72.82
-70.545
-68.414
-66.559
-65.187
-64.568
-64.869
-66.123
-68.168
-70.61
-73.043
-75.111
-76.322
-76.08
-73.955
-69.798
-64.171
-58.299
-53.319
-50.193
-49.621
-52.023
-57.711
-66.457
-76.544
-85.03
-88.708
-84.24
-69.039
-41.115
1.823
61.175
136.373
225.219
324.055
428.052
532.698
633.223
723.592
798.095
851.744
880.429
882.114
857.242
807.799
736.589
646.643
538.231
410.798
267.706
117.405
-24.985
-143.131
-227.988
-280.715
-311.737
-333.13
-351.937
-368.072
-376.178
-372.499
-357.053
-332.935
-305.009
-275.655
-245.299
-214.469
-184.065
-155.895
-131.469
-111.291
-94.137
-79.1
-67.452
-59.342
-56.411
-59.799
-64.78
-68.695
-68.067
-58.426
-44.108
-28.749
-15.357
-9.054
-7.743
-8.781
-11.48
-13.67
-15.934
-19.261
-22.89
-26.338
-29.071
-30.561
-30.879
-30.256
-28.724
-26.311
-23.129
-19.294
-14.922
-10.139
-5.03
0.333
5.812
11.252
16.504
21.432
25.941
29.964
33.461
36.413
38.819
40.69
42.053
42.936
43.379
43.426
43.114
42.497
41.634
40.59
39.443
38.259
37.088
35.975
34.953
34.051
33.293
32.698
32.277
32.041
32.006
32.184
32.593
33.245
34.148
35.307
36.723
38.395
40.326
42.513
44.954
47.644
50.575
53.74
57.132
60.737
64.541
68.523
72.662
76.934
81.314
85.776
90.291
94.83
99.364
103.865
108.304
112.652
116.879
120.958
124.861
128.561
132.031
135.245
138.181
140.813
143.122
145.087
146.69
147.917
148.753
149.186
149.208
148.811
147.991
146.747
145.079
142.991
140.488
137.58
134.278
130.595
126.547
122.151
117.428
112.398
107.085
101.511
95.701
89.681
83.478
77.118
70.628
64.037
57.372
50.661
43.932
37.213
30.53
23.91
17.377
10.958
4.676
-1.447
-7.389
-13.132
-18.655
-23.945
-28.985
-33.764
-38.27
-42.497
-46.437
-50.086
-53.442
-56.504
-59.274
-61.755
-63.951
-65.868
-67.514
-68.896
-70.025
-70.91
-71.564
-71.997
-72.224
-72.257
-72.109
-71.794
-71.327
-70.721
-69.992
-69.152
-68.217
-67.2
-66.116
-64.978
-63.797
-62.588
-61.36
-60.124
-58.89
-57.667
-56.461
-55.28
-54.128
-53.012
-51.934
-50.898
-49.906
-48.959
-48.059
-47.206
-46.399
-45.639
-44.925
-44.255
-43.629
-43.046
-42.505
-42.003
-41.541
-41.116
-40.726
-40.371
-40.049
-39.756
-39.493
-39.256
-39.043
-38.854
-38.686
-38.538
-38.409
-38.299
-38.205
-38.129
-38.07
-38.029
-38.004
-37.999
-38.011
-38.044
-38.097
-38.172
-38.269
-38.389
-38.532
-38.698
-38.888
-39.101
-39.336
-39.592
-39.869
-40.166
-40.48
-40.812
-41.16
-41.522
-41.899
-42.289
-42.692
-43.106
-43.531
-43.967
-44.413
-44.868
-45.332
-45.804
-46.283
-46.769
-47.261
-47.758
-48.26
-48.764
-49.272
-49.781
-50.29
-50.8
-51.309
-51.818
-52.325
-52.83
-53.334
-53.835
-54.333
-54.828
-55.319
-55.805
-56.285
-56.757
-57.219
-57.667
-58.1
-58.514
-58.905
-59.268
-59.599
-59.893
-60.144
-60.347
-60.496
-60.586
-60.611
-60.566
-60.444
-60.239
-59.947
-59.562
-59.078
-58.489
-57.792
-56.98
-56.051
-55.001
-53.827
-52.525
-51.095
-49.535
-47.846
-46.029
-44.084
-42.017
-39.831
-37.533
-35.13
-32.63
-30.045
-27.386
-24.668
-21.908
-19.121
-16.325
-13.542
-10.79
-8.09
-5.464
-2.929
-0.505
1.789
3.935
5.91
7.697
9.273
10.619
11.718
12.553
13.108
13.373
13.343
13.014
12.385
11.45
10.198
8.619
6.71
4.466
1.891
-1.005
-4.201
-7.663
-11.34
-15.182
-19.135
-23.154
-27.2
-31.231
-35.2
-39.053
-42.72
-46.135
-49.234
-51.953
-54.237
-56.058
-57.431
-58.41
-59.098
-59.585
-59.935
-60.225
-60.551
-61.027
-61.778
-62.922
-64.542
-66.79
-69.941
-74.156
-79.402
-85.436
-91.721
-97.694
-102.9
-106.739
-108.452
-107.626
-104.372
-99.352
-93.842
-89.188
-86.571
-87.182
-92.144
-100.647
-109.492
-115.249
-115.177
-110.238
-104.418
-97.676
-83.124
-47.605
22.319
130.635
267.991
415.232
553.403
670.391
762.158
830.975
878.196
902.351
901.64
874.189
820.239
742.815
646.315
535.668
416.041
292.804
170.287
52.225
-57.466
-155.831
-240.796
-310.579
-364.638
-403.896
-429.135
-441.427
-442.534
-433.762
-416.767
-393.976
-367.276
-337.73
-306.631
-275.155
-244.634
-217.18
-194.072
-175.448
-161.329
-151.732
-146.464
-145.334
-147.252
-149.994
-152.078
-152.829
-151.835
-149.305
-145.247
-138.999
-132.234
-127.554
-125.067
-124.798
-122.306
-111.68
-96.583
-84.618
-86.583
-113.242
-157.208
-198.989
-220.356
-205.266
-157.221
-99.385
-49.743
-22.617
-20.823
-26.911
-30.625
-28.057
-17.875
-12.902
-17.513
-25.857
-33.532
-29.901
-12.749
8.749
27.863
37.245
35.264
28.517
21.229
16.159
14.451
13.857
13.246
12.949
12.921
12.892
13.972
16.955
20.308
24.145
25.099
17.853
6.608
-4.347
-8.084
6.469
34.207
65.224
90.676
97.475
88.421
74.756
63.488
63.441
74.34
88.48
102.317
112.924
119.687
125.42
130.991
136.191
141.192
145.67
149.593
153.348
157.041
160.599
164.029
167.357
170.56
173.637
176.584
179.361
181.968
184.458
186.875
189.208
191.41
193.391
195.031
196.255
197.021
197.304
197.101
196.396
195.16
193.375
191.024
188.083
184.529
180.309
175.335
169.581
163.075
155.893
148.173
140.02
131.505
122.697
113.654
104.438
95.124
85.766
76.398
67.073
57.856
48.838
40.147
31.864
24.026
16.636
9.648
3.036
-3.201
-9.076
-14.602
-19.786
-24.643
-29.165
-33.323
-37.109
-40.529
-43.603
-46.379
-48.881
-51.115
-53.079
-54.754
-56.132
-57.218
-58.008
-58.5
-58.698
-58.612
-58.262
-57.687
-56.912
-55.961
-54.85
-53.593
-52.205
-50.709
-49.126
-47.475
-45.776
-44.048
-42.308
-40.579
-38.877
-37.215
-35.603
-34.048
-32.554
-31.129
-29.78
-28.509
-27.322
-26.219
-25.205
-24.281
-23.448
-22.705
-22.05
-21.479
-20.989
-20.574
-20.229
-19.948
-19.725
-19.554
-19.429
-19.343
-19.292
-19.27
-19.271
-19.292
-19.329
-19.379
-19.438
-19.504
-19.576
-19.651
-19.729
-19.808
-19.889
-19.972
-20.057
-20.146
-20.238
-20.337
-20.442
-20.556
-20.682
-20.82
-20.975
-21.149
-21.345
-21.566
-21.815
-22.096
-22.411
-22.765
-23.158
-23.593
-24.072
-24.596
-25.166
-25.783
-26.445
-27.152
-27.905
-28.7
-29.538
-30.416
-31.332
-32.284
-33.27
-34.287
-35.334
-36.406
-37.502
-38.618
-39.751
-40.898
-42.055
-43.219
-44.386
-45.553
-46.714
-47.867
-49.008
-50.133
-51.237
-52.318
-53.372
-54.395
-55.384
-56.336
-57.248
-58.118
-58.942
-59.718
-60.445
-61.118
-61.735
-62.295
-62.792
-63.226
-63.591
-63.886
-64.107
-64.249
-64.311
-64.288
-64.178
-63.978
-63.684
-63.295
-62.809
-62.222
-61.532
-60.738
-59.838
-58.83
-57.713
-56.487
-55.151
-53.703
-52.146
-50.478
-48.699
-46.812
-44.817
-42.716
-40.511
-38.206
-35.804
-33.311
-30.733
-28.075
-25.346
-22.554
-19.709
-16.819
-13.896
-10.95
-7.994
-5.039
-2.097
0.818
3.692
6.511
9.257
11.915
14.468
16.898
19.187
21.318
23.273
25.037
26.596
27.938
29.049
29.918
30.53
30.873
30.938
30.716
30.202
29.39
28.279
26.871
25.175
23.2
20.956
18.446
15.665
12.612
9.291
5.709
1.881
-2.175
-6.437
-10.873
-15.433
-20.066
-24.718
-29.342
-33.901
-38.352
-42.644
-46.712
-50.468
-53.837
-56.751
-59.162
-61.034
-62.35
-63.113
-63.359
-63.155
-62.588
-61.766
-60.798
-59.807
-58.928
-58.267
-58.003
-58.395
-59.622
-61.793
-64.84
-68.4
-72.113
-75.725
-78.798
-80.765
-81.229
-79.899
-77.051
-73.841
-71.275
-69.979
-70.856
-74.75
-81.921
-92.496
-104.614
-113.521
-116.227
-111.242
-98.272
-80.189
-55.543
-17.605
40.743
126.215
239.046
369.555
502.672
624.229
723.121
794.562
841.92
867.615
872.863
859.051
822.605
762.003
679.665
578.31
463.661
342.155
218.697
97.977
-15.549
-117.967
-206.039
-277.343
-330.737
-366.676
-386.393
-391.285
-383.306
-364.861
-338.604
-307.509
-274.091
-239.848
-205.914
-173.56
-144.181
-118.91
-98.097
-81.302
-67.967
-57.904
-50.918
-46.471
-43.358
-40.134
-36.102
-31.246
-25.796
-19.933
-13.719
-7.313
-1.386
3.065
5.516
5.921
4.536
1.782
-2.072
-6.821
-12.058
-17.176
-21.663
-25.216
-27.734
-29.29
-29.947
-29.709
-28.607
-26.728
-24.201
-21.161
-17.731
-13.989
-9.985
-5.793
-1.506
2.751
6.828
10.623
14.088
17.195
19.935
22.299
24.275
25.882
27.173
28.201
29.018
29.663
30.161
30.549
30.877
31.206
31.6
32.108
32.762
33.589
34.612
35.853
37.331
39.054
41.014
43.209
45.64
48.309
51.222
54.376
57.765
61.379
65.209
69.245
73.477
77.892
82.474
87.208
92.076
97.062
102.148
107.315
112.539
117.794
123.054
128.292
133.48
138.589
143.59
148.454
153.152
157.656
161.94
165.977
169.741
173.208
176.355
179.159
181.601
183.662
185.324
186.573
187.397
187.784
187.726
187.215
186.247
184.821
182.936
180.596
177.806
174.574
170.91
166.827
162.341
157.469
152.229
146.644
140.736
134.53
128.052
121.328
114.388
107.26
99.973
92.558
85.046
77.466
69.85
62.227
54.628
47.081
39.617
32.262
25.044
17.989
11.121
4.465
-1.96
-8.131
-14.031
-19.645
-24.957
-29.955
-34.631
-38.976
-42.985
-46.655
-49.984
-52.975
-55.63
-57.955
-59.956
-61.642
-63.025
-64.115
-64.927
-65.474
-65.773
-65.841
-65.695
-65.353
-64.834
-64.157
-63.342
-62.408
-61.376
-60.264
-59.093
-57.881
-56.647
-55.408
-54.181
-52.983
-51.827
-50.728
-49.699
-48.75
-47.891
-47.132
-46.479
-45.938
-45.513
-45.209
-45.025
-44.964
-45.024
-45.203
-45.498
-45.904
-46.418
-47.033
-47.742
-48.538
-49.412
-50.357
-51.364
-52.421
-53.521
-54.653
-55.806
-56.971
-58.138
-59.298
-60.44
-61.557
-62.638
-63.677
-64.666
-65.597
-66.464
-67.262
-67.985
-68.628
-69.189
-69.665
-70.053
-70.351
-70.56
-70.68
-70.71
-70.654
-70.512
-70.287
-69.982
-69.602
-69.151
-68.633
-68.054
-67.419
-66.735
-66.008
-65.243
-64.448
-63.628
-62.79
-61.941
-61.085
-60.23
-59.382
-58.545
-57.725
-56.928
-56.159
-55.422
-54.722
-54.062
-53.447
-52.878
-52.36
-51.894
-51.483
-51.128
-50.831
-50.591
-50.411
-50.289
-50.226
-50.219
-50.266
-50.367
-50.518
-50.717
-50.96
-51.244
-51.565
-51.921
-52.306
-52.718
-53.153
-53.606
-54.074
-54.552
-55.037
-55.524
-56.01
-56.491
-56.963
-57.423
-57.868
-58.294
-58.698
-59.077
-59.428
-59.747
-60.033
-60.283
-60.494
-60.665
-60.794
-60.881
-60.924
-60.925
-60.883
-60.8
-60.675
-60.511
-60.309
-60.07
-59.797
-59.49
-59.152
-58.786
-58.393
-57.977
-57.54
-57.084
-56.613
-56.128
-55.633
-55.13
-54.621
-54.109
-53.598
-53.089
-52.587
-52.096
-51.62
-51.163
-50.729
-50.321
-49.943
-49.597
-49.287
-49.016
-48.786
-48.6
-48.462
-48.377
-48.348
-48.382
-48.486
-48.663
-48.921
-49.267
-49.709
-50.257
-50.92
-51.706
-52.621
-53.672
-54.865
-56.203
-57.69
-59.323
-61.096
-63.004
-65.044
-67.213
-69.507
-71.917
-74.424
-77.007
-79.649
-82.338
-85.07
-87.841
-90.636
-93.447
-96.272
-99.113
-101.97
-104.833
-107.659
-110.39
-112.979
-115.385
-117.601
-119.636
-121.47
-123.061
-124.341
-125.232
-125.687
-125.679
-125.144
-123.976
-122.156
-119.789
-117.166
-114.757
-112.985
-112.119
-112.282
-113.566
-115.868
-118.803
-121.758
-123.676
-123.378
-120.071
-113.469
-103.607
-91.089
-77.067
-62.803
-50.245
-41.897
-39.771
-45.228
-58.97
-80.384
-107.895
-139.76
-173.147
-203.98
-228.127
-241.34
-239.664
-220.788
-183.349
-126.179
-49.572
44.464
152.824
270.598
391.84
511.254
623.271
721.695
801.091
856.8
885.214
885.257
857.523
803.115
724.617
626.043
512.011
388.22
260.735
134.399
13.435
-98.262
-197.677
-282.395
-350.732
-402.485
-438.475
-459.672
-467.229
-462.293
-446.495
-422.242
-392.068
-358.158
-322.236
-285.708
-250.287
-218.165
-190.627
-167.855
-149.533
-134.878
-123.229
-114.171
-106.619
-98.779
-89.568
-78.698
-66.338
-53.234
-40.003
-26.969
-14.86
-4.776
2.6
7.004
8.514
7.635
4.846
0.493
-4.935
-10.849
-16.766
-22.289
-27.133
-31.173
-34.329
-36.537
-37.792
-38.132
-37.594
-36.241
-34.157
-31.422
-28.138
-24.41
-20.324
-15.962
-11.428
-6.845
-2.339
1.959
5.966
9.642
12.957
15.896
18.466
20.689
22.609
24.29
25.789
27.153
28.423
29.638
30.844
32.097
33.454
34.975
36.705
38.674
40.907
43.424
46.236
49.346
52.747
56.424
60.363
64.555
68.992
73.663
78.557
83.655
88.938
94.386
99.977
105.687
111.494
117.371
123.295
129.239
135.179
141.091
146.949
152.726
158.393
163.922
169.283
174.45
179.394
184.087
188.505
192.623
196.419
199.872
202.965
205.679
208.001
209.917
211.417
212.492
213.137
213.347
213.119
212.455
211.357
209.828
207.877
205.512
202.743
199.584
196.05
192.156
187.921
183.363
178.504
173.364
167.966
162.332
156.487
150.455
144.261
137.93
131.487
124.956
118.363
111.73
105.082
98.441
91.828
85.265
78.77
72.364
66.063
59.885
53.845
47.957
42.234
36.687
31.326
26.16
21.196
16.439
11.894
7.565
3.453
-0.44
-4.115
-7.572
-10.814
-13.843
-16.664
-19.281
-21.7
-23.927
-25.969
-27.833
-29.527
-31.059
-32.438
-33.673
-34.771
-35.743
-36.597
-37.343
-37.99
-38.546
-39.022
-39.425
-39.764
-40.046
-40.28
-40.472
-40.629
-40.757
-40.861
-40.948
-41.022
-41.088
-41.15
-41.214
-41.283
-41.359
-41.447
-41.55
-41.668
-41.805
-41.962
-42.14
-42.339
-42.561
-42.806
-43.073
-43.362
-43.67
-43.998
-44.341
-44.699
-45.068
-45.445
-45.827
-46.21
-46.591
-46.968
-47.336
-47.694
-48.038
-48.364
-48.671
-48.955
-49.212
-49.44
-49.636
-49.798
-49.921
-50.004
-50.043
-50.038
-49.985
-49.883
-49.73
-49.524
-49.265
-48.952
-48.583
-48.161
-47.686
-47.158
-46.581
-45.958
-45.291
-44.584
-43.842
-43.069
-42.268
-41.446
-40.605
-39.752
-38.89
-38.025
-37.161
-36.303
-35.457
-34.626
-33.816
-33.032
-32.277
-31.557
-30.876
-30.237
-29.645
-29.104
-28.617
-28.187
-27.817
-27.51
-27.268
-27.093
-26.985
-26.943
-26.968
-27.057
-27.208
-27.419
-27.685
-28.004
-28.369
-28.779
-29.226
-29.706
-30.214
-30.743
-31.288
-31.842
-32.399
-32.952
-33.494
-34.02
-34.521
-34.992
-35.426
-35.816
-36.155
-36.437
-36.653
-36.798
-36.864
-36.844
-36.732
-36.522
-36.208
-35.786
-35.253
-34.604
-33.838
-32.953
-31.948
-30.822
-29.575
-28.209
-26.724
-25.123
-23.41
-21.588
-19.662
-17.638
-15.521
-13.318
-11.037
-8.687
-6.276
-3.813
-1.308
1.226
3.779
6.337
8.887
11.414
13.899
16.325
18.674
20.927
23.064
25.068
26.918
28.599
30.095
31.393
32.48
33.343
33.968
34.343
34.456
34.298
33.862
33.142
32.133
30.835
29.256
27.404
25.286
22.902
20.249
17.322
14.127
10.674
6.97
3.028
-1.115
-5.416
-9.817
-14.253
-18.682
-23.07
-27.363
-31.504
-35.482
-39.269
-42.815
-46.084
-48.991
-51.43
-53.396
-54.948
-55.939
-56.229
-56.016
-55.361
-54.32
-53.404
-51.633
-48.082
-44.391
-41.132
-41.243
-48.279
-58.708
-70.087
-78.616
-78.874
-74.828
-69.848
-65.958
-66.76
-68.847
-69.099
-67.366
-62.926
-57.998
-54.876
-54.117
-56.626
-62.558
-71.033
-80.481
-88.335
-91.287
-85.976
-69.457
-38.754
7.357
67.469
139.853
222.799
316.671
423.495
540.62
658.481
760.964
831.098
860.166
850.292
812.83
759.514
695.557
620.87
531.6
427.146
313.488
196.524
81.081
-30.128
-138.978
-242.039
-330.54
-397.151
-433.347
-439.23
-424.561
-398.098
-369.815
-344.763
-320.261
-294.85
-267.47
-238.514
-211.963
-190.09
-172.839
-159.496
-148.447
-138.73
-130.309
-122.783
-115.056
-106.099
-95.579
-83.749
-71.284
-58.84
-46.721
-35.329
-25.451
-17.766
-12.607
-10.007
-9.647
-11.09
-13.996
-17.974
-22.548
-27.303
-31.85
-35.87
-39.179
-41.652
-43.275
-44.058
-43.934
-43.028
-41.717
-40.113
-38.172
-36.028
-33.413
-31.119
-31.31
-33.543
-36.001
-35.579
-26.431
-9.169
10.201
25.684
28.793
19.178
4.81
-8.148
-12.961
-8.553
-0.841
6.606
11.304
12.585
12.928
13.452
14.133
15.108
16.05
16.906
18.032
19.544
21.4
23.619
26.212
29.157
32.43
35.996
39.793
43.798
48.03
52.481
57.133
61.969
66.967
72.107
77.376
82.751
88.206
93.714
99.251
104.794
110.317
115.794
121.198
126.498
131.667
136.675
141.496
146.1
150.461
154.552
158.35
161.834
164.981
167.773
170.193
172.225
173.857
175.078
175.879
176.253
176.196
175.707
174.785
173.433
171.656
169.461
166.858
163.859
160.478
156.73
152.633
148.207
143.472
138.45
133.165
127.64
121.901
115.974
109.886
103.664
97.336
90.928
84.468
77.983
71.499
65.04
58.632
52.298
46.059
39.939
33.956
28.128
22.474
17.009
11.747
6.699
1.877
-2.712
-7.06
-11.162
-15.017
-18.622
-21.977
-25.085
-27.949
-30.574
-32.967
-35.134
-37.084
-38.829
-40.379
-41.745
-42.941
-43.979
-44.874
-45.638
-46.287
-46.833
-47.291
-47.673
-47.993
-48.263
-48.496
-48.703
-48.895
-49.082
-49.272
-49.475
-49.698
-49.945
-50.224
-50.536
-50.886
-51.276
-51.706
-52.176
-52.686
-53.234
-53.817
-54.433
-55.078
-55.746
-56.433
-57.132
-57.838
-58.544
-59.244
-59.93
-60.597
-61.237
-61.846
-62.417
-62.944
-63.423
-63.848
-64.215
-64.52
-64.76
-64.932
-65.034
-65.065
-65.024
-64.912
-64.728
-64.476
-64.156
-63.772
-63.326
-62.823
-62.265
-61.657
-61.004
-60.312
-59.585
-58.83
-58.052
-57.259
-56.456
-55.649
-54.845
-54.049
-53.267
-52.504
-51.766
-51.057
-50.382
-49.746
-49.152
-48.604
-48.105
-47.659
-47.267
-46.931
-46.652
-46.431
-46.269
-46.164
-46.116
-46.124
-46.187
-46.304
-46.472
-46.689
-46.952
-47.26
-47.608
-47.994
-48.413
-48.863
-49.339
-49.837
-50.353
-50.884
-51.425
-51.974
-52.525
-53.075
-53.62
-54.156
-54.678
-55.183
-55.666
-56.124
-56.553
-56.949
-57.308
-57.627
-57.903
-58.133
-58.315
-58.441
-58.512
-58.527
-58.488
-58.394
-58.242
-58.026
-57.746
-57.411
-57.015
-56.537
-55.961
-55.269
-54.461
-53.57
-52.598
-51.512
-50.341
-49.156
-48.011
-46.97
-46.038
-45.126
-44.218
-43.415
-42.609
-41.458
-39.911
-38.07
-35.893
-33.788
-30.975
-25.31
-17.431
-9.255
-4.199
-8.436
-21.149
-36.281
-47.634
-46.43
-32.741
-14.769
1.183
8.122
5.305
-1.12
-7.541
-11.312
-11.852
-11.703
-11.907
-12.416
-13.308
-14.2
-15.033
-16.148
-17.634
-19.43
-21.538
-23.964
-26.688
-29.7
-32.97
-36.438
-40.086
-43.934
-47.973
-52.182
-56.528
-60.954
-65.41
-69.846
-74.208
-78.454
-82.537
-86.407
-90.011
-93.276
-96.135
-98.53
-100.401
-101.705
-102.43
-102.581
-102.213
-101.424
-100.298
-98.942
-97.484
-96.023
-94.698
-93.644
-92.974
-92.883
-93.624
-95.365
-98.186
-102.007
-106.512
-111.314
-115.966
-119.805
-122.099
-122.304
-120.197
-116.061
-110.635
-105.014
-100.529
-98.517
-100.298
-105.533
-112.206
-118.381
-121.973
-123.479
-125.078
-124.783
-117.066
-92.073
-37.309
52.385
174.21
319.321
470.78
612.134
731.917
820.216
875.918
904.441
908.874
893.937
860.516
803.836
723.529
621.717
502.727
375.206
246.345
120.929
3.605
-102.038
-193.416
-268.149
-325.086
-365.189
-390
-401.025
-400.248
-389.437
-370.428
-345.831
-317.932
-287.839
-256.567
-225.174
-194.864
-167.555
-144.44
-125.481
-110.452
-99.315
-91.847
-87.726
-85.947
-84.543
-82.275
-78.834
-74.181
-68.541
-62.145
-55.125
-48.13
-42.391
-38.666
-37.16
-37.786
-40.093
-43.683
-48.296
-53.474
-58.545
-62.978
-66.438
-68.771
-70.046
-70.342
-69.671
-68.085
-65.677
-62.547
-58.818
-54.604
-49.983
-45.031
-39.845
-34.525
-29.203
-24.027
-19.1
-14.485
-10.216
-6.297
-2.732
0.469
3.323
5.87
8.157
10.229
12.129
13.884
15.532
17.126
18.723
20.391
22.179
24.118
26.236
28.55
31.079
33.837
36.83
40.05
43.491
47.151
51.03
55.13
59.446
63.967
68.681
73.573
78.626
83.827
89.158
94.597
100.125
105.72
111.362
117.03
122.701
128.348
133.946
139.464
144.876
150.151
155.262
160.178
164.871
169.314
173.482
177.351
180.898
184.101
186.941
189.399
191.459
193.107
194.329
195.116
195.459
195.353
194.795
193.785
192.324
190.417
188.071
185.295
182.101
178.503
174.516
170.157
165.448
160.408
155.062
149.433
143.547
137.43
131.111
124.618
117.979
111.222
104.377
97.471
90.532
83.588
76.665
69.79
62.988
56.283
49.698
43.256
36.977
30.88
24.982
19.298
13.844
8.63
3.666
-1.038
-5.478
-9.647
-13.544
-17.168
-20.518
-23.599
-26.414
-28.969
-31.272
-33.331
-35.155
-36.756
-38.146
-39.336
-40.34
-41.17
-41.842
-42.368
-42.763
-43.041
-43.216
-43.303
-43.314
-43.264
-43.164
-43.028
-42.866
-42.69
-42.509
-42.332
-42.167
-42.022
-41.902
-41.813
-41.759
-41.743
-41.768
-41.834
-41.943
-42.093
-42.283
-42.511
-42.774
-43.07
-43.393
-43.741
-44.109
-44.493
-44.887
-45.286
-45.687
-46.085
-46.475
-46.852
-47.212
-47.551
-47.865
-48.151
-48.405
-48.626
-48.81
-48.956
-49.062
-49.128
-49.154
-49.138
-49.083
-48.989
-48.857
-48.691
-48.492
-48.263
-48.007
-47.729
-47.432
-47.12
-46.797
-46.468
-46.136
-45.807
-45.484
-45.171
-44.872
-44.59
-44.33
-44.095
-43.887
-43.71
-43.568
-43.462
-43.395
-43.371
-43.39
-43.456
-43.569
-43.731
-43.943
-44.206
-44.52
-44.885
-45.301
-45.767
-46.281
-46.843
-47.452
-48.104
-48.797
-49.53
-50.298
-51.099
-51.93
-52.786
-53.666
-54.565
-55.481
-56.408
-57.344
-58.285
-59.225
-60.162
-61.089
-62.001
-62.894
-63.76
-64.594
-65.39
-66.142
-66.844
-67.49
-68.073
-68.589
-69.03
-69.393
-69.672
-69.861
-69.957
-69.954
-69.85
-69.64
-69.322
-68.893
-68.351
-67.695
-66.924
-66.035
-65.03
-63.907
-62.668
-61.315
-59.849
-58.273
-56.59
-54.806
-52.926
-50.957
-48.906
-46.784
-44.6
-42.365
-40.091
-37.79
-35.477
-33.163
-30.863
-28.588
-26.351
-24.17
-22.062
-20.049
-18.15
-16.385
-14.775
-13.341
-12.101
-11.073
-10.268
-9.694
-9.357
-9.268
-9.441
-9.891
-10.626
-11.65
-12.965
-14.564
-16.443
-18.595
-20.997
-23.627
-26.477
-29.529
-32.767
-36.198
-39.815
-43.616
-47.61
-51.77
-56.041
-60.423
-64.969
-69.718
-74.687
-79.828
-84.995
-90.099
-95.173
-100.094
-104.426
-107.911
-110.556
-112.311
-113.66
-114.306
-112.333
-108.002
-103.099
-100.551
-106.039
-119.309
-134.081
-143.781
-139.896
-121.985
-98.639
-76.988
-64.296
-62.248
-65.522
-71.345
-77.614
-83.063
-88.867
-94.474
-98.861
-102.165
-104.285
-105.571
-107.16
-109.882
-115.11
-123.36
-132.549
-141.212
-147.942
-151.794
-154.438
-152.037
-135.532
-96.395
-25.413
76.756
198.921
329.673
456.238
571.208
673.678
760.535
828.736
874.889
894.331
885.996
851.294
792.302
712.977
617.913
511.393
398.261
283.325
170.468
63.343
-34.888
-122.134
-196.991
-258.564
-306.689
-341.88
-365.164
-378.241
-382.811
-380.371
-372.152
-359.01
-342.042
-322.176
-299.716
-274.672
-247.267
-217.857
-187.457
-157.74
-129.581
-103.567
-80.565
-61.211
-45.87
-34.691
-26.898
-20.928
-15.926
-11.463
-7.093
-2.674
1.928
6.832
11.559
15.149
17.108
17.319
15.816
12.914
8.849
3.781
-1.869
-7.498
-12.673
-17.109
-20.641
-23.289
-25.058
-25.915
-25.92
-25.168
-23.747
-21.762
-19.293
-16.378
-13.077
-9.465
-5.619
-1.641
2.375
6.338
10.152
13.751
17.096
20.165
22.967
25.517
27.838
29.965
31.943
33.814
35.616
37.385
39.149
40.953
42.839
44.857
47.057
49.477
52.143
55.072
58.273
61.746
65.492
69.499
73.749
78.224
82.909
87.79
92.853
98.083
103.455
108.947
114.532
120.184
125.877
131.585
137.281
142.938
148.529
154.03
159.415
164.661
169.738
174.619
179.276
183.683
187.812
191.638
195.135
198.281
201.053
203.433
205.404
206.949
208.054
208.71
208.905
208.634
207.892
206.677
204.989
202.833
200.213
197.137
193.615
189.661
185.288
180.514
175.356
169.836
163.976
157.798
151.328
144.592
137.618
130.433
123.067
115.549
107.91
100.179
92.387
84.565
76.741
68.946
61.208
53.555
46.013
38.61
31.369
24.314
17.466
10.845
4.47
-1.643
-7.482
-13.032
-18.284
-23.231
-27.865
-32.183
-36.182
-39.863
-43.227
-46.277
-49.019
-51.459
-53.607
-55.472
-57.064
-58.397
-59.484
-60.339
-60.977
-61.414
-61.665
-61.747
-61.678
-61.474
-61.153
-60.731
-60.225
-59.651
-59.026
-58.364
-57.679
-56.985
-56.293
-55.615
-54.961
-54.339
-53.758
-53.224
-52.743
-52.318
-51.953
-51.65
-51.409
-51.231
-51.115
-51.057
-51.057
-51.109
-51.211
-51.357
-51.543
-51.765
-52.016
-52.291
-52.584
-52.889
-53.201
-53.514
-53.822
-54.118
-54.399
-54.66
-54.895
-55.102
-55.278
-55.419
-55.524
-55.591
-55.62
-55.611
-55.564
-55.48
-55.36
-55.207
-55.023
-54.811
-54.576
-54.32
-54.049
-53.766
-53.475
-53.182
-52.889
-52.602
-52.323
-52.057
-51.807
-51.576
-51.37
-51.189
-51.038
-50.919
-50.835
-50.787
-50.778
-50.808
-50.878
-50.989
-51.139
-51.33
-51.559
-51.825
-52.127
-52.463
-52.83
-53.226
-53.647
-54.092
-54.555
-55.033
-55.522
-56.018
-56.518
-57.019
-57.515
-58.005
-58.484
-58.951
-59.401
-59.832
-60.24
-60.622
-60.974
-61.294
-61.578
-61.822
-62.024
-62.18
-62.288
-62.346
-62.351
-62.3
-62.192
-62.025
-61.796
-61.504
-61.147
-60.724
-60.233
-59.673
-59.043
-58.343
-57.572
-56.729
-55.813
-54.826
-53.764
-52.63
-51.421
-50.138
-48.781
-47.353
-45.853
-44.285
-42.651
-40.954
-39.197
-37.386
-35.526
-33.623
-31.684
-29.716
-27.725
-25.723
-23.718
-21.72
-19.736
-17.777
-15.855
-13.983
-12.179
-10.459
-8.843
-7.346
-5.986
-4.783
-3.752
-2.905
-2.25
-1.795
-1.548
-1.523
-1.733
-2.193
-2.913
-3.895
-5.138
-6.635
-8.373
-10.338
-12.513
-14.881
-17.435
-20.182
-23.13
-26.294
-29.678
-33.273
-37.059
-40.995
-45.045
-49.162
-53.32
-57.514
-61.72
-65.906
-70.019
-73.985
-77.728
-81.194
-84.28
-86.833
-88.8
-90.201
-91.204
-92.176
-93.291
-94.497
-95.747
-96.963
-97.996
-98.751
-98.811
-97.369
-94.231
-89.839
-84.818
-80.038
-76.073
-72.977
-71.188
-71.61
-74.324
-78.654
-83.623
-88.026
-91.525
-94.708
-98.101
-102.045
-107.154
-114.396
-123.424
-132.212
-138.355
-139.639
-137.809
-137.086
-137.555
-133.686
-110.77
-52.166
48.889
188.977
348.94
503.698
636.414
735.435
801.874
844.697
867.678
873.875
861.841
825.648
763.973
678.489
573.261
455.221
330.673
204.884
82.394
-32.795
-136.939
-227.312
-301.852
-359.149
-399.573
-424.575
-435.762
-435.387
-425.594
-407.759
-383.733
-355.771
-325.116
-292.354
-258.074
-222.651
-187.011
-153.109
-122.408
-95.373
-72.56
-54.529
-41.555
-33.77
-30.533
-30.016
-30.41
-30.765
-30.449
-29.103
-26.602
-22.832
-18.085
-13.36
-9.743
-7.762
-7.545
-8.902
-11.475
-14.991
-19.088
-23.166
-26.599
-29.001
-30.226
-30.323
-29.438
-27.661
-25.066
-21.773
-17.938
-13.708
-9.201
-4.5
0.329
5.191
9.951
14.459
18.609
22.334
25.608
28.435
30.82
32.774
34.334
35.547
36.463
37.135
37.603
37.906
38.091
38.217
38.349
38.562
38.917
39.456
40.216
41.223
42.498
44.06
45.917
48.066
50.508
53.247
56.285
59.629
63.278
67.225
71.461
75.973
80.746
85.767
91.017
96.477
102.124
107.936
113.889
119.96
126.121
132.342
138.589
144.829
151.026
157.144
163.147
168.996
174.656
180.091
185.264
190.143
194.694
198.887
202.692
206.08
209.027
211.508
213.502
214.99
215.957
216.389
216.275
215.609
214.387
212.606
210.27
207.383
203.956
199.999
195.528
190.56
185.115
179.217
172.892
166.166
159.071
151.636
143.896
135.886
127.639
119.194
110.586
101.853
93.031
84.157
75.268
66.399
57.584
48.857
40.252
31.798
23.525
15.462
7.633
0.062
-7.228
-14.219
-20.893
-27.237
-33.237
-38.884
-44.172
-49.097
-53.655
-57.848
-61.678
-65.151
-68.273
-71.054
-73.504
-75.637
-77.464
-78.999
-80.259
-81.266
-82.039
-82.598
-82.963
-83.147
-83.171
-83.065
-82.843
-82.502
-82.046
-81.474
-80.801
-80.073
-79.309
-78.491
-77.653
-76.875
-76.221
-75.758
-75.502
-75.371
-75.343
-75.514
-75.795
-75.848
-75.596
-75.14
-74.436
-73.839
-72.692
-68.879
-62.809
-56.434
-52.902
-58.213
-72.106
-88.524
-101.468
-102.419
-90.675
-74.316
-59.599
-53.229
-56.502
-63.377
-70.109
-74.186
-74.791
-74.38
-74.096
-73.849
-73.73
-73.371
-72.673
-71.97
-71.369
-70.812
-70.312
-69.885
-69.523
-69.213
-68.928
-68.615
-68.257
-67.885
-67.509
-67.129
-66.748
-66.367
-65.987
-65.619
-65.266
-64.924
-64.592
-64.271
-63.958
-63.655
-63.361
-63.075
-62.796
-62.522
-62.251
-61.984
-61.717
-61.449
-61.18
-60.907
-60.628
-60.343
-60.051
-59.749
-59.437
-59.115
-58.779
-58.431
-58.068
-57.689
-57.293
-56.878
-56.443
-55.986
-55.507
-55.003
-54.475
-53.92
-53.34
-52.732
-52.096
-51.432
-50.739
-50.016
-49.262
-48.476
-47.657
-46.804
-45.915
-44.989
-44.024
-43.02
-41.974
-40.884
-39.748
-38.565
-37.331
-36.045
-34.704
-33.307
-31.852
-30.337
-28.763
-27.129
-25.435
-23.682
-21.87
-20.003
-18.08
-16.107
-14.084
-12.016
-9.908
-7.765
-5.593
-3.399
-1.189
1.027
3.238
5.434
7.603
9.731
11.805
13.812
15.736
17.564
19.283
20.882
22.348
23.669
24.834
25.828
26.64
27.255
27.665
27.859
27.83
27.572
27.087
26.378
25.448
24.298
22.92
21.31
19.465
17.384
15.072
12.54
9.81
6.914
3.901
0.82
-2.279
-5.352
-8.363
-11.277
-14.056
-16.654
-19.01
-21.065
-22.764
-24.06
-24.914
-25.315
-25.294
-24.915
-24.288
-23.514
-22.677
-21.867
-21.177
-20.697
-20.524
-20.777
-21.558
-23.037
-25.474
-28.979
-33.527
-38.947
-44.762
-50.385
-55.312
-58.906
-60.39
-59.463
-56.162
-50.77
-44.591
-39.251
-35.879
-35.706
-38.62
-42.382
-45.082
-45.681
-45.945
-49.634
-57.146
-63.37
-53.723
-11.587
71.011
192.825
335.834
475.439
595.478
684.76
744.838
785.294
809.762
820.532
815.663
788.579
737.016
661.621
565.543
455.15
336.589
215.391
96.305
-16.627
-119.317
-208.575
-282.069
-338.151
-377.099
-400.422
-409.617
-407.006
-395.249
-376.34
-352.644
-326.772
-300.116
-273.578
-248.273
-224.48
-202.302
-182.386
-164.666
-148.5
-133.786
-120.225
-107.114
-94.395
-82.038
-69.616
-57.253
-45.392
-34.224
-24.255
-16.209
-10.296
-6.639
-5.454
-6.542
-9.567
-14.235
-19.991
-26.204
-32.479
-38.436
-43.686
-48.044
-51.361
-53.525
-54.582
-54.593
-53.593
-51.656
-48.865
-45.307
-41.12
-36.444
-31.396
-26.108
-20.707
-15.333
-10.157
-5.303
-0.848
3.16
6.708
9.788
12.392
14.541
16.283
17.67
18.758
19.597
20.224
20.691
21.056
21.382
21.741
22.189
22.759
23.484
24.386
25.485
26.8
28.336
30.087
32.051
34.227
36.618
39.23
42.059
45.099
48.342
51.778
55.398
59.192
63.149
67.255
71.496
75.857
80.324
84.882
89.513
94.196
98.907
103.623
108.318
112.967
117.543
122.02
126.37
130.567
134.587
138.404
141.995
145.336
148.404
151.178
153.639
155.768
157.549
158.965
160.005
160.656
160.909
160.757
160.195
159.218
157.826
156.02
153.803
151.181
148.161
144.754
140.971
136.826
132.336
127.519
122.392
116.978
111.298
105.376
99.237
92.905
86.407
79.77
73.02
66.185
59.292
52.369
45.442
38.538
31.683
24.903
18.222
11.663
5.25
-0.996
-7.054
-12.906
-18.534
-23.922
-29.056
-33.923
-38.513
-42.816
-46.825
-50.536
-53.944
-57.047
-59.844
-62.338
-64.53
-66.426
-68.031
-69.353
-70.401
-71.184
-71.713
-72.001
-72.061
-71.906
-71.551
-71.011
-70.3
-69.435
-68.432
-67.307
-66.076
-64.755
-63.361
-61.909
-60.415
-58.893
-57.358
-55.823
-54.302
-52.807
-51.35
-49.941
-48.591
-47.309
-46.105
-44.985
-43.956
-43.026
-42.197
-41.476
-40.865
-40.367
-39.983
-39.715
-39.562
-39.524
-39.6
-39.786
-40.081
-40.481
-40.98
-41.574
-42.258
-43.026
-43.87
-44.785
-45.763
-46.797
-47.879
-49.001
-50.157
-51.337
-52.534
-53.74
-54.947
-56.147
-57.332
-58.494
-59.627
-60.723
-61.775
-62.776
-63.721
-64.602
-65.415
-66.153
-66.814
-67.392
-67.886
-68.291
-68.607
-68.833
-68.969
-69.016
-68.975
-68.848
-68.639
-68.351
-67.988
-67.556
-67.058
-66.502
-65.894
-65.241
-64.55
-63.828
-63.083
-62.324
-61.557
-60.791
-60.034
-59.294
-58.579
-57.896
-57.255
-56.662
-56.124
-55.649
-55.242
-54.909
-54.655
-54.484
-54.397
-54.397
-54.484
-54.658
-54.918
-55.262
-55.685
-56.184
-56.754
-57.389
-58.081
-58.823
-59.607
-60.424
-61.263
-62.115
-62.968
-63.813
-64.638
-65.433
-66.186
-66.888
-67.526
-68.089
-68.568
-68.951
-69.229
-69.393
-69.432
-69.34
-69.11
-68.736
-68.215
-67.544
-66.721
-65.746
-64.623
-63.352
-61.94
-60.392
-58.715
-56.918
-55.012
-53.008
-50.92
-48.761
-46.549
-44.302
-42.039
-39.781
-37.549
-35.365
-33.251
-31.23
-29.322
-27.546
-25.919
-24.46
-23.185
-22.115
-21.266
-20.655
-20.294
-20.196
-20.37
-20.823
-21.557
-22.566
-23.841
-25.378
-27.175
-29.239
-31.577
-34.188
-37.066
-40.203
-43.582
-47.184
-50.971
-54.891
-58.889
-62.908
-66.9
-70.825
-74.638
-78.285
-81.698
-84.791
-87.485
-89.703
-91.385
-92.502
-93.043
-93.02
-92.478
-91.479
-90.102
-88.47
-86.693
-84.836
-82.971
-81.19
-79.676
-78.731
-78.625
-79.471
-81.184
-83.687
-86.874
-90.262
-93.26
-95.227
-95.264
-94.045
-92.711
-90.682
-88.649
-85.379
-79.47
-74.634
-71.697
-73.025
-81.228
-93.08
-110.374
-131.102
-149.102
-157.881
-140.119
-83.407
16.947
158.764
322.002
484.96
628.439
736.926
809.607
851.817
871.682
876.94
868.217
841.982
792.62
717.365
618.896
502.928
377.549
249.982
124.983
6.862
-100.438
-193.834
-270.634
-329.375
-370.839
-396.612
-408.268
-407.803
-397.059
-377.993
-353.287
-325.28
-295.057
-263.517
-231.677
-200.828
-173.044
-149.698
-130.88
-116.412
-106.292
-100.285
-97.924
-97.941
-97.989
-96.413
-92.637
-86.507
-78.221
-68.125
-56.545
-44.348
-33.062
-23.704
-16.668
-12.048
-9.514
-8.709
-9.449
-11.331
-13.728
-16.232
-18.579
-20.576
-22.246
-23.561
-24.389
-24.699
-24.501
-23.786
-22.602
-20.995
-18.975
-16.6
-13.927
-10.986
-7.829
-4.498
-1.018
2.541
6.121
9.655
13.044
16.218
19.131
21.749
24.072
26.124
27.924
29.507
30.918
32.193
33.37
34.479
35.543
36.591
37.662
38.797
40.052
41.472
43.087
44.925
47.002
49.324
51.898
54.721
57.777
61.056
64.547
68.241
72.131
76.209
80.458
84.861
89.397
94.044
98.78
103.582
108.426
113.288
118.141
122.963
127.732
132.423
137.011
141.47
145.772
149.892
153.803
157.482
160.904
164.044
166.883
169.401
171.58
173.405
174.861
175.938
176.625
176.914
176.801
176.281
175.354
174.02
172.282
170.145
167.617
164.707
161.427
157.789
153.809
149.505
144.895
139.999
134.838
129.435
123.813
117.997
112.01
105.879
99.628
93.283
86.869
80.413
73.938
67.47
61.033
54.648
48.34
42.127
36.032
30.072
24.264
18.626
13.172
7.916
2.868
-1.959
-6.559
-10.922
-15.046
-18.924
-22.557
-25.942
-29.081
-31.977
-34.633
-37.054
-39.247
-41.218
-42.975
-44.526
-45.882
-47.051
-48.046
-48.875
-49.552
-50.086
-50.492
-50.779
-50.961
-51.049
-51.055
-50.989
-50.864
-50.689
-50.475
-50.232
-49.968
-49.693
-49.415
-49.142
-48.878
-48.632
-48.407
-48.207
-48.037
-47.899
-47.795
-47.727
-47.695
-47.701
-47.745
-47.827
-47.947
-48.104
-48.297
-48.525
-48.785
-49.078
-49.399
-49.747
-50.12
-50.514
-50.929
-51.361
-51.808
-52.267
-52.736
-53.212
-53.693
-54.176
-54.66
-55.14
-55.616
-56.086
-56.548
-57.001
-57.444
-57.877
-58.298
-58.707
-59.104
-59.489
-59.859
-60.216
-60.558
-60.885
-61.196
-61.491
-61.771
-62.035
-62.283
-62.514
-62.73
-62.93
-63.113
-63.28
-63.431
-63.566
-63.685
-63.788
-63.876
-63.949
-64.009
-64.056
-64.089
-64.11
-64.119
-64.115
-64.099
-64.07
-64.027
-63.972
-63.902
-63.819
-63.721
-63.609
-63.481
-63.337
-63.176
-62.997
-62.799
-62.58
-62.339
-62.075
-61.786
-61.471
-61.129
-60.757
-60.354
-59.918
-59.446
-58.936
-58.385
-57.79
-57.149
-56.459
-55.717
-54.921
-54.069
-53.158
-52.186
-51.153
-50.056
-48.893
-47.665
-46.371
-45.01
-43.584
-42.094
-40.541
-38.927
-37.255
-35.527
-33.748
-31.923
-30.054
-28.15
-26.217
-24.262
-22.293
-20.321
-18.355
-16.407
-14.49
-12.617
-10.805
-9.072
-7.436
-5.919
-4.537
-3.307
-2.243
-1.36
-0.669
-0.181
0.094
0.148
-0.027
-0.442
-1.105
-2.021
-3.188
-4.591
-6.215
-8.041
-10.059
-12.269
-14.669
-17.257
-20.032
-22.994
-26.139
-29.466
-32.948
-36.532
-40.166
-43.798
-47.402
-50.985
-54.544
-58.061
-61.485
-64.731
-67.71
-70.356
-72.59
-74.303
-75.465
-76.14
-76.511
-76.898
-77.616
-78.868
-80.757
-83.368
-86.504
-89.702
-92.461
-94.16
-94.261
-92.532
-88.861
-83.098
-75.691
-67.656
-59.857
-53.222
-48.553
-46.185
-46.721
-51.228
-59.934
-72.131
-87.349
-104.948
-123.905
-143.666
-161.636
-172.37
-172.902
-162.152
-140.621
-113.264
-79.829
-32.73
35.329
133.538
263.534
410.977
557.86
685.542
778.308
836.032
866.171
874.499
867.757
845.881
802.767
736.874
649.334
543.765
427.643
307.244
186.4
68.694
-42.196
-142.926
-230.386
-302.227
-357.826
-397.651
-422.052
-431.655
-427.77
-412.387
-388.301
-358.457
-325.141
-290.106
-255.01
-221.833
-192.789
-169.06
-150.629
-136.936
-127.146
-120.539
-116.549
-113.873
-110.474
-105.08
-97.302
-87.28
-75.705
-63.198
-50.14
-37.351
-26.098
-17.186
-10.963
-7.434
-6.165
-6.742
-8.878
-12.124
-15.907
-19.815
-23.537
-26.838
-29.642
-31.842
-33.326
-34.075
-34.097
-33.405
-32.031
-30.016
-27.387
-24.228
-20.649
-16.732
-12.557
-8.182
-3.653
0.933
5.435
9.761
13.907
17.878
21.696
25.353
28.765
31.922
34.953
37.826
40.253
42.193
43.78
44.999
46.229
46.907
45.028
40.998
36.781
35.433
42.812
58.82
77.553
93.205
97.506
89.583
77.303
66.769
64.471
71.802
82.875
93.985
102.694
108.13
112.657
117.399
122.237
127.24
132.031
136.48
140.89
145.346
149.768
154.14
158.454
162.671
166.754
170.649
174.278
177.6
180.619
183.325
185.696
187.719
189.378
190.66
191.565
192.085
192.211
191.936
191.259
190.179
188.697
186.819
184.549
181.896
178.87
175.481
171.744
167.673
163.285
158.598
153.631
148.405
142.94
137.259
131.386
125.344
119.158
112.852
106.451
99.98
93.463
86.923
80.384
73.869
67.399
60.995
54.677
48.466
42.378
36.431
30.642
25.024
19.591
14.356
9.327
4.516
-0.072
-4.429
-8.55
-12.432
-16.073
-19.472
-22.629
-25.546
-28.226
-30.674
-32.894
-34.894
-36.68
-38.26
-39.644
-40.839
-41.856
-42.705
-43.396
-43.939
-44.346
-44.626
-44.79
-44.85
-44.815
-44.696
-44.502
-44.243
-43.929
-43.567
-43.166
-42.735
-42.279
-41.807
-41.325
-40.837
-40.35
-39.868
-39.394
-38.931
-38.482
-38.048
-37.631
-37.23
-36.847
-36.481
-36.131
-35.796
-35.475
-35.167
-34.869
-34.581
-34.3
-34.024
-33.753
-33.484
-33.215
-32.947
-32.677
-32.405
-32.129
-31.85
-31.567
-31.278
-30.984
-30.685
-30.38
-30.07
-29.755
-29.437
-29.116
-28.793
-28.472
-28.153
-27.839
-27.532
-27.235
-26.951
-26.682
-26.431
-26.203
-25.998
-25.82
-25.673
-25.558
-25.477
-25.432
-25.425
-25.456
-25.526
-25.636
-25.786
-25.974
-26.201
-26.467
-26.769
-27.108
-27.482
-27.89
-28.329
-28.798
-29.295
-29.817
-30.361
-30.924
-31.502
-32.091
-32.688
-33.288
-33.887
-34.48
-35.062
-35.63
-36.176
-36.698
-37.189
-37.645
-38.062
-38.435
-38.76
-39.034
-39.254
-39.416
-39.518
-39.557
-39.532
-39.44
-39.278
-39.045
-38.739
-38.358
-37.9
-37.362
-36.745
-36.047
-35.266
-34.404
-33.46
-32.434
-31.327
-30.14
-28.873
-27.529
-26.11
-24.618
-23.054
-21.424
-19.73
-17.976
-16.167
-14.305
-12.395
-10.441
-8.45
-6.425
-4.372
-2.295
-0.203
1.899
4.002
6.099
8.181
10.237
12.257
14.226
16.132
17.961
19.699
21.332
22.844
24.223
25.456
26.533
27.443
28.177
28.724
29.073
29.212
29.131
28.821
28.275
27.483
26.443
25.157
23.629
21.865
19.866
17.624
15.135
12.396
9.409
6.177
2.712
-0.966
-4.822
-8.803
-12.856
-16.926
-20.963
-24.932
-28.792
-32.503
-36.016
-39.265
-42.192
-44.744
-46.875
-48.546
-49.746
-50.497
-50.866
-50.968
-50.913
-50.796
-50.71
-50.733
-50.958
-51.501
-52.495
-54.09
-56.456
-59.817
-64.311
-69.958
-76.617
-83.812
-90.883
-97.163
-101.933
-104.454
-104.285
-101.276
-95.82
-89.406
-83.863
-80.754
-80.494
-82.077
-84.561
-87.748
-94.325
-107.589
-125.915
-141.947
-141.42
-108.761
-38.162
63.98
183.811
306.511
424.228
539.135
651.365
753.659
835.685
882.865
889.215
861.829
808.952
740.095
660.268
567.465
462.125
346.863
226.232
106.84
-6.484
-110.231
-201.675
-279.007
-340.699
-386.254
-416.176
-431.175
-432.552
-422.328
-402.829
-377.017
-347.967
-318.047
-289.234
-263.163
-240.99
-223.284
-209.916
-199.91
-191.855
-184.421
-176.324
-166.662
-154.796
-140.378
-123.59
-105.127
-86.025
-67.477
-50.676
-36.393
-25.091
-17.02
-12.132
-10.204
-10.843
-13.465
-17.387
-22.083
-27.209
-32.512
-37.815
-42.896
-47.506
-51.452
-54.639
-57.019
-58.545
-59.185
-58.907
-57.725
-55.719
-53.002
-49.696
-45.915
-41.745
-37.261
-32.566
-27.788
-23.06
-18.522
-14.264
-10.332
-6.764
-3.579
-0.779
1.647
3.739
5.561
7.165
8.6
9.906
11.113
12.265
13.418
14.63
15.963
17.462
19.154
21.066
23.215
25.612
28.261
31.153
34.269
37.597
41.127
44.849
48.753
52.828
57.054
61.413
65.884
70.445
75.076
79.752
84.451
89.148
93.82
98.445
103.002
107.466
111.812
116.015
120.048
123.885
127.5
130.869
133.968
136.773
139.266
141.426
143.239
144.69
145.766
146.457
146.756
146.656
146.154
145.248
143.94
142.231
140.126
137.634
134.763
131.524
127.932
124.001
119.749
115.195
110.359
105.264
99.933
94.391
88.663
82.776
76.756
70.633
64.433
58.185
51.916
45.654
39.426
33.257
27.172
21.194
15.345
9.647
4.119
-1.222
-6.36
-11.279
-15.968
-20.415
-24.611
-28.548
-32.221
-35.626
-38.762
-41.627
-44.223
-46.555
-48.625
-50.442
-52.013
-53.348
-54.458
-55.354
-56.049
-56.558
-56.896
-57.077
-57.117
-57.032
-56.838
-56.551
-56.187
-55.762
-55.29
-54.786
-54.263
-53.736
-53.216
-52.714
-52.242
-51.808
-51.421
-51.088
-50.816
-50.611
-50.476
-50.416
-50.432
-50.526
-50.698
-50.946
-51.27
-51.665
-52.128
-52.655
-53.241
-53.881
-54.568
-55.296
-56.058
-56.849
-57.661
-58.487
-59.32
-60.154
-60.983
-61.799
-62.597
-63.371
-64.117
-64.83
-65.506
-66.141
-66.732
-67.276
-67.771
-68.214
-68.605
-68.943
-69.228
-69.459
-69.639
-69.768
-69.85
-69.887
-69.881
-69.837
-69.757
-69.647
-69.508
-69.347
-69.166
-68.97
-68.764
-68.551
-68.336
-68.123
-67.915
-67.718
-67.534
-67.366
-67.217
-67.091
-66.989
-66.915
-66.871
-66.859
-66.881
-66.94
-67.037
-67.172
-67.347
-67.562
-67.817
-68.111
-68.443
-68.812
-69.217
-69.655
-70.126
-70.625
-71.151
-71.701
-72.272
-72.86
-73.462
-74.074
-74.692
-75.313
-75.931
-76.545
-77.148
-77.738
-78.309
-78.858
-79.38
-79.87
-80.321
-80.729
-81.088
-81.393
-81.638
-81.818
-81.928
-81.963
-81.919
-81.791
-81.576
-81.27
-80.87
-80.371
-79.771
-79.069
-78.263
-77.352
-76.335
-75.213
-73.986
-72.657
-71.227
-69.699
-68.076
-66.361
-64.561
-62.68
-60.725
-58.704
-56.625
-54.499
-52.339
-50.158
-47.972
-45.794
-43.642
-41.532
-39.482
-37.508
-35.625
-33.847
-32.188
-30.665
-29.291
-28.084
-27.058
-26.231
-25.614
-25.222
-25.066
-25.153
-25.488
-26.07
-26.898
-27.978
-29.319
-30.93
-32.818
-34.983
-37.423
-40.129
-43.082
-46.25
-49.583
-53.03
-56.538
-60.057
-63.55
-66.978
-70.297
-73.458
-76.394
-79.041
-81.346
-83.261
-84.742
-85.775
-86.37
-86.581
-86.514
-86.272
-85.939
-85.612
-85.382
-85.364
-85.696
-86.512
-87.941
-90.135
-93.305
-97.561
-102.855
-108.938
-115.297
-121.354
-126.609
-130.519
-132.421
-131.941
-129.201
-124.826
-120.097
-116.313
-114.198
-114.286
-117.142
-122.693
-129.852
-136.512
-139.34
-134.765
-120.265
-93.834
-53.451
2.022
72.287
155.595
248.283
345.514
443.057
536.796
621.815
693.399
747.569
780.953
791.809
780.066
745.647
689.025
612.296
518.364
410.968
295.15
175.86
57.332
-55.828
-159.307
-249.75
-324.239
-381.107
-420.761
-444.392
-453.371
-449.646
-435.172
-412.235
-383.875
-352.694
-320.07
-287.021
-254.481
-223.536
-195.793
-172.046
-151.96
-135.102
-121.176
-109.843
-101.053
-94.009
-86.942
-79.195
-69.654
-57.469
-44.38
-31.078
-20.22
-15.426
-14.378
-15.458
-15.416
-9.49
-1.421
5.628
9.419
6.324
-0.24
-6.946
-12.841
-15.959
-17.29
-18.131
-18.178
-17.61
-16.4
-14.345
-11.7
-8.689
-5.325
-1.668
2.192
6.196
10.289
14.384
18.424
22.343
26.033
29.423
32.485
35.194
37.553
39.581
41.302
42.759
44.01
45.104
46.086
46.997
47.872
48.755
49.697
50.751
51.973
53.409
55.092
57.05
59.303
61.861
64.731
67.911
71.387
75.15
79.192
83.504
88.078
92.903
97.96
103.229
108.689
114.313
120.078
125.958
131.922
137.944
143.994
150.044
156.068
162.035
167.915
173.675
179.284
184.708
189.917
194.879
199.564
203.942
207.987
211.673
214.978
217.88
220.362
222.404
223.994
225.118
225.767
225.935
225.615
224.807
223.51
221.729
219.468
216.736
213.545
209.906
205.836
201.352
196.472
191.217
185.61
179.675
173.436
166.92
160.155
153.167
145.987
138.641
131.161
123.576
115.914
108.204
100.474
92.752
85.065
77.44
69.9
62.47
55.174
48.032
41.065
34.291
27.729
21.393
15.297
9.453
3.872
-1.438
-6.468
-11.214
-15.671
-19.838
-23.712
-27.294
-30.586
-33.59
-36.312
-38.755
-40.928
-42.836
-44.489
-45.896
-47.066
-48.01
-48.738
-49.262
-49.595
-49.748
-49.734
-49.565
-49.255
-48.816
-48.26
-47.601
-46.851
-46.021
-45.124
-44.17
-43.171
-42.136
-41.076
-39.999
-38.915
-37.832
-36.758
-35.7
-34.664
-33.658
-32.686
-31.753
-30.865
-30.025
-29.237
-28.504
-27.828
-27.212
-26.657
-26.165
-25.736
-25.371
-25.07
-24.833
-24.657
-24.544
-24.49
-24.493
-24.552
-24.665
-24.828
-25.04
-25.297
-25.596
-25.936
-26.313
-26.723
-27.165
-27.634
-28.128
-28.644
-29.178
-29.728
-30.29
-30.862
-31.441
-32.025
-32.611
-33.196
-33.779
-34.358
-34.929
-35.491
-36.042
-36.581
-37.106
-37.616
-38.112
-38.591
-39.056
-39.505
-39.939
-40.358
-40.762
-41.153
-41.53
-41.895
-42.249
-42.592
-42.925
-43.25
-43.568
-43.88
-44.187
-44.49
-44.791
-45.089
-45.385
-45.679
-45.973
-46.267
-46.561
-46.855
-47.15
-47.447
-47.744
-48.041
-48.338
-48.633
-48.925
-49.211
-49.49
-49.758
-50.013
-50.253
-50.473
-50.671
-50.843
-50.985
-51.094
-51.163
-51.19
-51.17
-51.097
-50.966
-50.775
-50.517
-50.191
-49.79
-49.313
-48.755
-48.114
-47.386
-46.567
-45.656
-44.65
-43.546
-42.344
-41.042
-39.641
-38.141
-36.544
-34.851
-33.067
-31.196
-29.241
-27.208
-25.105
-22.939
-20.718
-18.452
-16.152
-13.829
-11.498
-9.174
-6.872
-4.609
-2.402
-0.268
1.775
3.711
5.526
7.204
8.731
10.093
11.275
12.262
13.039
13.591
13.906
13.972
13.78
13.324
12.603
11.618
10.373
8.867
7.093
5.049
2.734
0.151
-2.692
-5.782
-9.096
-12.598
-16.241
-19.974
-23.745
-27.513
-31.24
-34.889
-38.419
-41.775
-44.894
-47.719
-50.196
-52.282
-53.941
-55.148
-55.92
-56.316
-56.436
-56.371
-56.194
-55.961
-55.746
-55.661
-55.821
-56.356
-57.363
-58.972
-61.407
-64.787
-69.09
-74.09
-79.282
-84.114
-88.085
-90.586
-90.932
-88.782
-84.167
-77.725
-70.744
-64.33
-59.644
-58.069
-60.442
-67.021
-76.348
-84.579
-88.635
-86.269
-76.543
-61.024
-37.275
-0.347
54.968
136.401
245.827
378.416
524.555
666.04
782.671
859.783
891.094
881.929
846.057
795.708
736.671
668.438
586.472
488.877
378.627
261.389
144.633
33.868
-68.841
-161.057
-243.197
-316.167
-375.167
-417.978
-441.273
-440.65
-421.76
-390.283
-351.292
-311.998
-272.549
-232.203
-192.642
-154.639
-120.901
-93.84
-73.435
-59.037
-49.597
-44.198
-41.982
-41.607
-41.594
-40.548
-37.803
-33.544
-28.104
-21.723
-14.784
-7.832
-1.643
2.82
5.108
5.341
3.79
0.826
-3.183
-7.934
-12.935
-17.519
-21.257
-23.965
-25.585
-26.226
-25.956
-24.772
-22.745
-20.005
-16.674
-12.883
-8.724
-4.24
0.495
5.384
10.302
15.082
19.61
23.822
27.676
31.165
34.283
37.019
39.388
41.43
43.188
44.705
46.025
47.177
48.191
49.118
50.032
51.028
52.192
53.582
55.196
57.005
59.023
61.241
63.592
65.992
68.337
70.534
72.678
74.942
77.346
80.004
83.27
87.329
92.199
97.914
103.956
110.509
119.669
132.614
147.848
160.483
161.611
144.637
114.175
84.274
72.396
92.745
140.202
193.747
232.993
241.113
220.142
189.169
162.856
152.268
158.019
169.239
179.622
185.974
187.5
187.728
188.02
187.891
187.361
185.989
183.639
180.749
177.479
173.808
169.836
165.655
161.265
156.635
151.735
146.512
140.968
135.159
129.112
122.841
116.372
109.733
102.954
96.074
89.12
82.113
75.079
68.042
61.027
54.059
47.162
40.356
33.663
27.103
20.693
14.451
8.391
2.529
-3.123
-8.556
-13.758
-18.724
-23.448
-27.924
-32.151
-36.127
-39.852
-43.329
-46.559
-49.548
-52.3
-54.823
-57.123
-59.209
-61.09
-62.776
-64.278
-65.605
-66.77
-67.783
-68.654
-69.395
-70.017
-70.53
-70.944
-71.27
-71.517
-71.694
-71.811
-71.875
-71.895
-71.876
-71.827
-71.752
-71.656
-71.543
-71.417
-71.282
-71.139
-70.991
-70.84
-70.686
-70.53
-70.373
-70.215
-70.055
-69.892
-69.727
-69.558
-69.384
-69.205
-69.02
-68.83
-68.633
-68.429
-68.218
-68.001
-67.778
-67.548
-67.312
-67.07
-66.822
-66.571
-66.315
-66.058
-65.801
-65.545
-65.292
-65.044
-64.805
-64.575
-64.358
-64.156
-63.971
-63.806
-63.664
-63.547
-63.457
-63.396
-63.367
-63.371
-63.409
-63.481
-63.589
-63.732
-63.911
-64.124
-64.371
-64.652
-64.966
-65.312
-65.69
-66.098
-66.536
-67.003
-67.497
-68.019
-68.567
-69.14
-69.737
-70.357
-70.998
-71.66
-72.34
-73.038
-73.751
-74.479
-75.219
-75.969
-76.727
-77.492
-78.262
-79.037
-79.815
-80.594
-81.376
-82.159
-82.944
-83.729
-84.515
-85.302
-86.088
-86.873
-87.656
-88.436
-89.211
-89.978
-90.735
-91.479
-92.206
-92.913
-93.594
-94.246
-94.863
-95.441
-95.975
-96.46
-96.892
-97.266
-97.578
-97.823
-97.997
-98.094
-98.111
-98.042
-97.883
-97.629
-97.275
-96.818
-96.252
-95.573
-94.779
-93.864
-92.827
-91.666
-90.377
-88.961
-87.417
-85.746
-83.953
-82.039
-80.01
-77.872
-75.633
-73.302
-70.887
-68.4
-65.85
-63.249
-60.61
-57.943
-55.264
-52.587
-49.928
-47.305
-44.737
-42.243
-39.842
-37.555
-35.402
-33.402
-31.572
-29.928
-28.483
-27.253
-26.254
-25.503
-25.014
-24.798
-24.866
-25.225
-25.884
-26.845
-28.108
-29.662
-31.5
-33.615
-36.01
-38.693
-41.67
-44.934
-48.474
-52.276
-56.322
-60.592
-65.046
-69.625
-74.267
-78.913
-83.511
-88.022
-92.397
-96.57
-100.459
-103.971
-107.026
-109.574
-111.581
-113.011
-113.848
-114.092
-113.779
-113.011
-111.918
-110.631
-109.284
-108.02
-106.969
-106.315
-106.335
-107.228
-109.102
-111.915
-115.362
-119.118
-122.938
-126.468
-129.226
-130.844
-131.046
-129.943
-128.411
-127.385
-127.588
-129.724
-134.171
-140.937
-149.905
-160.192
-169.515
-175.112
-174.152
-163.859
-142.023
-106.714
-56.251
10.218
90.807
181.207
278.209
378.899
482.059
588.724
692.563
782.484
847.943
876.686
867.029
826.962
763.015
683.84
593.775
490.967
377.284
256.238
132.048
11.651
-99.226
-196.967
-278.657
-342.61
-388.777
-417.918
-430.795
-428.885
-414.669
-390.83
-360.46
-326.856
-292.216
-258.2
-226.879
-199.808
-177.518
-160.033
-146.643
-136.022
-127.345
-119.825
-112.005
-102.756
-91.626
-78.504
-63.903
-48.78
-33.78
-19.619
-7.4
2.159
8.71
12.092
12.612
10.766
6.961
1.766
-4.144
-10.305
-16.339
-21.912
-26.855
-30.982
-34.132
-36.276
-37.423
-37.58
-36.775
-35.035
-32.409
-29.006
-24.957
-20.397
-15.448
-10.202
-4.771
0.713
6.113
11.289
16.15
20.65
24.755
28.443
31.711
34.565
37.037
39.184
41.056
42.698
44.152
45.451
46.639
47.771
48.906
50.107
51.423
52.884
54.518
56.347
58.384
60.64
63.114
65.789
68.661
71.727
74.989
78.462
82.146
86.028
90.09
94.302
98.636
103.075
107.587
112.134
116.688
121.223
125.736
130.244
134.749
139.239
143.686
148.044
152.284
156.404
160.403
164.285
168.051
171.687
175.203
178.647
182.036
185.37
188.605
191.644
194.424
196.918
199.114
201.016
202.592
203.771
204.492
204.713
204.402
203.545
202.096
199.949
197.042
193.353
188.92
183.849
178.203
171.992
165.215
157.892
150.098
141.964
133.599
125.066
116.423
107.717
99.036
90.523
82.284
74.378
66.816
59.567
52.645
46.12
40.066
34.511
29.421
24.71
20.316
16.231
12.449
8.962
5.727
2.674
-0.242
-3.028
-5.667
-8.143
-10.472
-12.714
-14.929
-17.133
-19.303
-21.381
-23.331
-25.153
-26.848
-28.412
-29.823
-31.057
-32.111
-33.009
-33.778
-34.431
-34.967
-35.363
-35.602
-35.688
-35.643
-35.497
-35.277
-34.994
-34.66
-34.293
-33.915
-33.543
-33.182
-32.823
-32.461
-32.098
-31.738
-31.392
-31.066
-30.761
-30.477
-30.21
-29.959
-29.724
-29.501
-29.286
-29.073
-28.858
-28.644
-28.431
-28.223
-28.022
-27.826
-27.637
-27.456
-27.282
-27.117
-26.958
-26.805
-26.658
-26.517
-26.382
-26.255
-26.135
-26.024
-25.921
-25.828
-25.744
-25.671
-25.608
-25.557
-25.518
-25.492
-25.481
-25.486
-25.507
-25.547
-25.606
-25.684
-25.784
-25.904
-26.045
-26.207
-26.39
-26.594
-26.819
-27.065
-27.33
-27.617
-27.924
-28.253
-28.603
-28.976
-29.371
-29.789
-30.231
-30.697
-31.187
-31.702
-32.241
-32.805
-33.394
-34.006
-34.642
-35.3
-35.978
-36.676
-37.39
-38.12
-38.862
-39.614
-40.374
-41.139
-41.906
-42.673
-43.435
-44.189
-44.933
-45.661
-46.369
-47.053
-47.707
-48.326
-48.904
-49.436
-49.915
-50.335
-50.69
-50.973
-51.179
-51.302
-51.335
-51.273
-51.111
-50.844
-50.468
-49.98
-49.375
-48.651
-47.807
-46.842
-45.754
-44.543
-43.209
-41.754
-40.178
-38.483
-36.672
-34.748
-32.715
-30.576
-28.339
-26.01
-23.596
-21.106
-18.55
-15.936
-13.275
-10.579
-7.859
-5.127
-2.396
0.321
3.01
5.656
8.245
10.759
13.183
15.498
17.69
19.742
21.636
23.355
24.881
26.197
27.289
28.141
28.74
29.072
29.124
28.885
28.351
27.518
26.384
24.946
23.202
21.154
18.816
16.202
13.331
10.216
6.862
3.279
-0.515
-4.505
-8.67
-12.99
-17.451
-22.026
-26.674
-31.343
-35.972
-40.514
-44.94
-49.231
-53.379
-57.351
-61.085
-64.521
-67.59
-70.238
-72.445
-74.166
-75.325
-75.961
-76.196
-76.26
-76.53
-77.297
-78.714
-80.89
-83.874
-87.545
-91.686
-95.826
-99.15
-100.878
-100.367
-97.239
-91.469
-83.386
-73.541
-62.761
-52.404
-44.11
-39.497
-39.997
-46.588
-59.104
-76.905
-98.243
-119.328
-137.499
-150.693
-157.894
-161.019
-157.406
-140.079
-102.042
-34.723
61.014
174.339
294.89
410.706
515.73
611.676
697.15
769.654
826.275
861.838
873.726
862.438
828.415
772.374
696.366
603.093
495.834
379.008
257.396
134.812
15.316
-96.41
-196.663
-282.453
-351.323
-402.546
-436.954
-455.363
-459.188
-450.613
-431.425
-403.889
-370.938
-334.701
-296.297
-257.001
-217.91
-180.262
-146.186
-116.912
-92.444
-72.819
-58.166
-48.286
-42.944
-41.139
-40.677
-40.118
-38.962
-36.875
-33.893
-30.149
-25.643
-20.982
-17.442
-15.727
-16.02
-18.264
-21.972
-26.723
-32.235
-37.93
-43.098
-47.292
-50.263
-51.957
-52.533
-52.088
-50.679
-48.44
-45.524
-42.082
-38.263
-34.162
-29.865
-25.479
-21.133
-16.985
-13.157
-9.718
-6.707
-4.131
-1.978
-0.238
1.117
2.145
2.896
3.423
3.78
4.007
4.157
4.291
4.473
4.777
5.264
5.973
6.939
8.183
9.721
11.566
13.722
16.181
18.937
21.986
25.324
28.949
32.853
37.023
41.441
46.089
50.947
55.996
61.213
66.575
72.058
77.638
83.29
88.99
94.711
100.424
106.1
111.705
117.211
122.585
127.797
132.816
137.612
142.159
146.428
150.396
154.039
157.334
160.262
162.805
164.947
166.675
167.978
168.845
169.273
169.255
168.792
167.883
166.532
164.745
162.528
159.891
156.847
153.407
149.589
145.407
140.882
136.033
130.88
125.447
119.756
113.831
107.698
101.381
94.905
88.297
81.583
74.788
67.937
61.055
54.169
47.3
40.473
33.71
27.033
20.462
14.015
7.712
1.57
-4.397
-10.173
-15.745
-21.1
-26.229
-31.12
-35.766
-40.16
-44.294
-48.166
-51.771
-55.108
-58.175
-60.973
-63.503
-65.768
-67.772
-69.52
-71.018
-72.272
-73.29
-74.082
-74.657
-75.025
-75.197
-75.183
-74.995
-74.646
-74.146
-73.507
-72.742
-71.863
-70.882
-69.81
-68.66
-67.444
-66.173
-64.86
-63.515
-62.151
-60.777
-59.404
-58.042
-56.702
-55.391
-54.118
-52.891
-51.717
-50.602
-49.552
-48.571
-47.664
-46.833
-46.08
-45.408
-44.816
-44.305
-43.875
-43.525
-43.254
-43.061
-42.943
-42.898
-42.924
-43.018
-43.176
-43.396
-43.673
-44.004
-44.384
-44.809
-45.274
-45.775
-46.306
-46.864
-47.442
-48.037
-48.644
-49.258
-49.876
-50.493
-51.107
-51.714
-52.312
-52.9
-53.478
-54.043
-54.592
-55.124
-55.637
-56.133
-56.614
-57.076
-57.514
-57.938
-58.358
-58.779
-59.215
-59.655
-60.08
-60.507
-60.953
-61.38
-61.761
-62.073
-62.283
-62.421
-62.548
-62.632
-62.614
-62.652
-62.928
-63.333
-63.878
-64.596
-65.094
-66.432
-69.645
-73.252
-76.804
-77.582
-72.333
-64.651
-56.934
-52.748
-56.997
-65.338
-74.09
-80.729
-81.086
-78.137
-74.894
-72.026
-71.367
-71.845
-72.082
-72.334
-72.421
-72.43
-72.633
-72.842
-72.909
-72.874
-72.745
-72.499
-72.137
-71.666
-71.086
-70.422
-69.702
-68.911
-68.034
-67.077
-66.036
-64.911
-63.706
-62.416
-61.037
-59.574
-58.029
-56.402
-54.696
-52.914
-51.058
-49.133
-47.144
-45.095
-42.993
-40.846
-38.662
-36.448
-34.213
-31.965
-29.716
-27.473
-25.248
-23.051
-20.894
-18.789
-16.753
-14.799
-12.943
-11.201
-9.589
-8.121
-6.811
-5.671
-4.71
-3.935
-3.357
-2.983
-2.825
-2.89
-3.185
-3.713
-4.477
-5.478
-6.714
-8.178
-9.855
-11.733
-13.804
-16.069
-18.537
-21.214
-24.096
-27.178
-30.447
-33.889
-37.483
-41.194
-44.966
-48.743
-52.471
-56.104
-59.607
-62.94
-66.039
-68.833
-71.236
-73.166
-74.576
-75.436
-75.717
-75.423
-74.569
-73.185
-71.381
-69.3
-67.068
-64.835
-62.722
-60.836
-59.391
-58.693
-58.972
-60.316
-62.623
-65.574
-68.844
-72.14
-75.002
-76.794
-77.025
-75.624
-73.047
-70.201
-68.274
-68.459
-71.839
-79.578
-91.177
-104.019
-115.544
-123.648
-128.892
-134.061
-138.252
-134.59
-111.664
-58.03
31.143
149.043
281.812
415.471
536.474
638.611
719.335
774.498
805.773
813.462
797.551
761.94
705.701
629.23
536.127
428.882
313.216
195.325
78.812
-32.612
-135.238
-226.202
-302.764
-362.739
-405.71
-432.225
-442.613
-437.859
-420.156
-392.162
-357.133
-318.628
-279.128
-240.561
-205.275
-175.087
-150.683
-132.101
-118.504
-108.415
-100.912
-95.136
-89.633
-83.261
-75.545
-66.365
-56.208
-45.96
-36.143
-27.303
-20.333
-15.793
-13.878
-14.565
-17.422
-21.84
-27.352
-33.429
-39.413
-44.848
-49.398
-52.829
-55.114
-56.261
-56.269
-55.202
-53.16
-50.237
-46.555
-42.245
-37.411
-32.2
-26.772
-21.28
-15.885
-10.713
-5.857
-1.39
2.65
6.244
9.39
12.105
14.416
16.357
17.974
19.316
20.43
21.377
22.216
23.012
23.839
24.75
25.788
26.985
28.365
29.941
31.727
33.729
35.943
38.371
41.011
43.863
46.93
50.208
53.691
57.371
61.235
65.27
69.466
73.811
78.291
82.893
87.6
92.397
97.271
102.203
107.172
112.157
117.132
122.075
126.961
131.765
136.461
141.026
145.435
149.667
153.701
157.515
161.09
164.409
167.452
170.205
172.651
174.778
176.573
178.026
179.126
179.868
180.245
180.254
179.892
179.16
178.057
176.588
174.757
172.57
170.036
167.163
163.963
160.448
156.632
152.532
148.162
143.541
138.686
133.617
128.352
122.91
117.311
111.574
105.72
99.766
93.734
87.641
81.508
75.352
69.194
63.051
56.94
50.88
44.887
38.977
33.164
27.465
21.893
16.461
11.18
6.064
1.122
-3.633
-8.193
-12.555
-16.717
-20.673
-24.421
-27.954
-31.269
-34.378
-37.278
-39.947
-42.372
-44.537
-46.442
-48.121
-49.586
-50.809
-51.813
-52.677
-53.462
-54.235
-55.018
-55.727
-56.335
-56.944
-57.483
-57.607
-57.22
-56.448
-55.256
-53.991
-52.102
-47.383
-40.064
-32.288
-27.179
-30.987
-44.033
-59.885
-72.371
-72.693
-59.347
-40.862
-23.901
-15.359
-17.205
-23.126
-29.007
-32.323
-31.981
-30.532
-29.319
-28.212
-27.334
-26.32
-25.027
-23.811
-22.8
-21.931
-21.214
-20.668
-20.28
-20.036
-19.904
-19.825
-19.775
-19.78
-19.848
-19.974
-20.156
-20.391
-20.675
-21.015
-21.41
-21.854
-22.342
-22.871
-23.437
-24.037
-24.668
-25.328
-26.012
-26.717
-27.44
-28.177
-28.926
-29.682
-30.444
-31.207
-31.97
-32.729
-33.484
-34.232
-34.971
-35.702
-36.422
-37.133
-37.833
-38.522
-39.2
-39.866
-40.522
-41.166
-41.798
-42.42
-43.03
-43.629
-44.217
-44.793
-45.357
-45.91
-46.45
-46.976
-47.488
-47.986
-48.468
-48.933
-49.382
-49.812
-50.224
-50.615
-50.983
-51.328
-51.647
-51.938
-52.196
-52.421
-52.608
-52.755
-52.858
-52.914
-52.92
-52.873
-52.769
-52.606
-52.38
-52.089
-51.729
-51.298
-50.794
-50.216
-49.562
-48.833
-48.027
-47.144
-46.186
-45.153
-44.045
-42.865
-41.614
-40.293
-38.905
-37.454
-35.945
-34.38
-32.767
-31.109
-29.415
-27.69
-25.944
-24.182
-22.413
-20.647
-18.892
-17.158
-15.456
-13.795
-12.189
-10.65
-9.194
-7.833
-6.581
-5.454
-4.464
-3.625
-2.948
-2.442
-2.114
-1.972
-2.022
-2.274
-2.736
-3.415
-4.317
-5.445
-6.803
-8.392
-10.209
-12.243
-14.482
-16.917
-19.543
-22.364
-25.386
-28.604
-32.014
-35.607
-39.363
-43.257
-47.251
-51.286
-55.304
-59.246
-63.063
-66.72
-70.177
-73.388
-76.295
-78.827
-80.916
-82.513
-83.573
-84.058
-83.989
-83.404
-82.381
-81.047
-79.503
-77.838
-76.179
-74.635
-73.265
-72.176
-71.496
-71.375
-72.093
-73.867
-76.708
-80.481
-84.997
-89.937
-94.66
-98.518
-100.843
-100.757
-99.023
-96.918
-94.12
-91.628
-88.435
-81.801
-73.89
-66.027
-60.435
-63.643
-76.777
-97.407
-120.33
-131.473
-115.726
-63.613
28.128
151.511
290.936
430.252
555.362
658.265
734.563
784.456
812.598
821.383
814.163
791.535
748.723
684.284
599.321
497.184
385.055
269.317
154.002
42.691
-60.967
-153.7
-232.69
-296.011
-343.406
-375.794
-393.991
-399.005
-392.49
-376.31
-352.7
-324.125
-292.42
-258.762
-224.438
-190.927
-159.871
-132.761
-110.252
-92.222
-78.381
-68.546
-62.305
-58.83
-56.621
-53.944
-49.838
-44.071
-36.757
-28.13
-18.449
-8.095
2.068
10.918
17.85
22.717
25.662
27.036
27.076
25.966
24.099
21.996
20.038
18.467
17.375
16.743
16.623
17.082
18.127
19.722
21.786
24.243
27.041
30.148
33.533
37.161
40.986
44.953
49.017
53.121
57.212
61.227
65.074
68.689
72.031
75.076
77.837
80.333
82.58
84.607
86.449
88.135
89.697
91.163
92.552
93.89
95.212
96.554
97.969
99.497
101.166
102.996
104.998
107.178
109.54
112.079
114.782
117.637
120.633
123.762
127.019
130.396
133.878
137.449
141.089
144.78
148.505
152.242
155.974
159.679
163.338
166.934
170.45
173.869
177.17
180.335
183.341
186.169
188.799
191.212
193.39
195.315
196.97
198.342
199.42
200.192
200.648
200.781
200.585
200.055
199.189
197.986
196.445
194.568
192.358
189.821
186.962
183.79
180.314
176.544
172.491
168.168
163.589
158.77
153.725
148.472
143.028
137.411
131.64
125.734
119.713
113.596
107.404
101.156
94.872
88.57
82.27
75.989
69.746
63.557
57.438
51.406
45.474
39.658
33.969
28.422
23.026
17.793
12.733
7.854
3.164
-1.33
-5.621
-9.706
-13.58
-17.241
-20.688
-23.919
-26.935
-29.738
-32.332
-34.718
-36.902
-38.888
-40.683
-42.293
-43.726
-44.989
-46.09
-47.039
-47.844
-48.515
-49.061
-49.491
-49.816
-50.044
-50.186
-50.25
-50.247
-50.187
-50.078
-49.93
-49.753
-49.555
-49.345
-49.131
-48.92
-48.72
-48.536
-48.376
-48.245
-48.147
-48.086
-48.066
-48.09
-48.159
-48.275
-48.439
-48.65
-48.908
-49.211
-49.558
-49.946
-50.374
-50.838
-51.336
-51.864
-52.42
-52.998
-53.596
-54.21
-54.835
-55.467
-56.102
-56.735
-57.363
-57.981
-58.585
-59.172
-59.737
-60.278
-60.791
-61.274
-61.723
-62.137
-62.513
-62.851
-63.149
-63.409
-63.629
-63.811
-63.957
-64.067
-64.145
-64.191
-64.209
-64.201
-64.171
-64.121
-64.054
-63.975
-63.887
-63.792
-63.695
-63.6
-63.509
-63.426
-63.354
-63.295
-63.253
-63.23
-63.228
-63.25
-63.298
-63.374
-63.48
-63.616
-63.784
-63.985
-64.217
-64.481
-64.775
-65.099
-65.451
-65.829
-66.232
-66.656
-67.099
-67.559
-68.032
-68.515
-69.005
-69.496
-69.985
-70.468
-70.941
-71.399
-71.838
-72.256
-72.647
-73.008
-73.336
-73.626
-73.875
-74.079
-74.235
-74.338
-74.384
-74.371
-74.295
-74.154
-73.945
-73.665
-73.315
-72.89
-72.39
-71.812
-71.156
-70.421
-69.604
-68.706
-67.727
-66.667
-65.528
-64.311
-63.018
-61.651
-60.215
-58.711
-57.144
-55.517
-53.835
-52.103
-50.327
-48.514
-46.669
-44.802
-42.922
-41.04
-39.168
-37.319
-35.506
-33.741
-32.04
-30.416
-28.882
-27.45
-26.131
-24.936
-23.877
-22.967
-22.221
-21.65
-21.267
-21.08
-21.101
-21.336
-21.791
-22.464
-23.353
-24.454
-25.771
-27.314
-29.094
-31.114
-33.378
-35.881
-38.611
-41.551
-44.674
-47.932
-51.276
-54.656
-58.024
-61.348
-64.591
-67.709
-70.65
-73.344
-75.719
-77.722
-79.295
-80.402
-81.04
-81.22
-80.992
-80.454
-79.685
-78.784
-77.877
-77.062
-76.456
-76.176
-76.313
-77.048
-78.638
-81.256
-84.949
-89.588
-94.839
-100.358
-105.809
-110.664
-114.269
-116.094
-115.979
-114.3
-111.791
-109.323
-107.88
-108.372
-111.663
-117.293
-122.874
-125.492
-123.239
-118.02
-113.984
-113.509
-113.283
-99.974
-57.85
24.249
148.173
298.154
450.914
584.461
681.132
739.274
768.995
782.104
790.87
798.857
796.909
775.436
725.973
644.302
539.497
421.347
298.084
178.498
63.127
-47.271
-149.164
-240.695
-317.771
-377.213
-419.184
-444.382
-453.93
-449.63
-433.464
-407.905
-376.094
-340.878
-304.057
-266.996
-231.28
-198.698
-170.79
-148.24
-130.701
-117.51
-108.353
-102.874
-100.292
-99.093
-97.439
-94.29
-89.449
-83.091
-75.429
-66.621
-56.965
-47.341
-38.988
-32.605
-28.358
-26.065
-25.344
-25.982
-27.827
-30.495
-33.415
-36.141
-38.433
-40.27
-41.74
-42.829
-43.492
-43.733
-43.604
-43.221
-42.656
-41.875
-40.877
-39.766
-38.449
-36.584
-34.151
-31.316
-28.063
-24.811
-20.783
-13.678
-4.136
5.642
12
8.268
-4.934
-20.95
-33.079
-31.834
-16.878
2.925
20.746
29.114
26.97
20.993
15.228
12.537
13.717
16.085
18.491
21.03
23.627
26.705
30.356
34.214
38.162
42.239
46.416
50.662
54.978
59.368
63.852
68.469
73.216
78.036
82.897
87.777
92.648
97.486
102.265
106.951
111.518
115.95
120.225
124.321
128.214
131.879
135.294
138.435
141.282
143.814
146.012
147.86
149.342
150.448
151.166
151.487
151.407
150.92
150.025
148.722
147.01
144.896
142.384
139.482
136.2
132.55
128.546
124.203
119.538
114.568
109.314
103.796
98.035
92.053
85.873
79.519
73.015
66.387
59.658
52.854
46.001
39.124
32.247
25.394
18.588
11.851
5.205
-1.33
-7.735
-13.991
-20.081
-25.991
-31.706
-37.212
-42.5
-47.558
-52.38
-56.957
-61.286
-65.362
-69.182
-72.747
-76.057
-79.112
-81.916
-84.474
-86.789
-88.869
-90.721
-92.352
-93.772
-94.99
-96.015
-96.86
-97.533
-98.047
-98.413
-98.641
-98.744
-98.732
-98.617
-98.408
-98.118
-97.755
-97.33
-96.852
-96.33
-95.772
-95.185
-94.577
-93.956
-93.325
-92.692
-92.062
-91.438
-90.825
-90.227
-89.645
-89.083
-88.542
-88.025
-87.532
-87.064
-86.623
-86.207
-85.819
-85.456
-85.12
-84.809
-84.524
-84.264
-84.029
-83.818
-83.631
-83.467
-83.328
-83.212
-83.119
-83.05
-83.005
-82.984
-82.986
-83.011
-83.061
-83.134
-83.232
-83.353
-83.498
-83.667
-83.86
-84.077
-84.317
-84.58
-84.866
-85.173
-85.502
-85.851
-86.22
-86.607
-87.011
-87.432
-87.868
-88.318
-88.779
-89.251
-89.731
-90.217
-90.707
-91.199
-91.691
-92.181
-92.666
-93.146
-93.618
-94.08
-94.533
-94.973
-95.4
-95.814
-96.214
-96.6
-96.97
-97.326
-97.668
-97.997
-98.313
-98.617
-98.911
-99.195
-99.471
-99.741
-100.005
-100.266
-100.525
-100.783
-101.041
-101.303
-101.569
-101.84
-102.119
-102.406
-102.703
-103.01
-103.328
-103.657
-103.997
-104.346
-104.704
-105.068
-105.437
-105.808
-106.178
-106.543
-106.9
-107.244
-107.571
-107.875
-108.152
-108.396
-108.601
-108.76
-108.868
-108.919
-108.907
-108.825
-108.669
-108.433
-108.112
-107.7
-107.193
-106.586
-105.876
-105.058
-104.129
-103.088
-101.933
-100.662
-99.277
-97.778
-96.166
-94.445
-92.62
-90.695
-88.677
-86.573
-84.392
-82.144
-79.84
-77.492
-75.11
-72.707
-70.298
-67.901
-65.535
-63.221
-60.978
-58.827
-56.788
-54.882
-53.129
-51.545
-50.14
-48.926
-47.916
-47.125
-46.573
-46.276
-46.246
-46.49
-47.007
-47.798
-48.862
-50.19
-51.769
-53.586
-55.632
-57.913
-60.438
-63.213
-66.239
-69.506
-72.983
-76.631
-80.41
-84.28
-88.215
-92.2
-96.195
-100.148
-103.99
-107.657
-111.095
-114.266
-117.077
-119.377
-121.095
-122.297
-123.228
-124.181
-125.282
-126.414
-127.402
-128.282
-129.053
-129.489
-129.049
-127.061
-123.324
-118.437
-113.398
-108.797
-105.078
-102.831
-102.683
-105.298
-110.702
-117.598
-124.966
-133.317
-142.763
-152.307
-157.833
-152.855
-134.887
-108.332
-84.621
-76.185
-87.239
-111.018
-133.139
-140.9
-131.395
-110.186
-84.746
-56.59
-16.047
50.435
152.834
291.495
450.662
607.974
740.637
831.163
877.711
887.503
871.802
841.461
798.292
738.538
657.964
554.952
433.1
299.756
162.712
28.044
-98.693
-212.636
-310.088
-387.588
-443.261
-477.161
-489.715
-482.347
-458.491
-422.071
-377.377
-329.335
-281.536
-236.824
-198.383
-168.065
-146.052
-131.881
-124.054
-120.224
-118.776
-117.986
-115.449
-109.828
-100.703
-88.072
-72.868
-56.415
-39.628
-23.659
-9.991
0.599
7.748
11.34
11.853
9.876
5.899
0.612
-5.245
-11.189
-16.833
-21.848
-26.074
-29.367
-31.609
-32.803
-32.982
-32.158
-30.36
-27.631
-24.038
-19.698
-14.754
-9.337
-3.557
2.472
8.626
14.753
20.694
26.336
31.613
36.487
40.938
44.948
48.512
51.66
54.445
56.922
59.146
61.162
63.006
64.727
66.379
68.021
69.718
71.518
73.451
75.543
77.817
80.288
82.97
85.862
88.956
92.243
95.722
99.391
103.25
107.294
111.513
115.897
120.435
125.114
129.923
134.848
139.872
144.982
150.16
155.39
160.656
165.941
171.223
176.481
181.692
186.833
191.882
196.817
201.616
206.256
210.717
214.979
219.024
222.833
226.391
229.682
232.69
235.404
237.81
239.9
241.666
243.098
244.192
244.941
245.341
245.389
245.081
244.417
243.396
242.021
240.295
238.224
235.815
233.079
230.027
226.673
223.028
219.104
214.911
210.461
205.767
200.841
195.694
190.331
184.757
178.986
173.037
166.912
160.613
154.139
147.485
140.661
133.694
126.588
119.34
111.997
104.604
97.205
89.873
82.631
75.467
68.438
61.616
54.852
47.985
41.133
34.292
27.428
20.896
13.636
4.652
-4.615
-13.73
-20.06
-20.523
-18.7
-16.952
-18.762
-28.883
-43.06
