Name,John Breau
Date of Birth,"Dec 20, 1971"
Recorded Date,2025-04-06 21:39:27 -0500
Classification,Sinus Rhythm
Symptoms,
Software Version,1.90
Device,"Watch6,18"
Sample Rate,512 hertz


Lead,Lead I
Unit,µV

-113.203
-113.89
-114.53
-115.112
-115.624
-116.056
-116.395
-116.63
-116.747
-116.736
-116.582
-116.274
-115.799
-115.145
-114.3
-113.252
-111.99
-110.503
-108.781
-106.815
-104.596
-102.116
-99.37
-96.352
-93.058
-89.485
-85.632
-81.498
-77.085
-72.397
-67.436
-62.21
-56.726
-50.992
-45.018
-38.817
-32.402
-25.787
-18.988
-12.024
-4.911
2.329
9.676
17.108
24.601
32.131
39.673
47.201
54.69
62.112
69.441
76.65
83.711
90.598
97.286
103.748
109.959
115.896
121.536
126.856
131.837
136.459
140.705
144.558
148.004
151.03
153.625
155.779
157.486
158.739
159.535
159.871
159.75
159.172
158.142
156.668
154.757
152.419
149.669
146.52
142.987
139.09
134.847
130.278
125.405
120.251
114.84
109.196
103.344
97.309
91.116
84.792
78.362
71.851
65.285
58.689
52.087
45.504
38.963
32.488
26.1
19.822
13.673
7.673
1.839
-3.81
-9.26
-14.497
-19.508
-24.283
-28.813
-33.089
-37.106
-40.858
-44.344
-47.56
-50.507
-53.185
-55.597
-57.745
-59.634
-61.268
-62.654
-63.797
-64.705
-65.386
-65.848
-66.1
-66.153
-66.016
-65.702
-65.221
-64.585
-63.808
-62.9
-61.876
-60.747
-59.526
-58.226
-56.858
-55.434
-53.965
-52.462
-50.935
-49.394
-47.846
-46.302
-44.767
-43.249
-41.756
-40.292
-38.863
-37.475
-36.132
-34.84
-33.602
-32.423
-31.306
-30.253
-29.267
-28.351
-27.504
-26.729
-26.025
-25.391
-24.827
-24.331
-23.902
-23.538
-23.236
-22.995
-22.811
-22.682
-22.605
-22.578
-22.598
-22.663
-22.77
-22.918
-23.105
-23.329
-23.588
-23.882
-24.207
-24.562
-24.944
-25.351
-25.78
-26.229
-26.694
-27.173
-27.663
-28.161
-28.665
-29.172
-29.679
-30.185
-30.686
-31.179
-31.662
-32.133
-32.587
-33.023
-33.437
-33.826
-34.189
-34.52
-34.817
-35.075
-35.29
-35.458
-35.574
-35.632
-35.628
-35.557
-35.415
-35.198
-34.903
-34.525
-34.063
-33.515
-32.877
-32.148
-31.326
-30.41
-29.4
-28.295
-27.096
-25.804
-24.421
-22.949
-21.393
-19.756
-18.043
-16.261
-14.414
-12.509
-10.556
-8.561
-6.536
-4.492
-2.439
-0.392
1.636
3.626
5.562
7.426
9.201
10.869
12.411
13.812
15.053
16.123
17.007
17.692
18.164
18.409
18.412
18.16
17.642
16.849
15.772
14.406
12.746
10.8
8.571
6.065
3.282
0.213
-3.15
-6.802
-10.735
-14.938
-19.385
-24.049
-28.889
-33.843
-38.85
-43.851
-48.788
-53.627
-58.324
-62.829
-67.08
-71.002
-74.519
-77.581
-80.147
-82.181
-83.691
-84.704
-85.288
-85.56
-85.622
-85.579
-85.553
-85.66
-86.025
-86.772
-87.999
-89.856
-92.568
-96.27
-100.957
-106.423
-112.24
-118
-123.332
-127.702
-130.462
-131.097
-129.425
-125.964
-121.682
-117.324
-113.716
-111.759
-112.057
-115.243
-120.263
-123.443
-122.499
-116.133
-104.304
-90.145
-70.719
-38.054
14.569
94.65
200.035
318.633
439.375
550.53
645.015
722.519
781.274
819.215
834.228
823.105
784.909
721.033
634.666
530.562
414.008
290.887
166.792
46.699
-64.324
-162.31
-244.518
-308.908
-355.166
-384.547
-398.648
-399.697
-390.61
-373.774
-351.95
-328.268
-304.655
-282.375
-262.288
-244.441
-228.879
-216.076
-205.563
-196.192
-187.094
-177.254
-166.212
-154.232
-141.181
-126.61
-110.668
-93.929
-77.259
-61.924
-48.612
-37.396
-28.437
-21.912
-17.833
-16.107
-16.331
-17.779
-19.93
-22.536
-25.432
-28.529
-31.687
-34.674
-37.282
-39.393
-40.936
-41.858
-42.107
-41.623
-40.369
-38.375
-35.724
-32.526
-28.886
-24.874
-20.524
-15.871
-10.976
-5.929
-0.846
4.15
8.986
13.616
18.001
22.121
25.961
29.529
32.867
36.036
39.084
42.047
44.948
47.8
50.636
53.496
56.428
59.482
62.695
66.087
69.679
73.484
77.504
81.737
86.164
90.755
95.487
100.337
105.286
110.315
115.4
120.511
125.62
130.696
135.708
140.626
145.418
150.053
154.5
158.732
162.721
166.443
169.875
172.989
175.762
178.169
180.187
181.796
182.977
183.713
183.988
183.791
183.115
181.954
180.307
178.174
175.558
172.467
168.909
164.899
160.449
155.58
150.31
144.663
138.661
132.333
125.706
118.808
111.672
104.329
96.811
89.152
81.384
73.542
65.66
57.769
49.904
42.097
34.378
26.78
19.33
12.058
4.99
-1.851
-8.442
-14.763
-20.797
-26.527
-31.942
-37.03
-41.785
-46.2
-50.273
-54.003
-57.392
-60.444
-63.165
-65.563
-67.647
-69.43
-70.924
-72.143
-73.103
-73.821
-74.313
-74.597
-74.693
-74.618
-74.394
-74.038
-73.571
-73.012
-72.38
-71.693
-70.97
-70.228
-69.483
-68.751
-68.044
-67.377
-66.76
-66.203
-65.715
-65.301
-64.967
-64.716
-64.55
-64.468
-64.47
-64.553
-64.714
-64.948
-65.248
-65.608
-66.022
-66.479
-66.973
-67.495
-68.034
-68.581
-69.128
-69.665
-70.182
-70.671
-71.123
-71.531
-71.885
-72.18
-72.407
-72.562
-72.64
-72.636
-72.546
-72.371
-72.107
-71.757
-71.321
-70.802
-70.204
-69.532
-68.791
-67.988
-67.13
-66.225
-65.281
-64.308
-63.314
-62.309
-61.303
-60.304
-59.323
-58.367
-57.444
-56.562
-55.727
-54.945
-54.221
-53.559
-52.962
-52.434
-51.976
-51.588
-51.272
-51.025
-50.846
-50.73
-50.674
-50.671
-50.715
-50.798
-50.911
-51.044
-51.189
-51.334
-51.469
-51.582
-51.66
-51.693
-51.666
-51.569
-51.39
-51.116
-50.738
-50.245
-49.63
-48.886
-48.008
-46.99
-45.83
-44.526
-43.078
-41.486
-39.753
-37.884
-35.883
-33.759
-31.52
-29.178
-26.745
-24.238
-21.674
-19.071
-16.446
-13.822
-11.224
-8.674
-6.198
-3.818
-1.555
0.57
2.531
4.307
5.874
7.213
8.309
9.143
9.696
9.953
9.897
9.521
8.833
7.839
6.54
4.932
3.001
0.74
-1.842
-4.74
-7.943
-11.441
-15.223
-19.255
-23.477
-27.826
-32.227
-36.637
-41.046
-45.431
-49.769
-53.991
-57.97
-61.616
-64.871
-67.69
-70.08
-71.998
-73.316
-74.107
-74.612
-75.075
-75.827
-76.958
-78.23
-79.634
-81.381
-83.473
-85.837
-88.22
-90.001
-91.014
-91.643
-91.96
-91.839
-91.259
-90.062
-88.431
-87.161
-86.795
-87.517
-89.693
-93.633
-99.346
-106.824
-115.7
-124.862
-132.679
-137.119
-135.812
-126.316
-106.793
-75.798
-31.895
25.673
96.371
178.512
269.275
364.727
461.157
554.866
641.08
714.923
772.31
809.718
824.948
817.526
787.185
734.363
661.394
571.568
468.859
358.347
244.899
132.579
25.723
-71.754
-156.989
-227.622
-282.385
-321.655
-346.38
-357.576
-356.728
-345.506
-325.962
-300.699
-272.04
-241.494
-210.231
-179.588
-151.178
-126.464
-106.063
-89.723
-76.813
-66.846
-59.485
-53.982
-48.898
-42.819
-34.989
-25.328
-14.304
-2.443
9.904
22.18
33.436
42.806
49.802
54.298
56.544
56.932
55.794
53.51
50.573
47.408
44.317
41.561
39.321
37.689
36.737
36.489
36.898
37.957
39.673
42.013
44.931
48.354
52.18
56.342
60.809
65.515
70.383
75.306
80.135
84.775
89.182
93.313
97.151
100.68
103.882
106.781
109.43
111.879
114.171
116.339
118.404
120.399
122.37
124.37
126.459
128.681
131.062
133.625
136.388
139.362
142.555
145.96
149.552
153.315
157.236
161.299
165.494
169.805
174.207
178.679
183.196
187.735
192.272
196.783
201.242
205.625
209.906
214.064
218.078
221.925
225.581
229.021
232.221
235.158
237.808
240.151
242.164
243.829
245.129
246.051
246.583
246.716
246.442
245.756
244.656
243.142
241.217
238.885
236.152
233.029
229.525
225.655
221.433
216.874
211.998
206.822
201.369
195.659
189.716
183.564
177.228
170.733
164.106
157.375
150.565
143.705
136.823
129.944
123.097
116.307
109.6
103
96.531
90.213
84.067
78.113
72.369
66.85
61.571
56.545
51.784
47.297
43.093
39.179
35.559
32.237
29.216
26.497
24.079
21.961
20.139
18.609
17.366
16.402
15.708
15.276
15.095
15.152
15.437
15.935
16.632
17.515
18.568
19.776
21.123
22.595
24.175
25.847
27.597
29.409
31.268
33.159
35.068
36.981
38.885
40.768
42.616
44.419
46.164
47.84
49.438
50.948
52.36
53.666
54.859
55.932
56.88
57.697
58.379
58.924
59.328
59.591
59.711
59.69
59.528
59.227
58.792
58.224
57.53
56.714
55.782
54.74
53.596
52.357
51.032
49.627
48.153
46.619
45.036
43.414
41.76
40.081
38.387
36.687
34.996
33.324
31.672
30.052
28.493
27.015
25.644
24.39
23.233
22.171
21.24
20.426
19.669
18.924
18.136
17.297
16.481
15.714
14.907
14.132
13.696
13.675
13.963
14.588
15.231
16.422
20.087
25.935
32.112
35.793
31.472
19.085
4.224
-7.675
-8.869
1.635
16.363
29.495
34.916
31.121
23.622
15.929
10.277
7.518
5.404
2.816
-0.152
-3.604
-7.231
-10.948
-15.071
-19.695
-24.733
-30.153
-35.954
-42.135
-48.703
-55.634
-62.857
-70.309
-78.02
-86.073
-94.464
-103.063
-111.588
-119.735
-127.415
-134.815
-142.175
-149.535
-156.961
-164.716
-173.39
-183.725
-196.005
-209.782
-224.235
-238.822
-253.161
-266.764
-278.798
-288.121
-294.103
-297.09
-298.068
-297.827
-296.858
-295.543
-294.385
-294.186
-295.407
-297.766
-300.484
-302.85
-304.396
-304.946
-304.467
-302.854
-300.319
-297.369
-294.457
-291.944
-290.034
-288.53
-287.105
-285.318
-282.074
-276.218
-267.287
-255.161
-240.167
-223.303
-205.44
-187.656
-172.255
-161.713
-157.606
-160.938
-171.493
-187.882
-208.976
-233.174
-257.103
-276.721
-288.19
-287.892
-273.859
-245.531
-202.046
-143.191
-70.633
12.762
103.136
195.664
286.384
372.15
449.018
513.038
561.237
591.239
601.725
593.1
565.885
520.397
458.252
381.817
293.728
197.618
97.479
-3.62
-102.496
-195.414
-279.455
-352.013
-410.667
-454.54
-483.932
-499.304
-501.804
-493.471
-476.139
-452.026
-424.06
-394.486
-364.932
-336.644
-310.165
-285.569
-263.213
-243.274
-225.111
-208.025
-191.284
-174.47
-157.808
-141.655
-126.074
-110.993
-96.688
-83.688
-72.766
-64.437
-58.684
-55.371
-54.355
-55.54
-58.746
-63.532
-69.212
-75.186
-81.054
-86.468
-91.181
-94.963
-97.592
-98.994
-99.205
-98.271
-96.254
-93.214
-89.208
-84.342
-78.752
-72.567
-65.941
-59.022
-51.961
-44.94
-38.111
-31.577
-25.412
-19.65
-14.303
-9.385
-4.885
-0.767
3.014
6.504
9.748
12.783
15.657
18.428
21.159
23.921
26.765
29.726
32.831
36.094
39.524
43.129
46.902
50.828
54.89
59.078
63.382
67.794
72.302
76.889
81.535
86.218
90.92
95.623
100.308
104.954
109.542
114.052
118.467
122.77
126.942
130.961
134.805
138.451
141.875
145.056
147.97
150.594
152.908
154.893
156.53
157.805
158.702
159.209
159.315
159.01
158.287
157.142
155.57
153.572
151.146
148.298
145.033
141.359
137.285
132.823
127.987
122.794
117.259
111.404
105.248
98.814
92.125
85.207
78.087
70.792
63.351
55.794
48.15
40.451
32.728
25.011
17.33
9.716
2.199
-5.194
-12.434
-19.493
-26.347
-32.972
-39.343
-45.439
-51.241
-56.731
-61.892
-66.711
-71.176
-75.276
-79.003
-82.351
-85.317
-87.897
-90.092
-91.904
-93.337
-94.396
-95.091
-95.43
-95.425
-95.091
-94.441
-93.492
-92.263
-90.773
-89.042
-87.09
-84.941
-82.615
-80.137
-77.529
-74.815
-72.017
-69.158
-66.26
-63.345
-60.435
-57.549
-54.706
-51.924
-49.221
-46.612
-44.112
-41.735
-39.492
-37.394
-35.451
-33.67
-32.059
-30.621
-29.361
-28.279
-27.378
-26.656
-26.111
-25.74
-25.537
-25.497
-25.613
-25.877
-26.281
-26.815
-27.468
-28.232
-29.095
-30.046
-31.074
-32.169
-33.319
-34.514
-35.744
-36.997
-38.264
-39.537
-40.804
-42.059
-43.293
-44.498
-45.667
-46.794
-47.872
-48.895
-49.859
-50.758
-51.589
-52.349
-53.034
-53.642
-54.172
-54.622
-54.992
-55.281
-55.49
-55.617
-55.664
-55.629
-55.514
-55.318
-55.041
-54.684
-54.247
-53.73
-53.134
-52.458
-51.703
-50.868
-49.954
-48.959
-47.885
-46.73
-45.496
-44.184
-42.795
-41.33
-39.79
-38.18
-36.501
-34.756
-32.95
-31.085
-29.166
-27.199
-25.188
-23.141
-21.063
-18.964
-16.853
-14.742
-12.647
-10.578
-8.552
-6.584
-4.688
-2.882
-1.179
0.409
1.87
3.191
4.359
5.358
6.171
6.785
7.186
7.363
7.303
6.999
6.445
5.646
4.605
3.324
1.797
0.008
-2.054
-4.393
-7.008
-9.894
-13.032
-16.398
-19.954
-23.639
-27.395
-31.17
-34.914
-38.597
-42.184
-45.627
-48.868
-51.836
-54.456
-56.678
-58.467
-59.8
-60.691
-61.184
-61.348
-61.29
-61.119
-60.948
-60.852
-60.907
-61.225
-61.917
-63.133
-65.092
-67.998
-71.899
-76.872
-82.831
-89.119
-95.15
-100.479
-104.169
-106.518
-108.148
-107.898
-106.106
-101.738
-93.253
-84.724
-78.917
-79.65
-91.215
-108.374
-125.407
-136.397
-133.705
-117.331
-87.868
-43.732
14.51
87.293
173.846
269.883
370.387
470.845
566.53
652.186
723.014
775.01
804.922
811.449
794.824
755.016
692.997
611.612
514.301
405.328
289.996
173.083
58.858
-47.652
-142.303
-222.414
-285.734
-331.526
-360.722
-374.624
-375.075
-365.153
-347.556
-324.436
-298.511
-271.637
-244.851
-219.361
-195.703
-173.549
-153
-134.372
-117.189
-101.294
-86.549
-72.156
-57.93
-44.157
-30.717
-17.493
-4.783
7.242
18.179
27.163
33.86
38.26
40.229
39.804
37.184
32.604
26.563
19.751
12.624
5.502
-1.285
-7.457
-12.765
-17.019
-20.174
-22.288
-23.4
-23.523
-22.683
-20.935
-18.38
-15.16
-11.41
-7.224
-2.701
2.049
6.891
11.659
16.23
20.539
24.55
28.246
31.617
34.651
37.361
39.8
42.021
44.072
45.999
47.83
49.604
51.371
53.184
55.106
57.18
59.429
61.871
64.517
67.374
70.447
73.728
77.192
80.82
84.599
88.514
92.553
96.7
100.932
105.225
109.556
113.901
118.24
122.548
126.803
130.98
135.059
139.018
142.839
146.501
149.981
153.256
156.304
159.101
161.629
163.866
165.793
167.392
168.648
169.548
170.08
170.235
170.004
169.381
168.363
166.948
165.136
162.93
160.336
157.36
154.014
150.307
146.254
141.869
137.17
132.173
126.901
121.372
115.609
109.637
103.478
97.158
90.704
84.141
77.496
70.796
64.067
57.336
50.629
43.972
37.39
30.906
24.545
18.328
12.277
6.412
0.751
-4.69
-9.894
-14.849
-19.543
-23.966
-28.108
-31.965
-35.531
-38.803
-41.779
-44.459
-46.845
-48.94
-50.749
-52.278
-53.534
-54.527
-55.265
-55.761
-56.026
-56.074
-55.918
-55.572
-55.052
-54.373
-53.553
-52.606
-51.551
-50.404
-49.181
-47.899
-46.575
-45.224
-43.86
-42.498
-41.152
-39.835
-38.557
-37.332
-36.168
-35.075
-34.062
-33.136
-32.302
-31.568
-30.936
-30.412
-29.996
-29.69
-29.496
-29.413
-29.44
-29.574
-29.813
-30.153
-30.589
-31.115
-31.726
-32.413
-33.169
-33.987
-34.857
-35.772
-36.722
-37.699
-38.693
-39.697
-40.701
-41.696
-42.675
-43.63
-44.552
-45.435
-46.271
-47.054
-47.778
-48.437
-49.025
-49.538
-49.97
-50.318
-50.578
-50.746
-50.82
-50.798
-50.679
-50.463
-50.15
-49.742
-49.24
-48.648
-47.967
-47.202
-46.357
-45.436
-44.443
-43.383
-42.263
-41.087
-39.861
-38.591
-37.284
-35.945
-34.581
-33.197
-31.799
-30.393
-28.984
-27.579
-26.184
-24.804
-23.446
-22.115
-20.82
-19.566
-18.363
-17.216
-16.127
-15.102
-14.146
-13.261
-12.454
-11.727
-11.083
-10.526
-10.067
-9.713
-9.474
-9.357
-9.364
-9.501
-9.769
-10.176
-10.733
-11.441
-12.303
-13.323
-14.506
-15.866
-17.416
-19.149
-21.068
-23.191
-25.516
-28.058
-30.822
-33.765
-36.864
-40.132
-43.512
-46.904
-50.24
-53.445
-56.497
-59.502
-62.535
-65.509
-68.487
-71.84
-75.659
-79.726
-83.994
-87.821
-91.308
-96.737
-104.123
-111.235
-114.811
-107.609
-87.883
-63.331
-43.192
-40.128
-60.461
-94.417
-129.048
-150.802
-149.381
-130.544
-105.545
-83.22
-72.221
-71.772
-75.124
-79.256
-81.687
-82.099
-83.458
-86.178
-88.783
-90.437
-90.175
-87.486
-83.102
-78.208
-73.63
-70.312
-69.576
-71.294
-73.842
-77.288
-81.354
-85.949
-93.58
-100.542
-98.669
-80.432
-35.697
36.883
128.477
230.297
331.689
426.446
515.834
599.162
673.546
734.882
777.363
797.693
795.812
773.104
731.16
671.571
597.065
510.976
417.005
318.983
219.5
120.417
24.011
-67.38
-151.74
-227.131
-292.143
-345.877
-387.233
-415.281
-429.459
-429.524
-416.262
-391.468
-357.353
-316.477
-271.551
-225.152
-180.265
-140.167
-106.941
-81.419
-63.635
-52.771
-47.763
-47.567
-50.316
-53.411
-55.116
-54.579
-51.51
-46.357
-39.609
-31.612
-23.304
-16.141
-11.012
-8.284
-7.954
-9.521
-12.556
-16.779
-21.64
-26.382
-30.463
-33.545
-35.49
-36.416
-36.398
-35.441
-33.618
-31.032
-27.803
-24.065
-19.919
-15.419
-10.635
-5.652
-0.586
4.413
9.222
13.77
18.015
21.947
25.559
28.84
31.798
34.466
36.889
39.119
41.198
43.158
45.037
46.883
48.758
50.732
52.86
55.175
57.704
60.46
63.456
66.704
70.203
73.94
77.9
82.072
86.444
91.011
95.759
100.667
105.71
110.863
116.098
121.393
126.718
132.046
137.348
142.594
147.757
152.811
157.728
162.478
167.029
171.349
175.409
179.179
182.63
185.732
188.46
190.79
192.699
194.171
195.187
195.733
195.798
195.372
194.45
193.026
191.101
188.676
185.756
182.35
178.469
174.126
169.339
164.127
158.512
152.518
146.172
139.501
132.536
125.307
117.846
110.186
102.363
94.41
86.362
78.255
70.123
62.001
53.923
45.922
38.029
30.275
22.688
15.295
8.123
1.195
-5.468
-11.844
-17.917
-23.669
-29.089
-34.165
-38.888
-43.254
-47.258
-50.9
-54.18
-57.103
-59.674
-61.899
-63.79
-65.355
-66.607
-67.561
-68.231
-68.634
-68.787
-68.708
-68.416
-67.929
-67.268
-66.451
-65.498
-64.429
-63.261
-62.014
-60.706
-59.355
-57.978
-56.591
-55.21
-53.849
-52.521
-51.239
-50.012
-48.85
-47.762
-46.754
-45.831
-44.998
-44.258
-43.613
-43.065
-42.614
-42.258
-41.997
-41.829
-41.75
-41.756
-41.845
-42.01
-42.249
-42.556
-42.926
-43.354
-43.835
-44.363
-44.933
-45.54
-46.179
-46.843
-47.529
-48.231
-48.945
-49.667
-50.394
-51.122
-51.848
-52.57
-53.287
-53.996
-54.695
-55.384
-56.061
-56.726
-57.377
-58.014
-58.637
-59.243
-59.833
-60.405
-60.958
-61.489
-61.998
-62.483
-62.939
-63.367
-63.763
-64.125
-64.45
-64.735
-64.977
-65.174
-65.322
-65.417
-65.456
-65.435
-65.35
-65.198
-64.975
-64.678
-64.304
-63.849
-63.312
-62.689
-61.979
-61.181
-60.292
-59.312
-58.243
-57.085
-55.84
-54.511
-53.103
-51.619
-50.066
-48.451
-46.781
-45.063
-43.306
-41.519
-39.713
-37.897
-36.084
-34.286
-32.518
-30.796
-29.137
-27.558
-26.077
-24.712
-23.48
-22.398
-21.481
-20.74
-20.187
-19.834
-19.692
-19.775
-20.096
-20.664
-21.487
-22.571
-23.92
-25.539
-27.425
-29.567
-31.955
-34.582
-37.449
-40.565
-43.937
-47.558
-51.418
-55.503
-59.788
-64.249
-68.841
-73.501
-78.165
-82.773
-87.273
-91.633
-95.81
-99.747
-103.374
-106.608
-109.376
-111.635
-113.36
-114.53
-115.153
-115.261
-114.922
-114.244
-113.35
-112.366
-111.402
-110.565
-109.981
-109.775
-110.143
-111.35
-113.541
-116.692
-120.645
-125.073
-129.583
-133.824
-137.278
-139.242
-139.319
-137.557
-134.401
-130.679
-127.492
-125.847
-126.467
-130.226
-136.464
-142.57
-147.181
-148.914
-147.28
-144.792
-138.188
-120.482
-85.447
-23.448
65.097
171.728
288.81
401.553
501.603
586.325
649.764
694.103
720.483
727.23
717.306
689.447
642.289
577.998
498.256
406.961
308.879
207.667
106.422
7.798
-85.216
-169.861
-243.994
-305.892
-354.809
-390.998
-414.848
-427.216
-429.832
-424.375
-412.407
-395.584
-375.057
-351.414
-325.257
-297.125
-267.255
-236.267
-205.144
-174.68
-145.898
-119.954
-97.634
-79.45
-65.697
-55.94
-49.242
-44.804
-41.712
-39.144
-36.633
-33.859
-30.732
-27.638
-25.217
-23.889
-23.935
-25.398
-28.072
-31.713
-35.968
-40.331
-44.199
-47.141
-48.91
-49.413
-48.701
-46.838
-43.883
-39.954
-35.232
-29.877
-24.027
-17.821
-11.351
-4.74
1.839
8.248
14.368
20.11
25.442
30.35
34.822
38.868
42.519
45.809
48.792
51.518
54.024
56.359
58.575
60.735
62.913
65.172
67.554
70.095
72.814
75.722
78.831
82.141
85.638
89.315
93.159
97.161
101.318
105.62
110.051
114.592
119.221
123.916
128.659
133.429
138.204
142.962
147.681
152.339
156.916
161.39
165.735
169.923
173.926
177.717
181.267
184.551
187.541
190.213
192.543
194.512
196.1
197.291
198.07
198.423
198.341
197.815
196.839
195.409
193.524
191.186
188.398
185.167
181.501
177.411
172.911
168.015
162.74
157.107
151.135
144.848
138.271
131.428
124.349
117.061
109.594
101.98
94.249
86.432
78.561
70.667
62.781
54.932
47.151
39.464
31.9
24.483
17.238
10.188
3.353
-3.246
-9.592
-15.669
-21.463
-26.962
-32.156
-37.036
-41.596
-45.831
-49.738
-53.317
-56.568
-59.493
-62.096
-64.382
-66.359
-68.035
-69.419
-70.523
-71.358
-71.938
-72.277
-72.39
-72.292
-71.999
-71.528
-70.895
-70.116
-69.208
-68.188
-67.071
-65.874
-64.611
-63.298
-61.949
-60.577
-59.195
-57.815
-56.446
-55.101
-53.787
-52.514
-51.288
-50.118
-49.008
-47.966
-46.995
-46.1
-45.285
-44.552
-43.903
-43.34
-42.864
-42.474
-42.171
-41.953
-41.82
-41.768
-41.795
-41.899
-42.076
-42.322
-42.634
-43.006
-43.436
-43.917
-44.445
-45.016
-45.625
-46.268
-46.94
-47.637
-48.355
-49.09
-49.838
-50.594
-51.356
-52.118
-52.877
-53.627
-54.365
-55.086
-55.786
-56.461
-57.105
-57.715
-58.285
-58.813
-59.294
-59.724
-60.099
-60.417
-60.674
-60.867
-60.994
-61.054
-61.043
-60.961
-60.806
-60.577
-60.275
-59.898
-59.446
-58.919
-58.317
-57.641
-56.891
-56.069
-55.175
-54.213
-53.182
-52.088
-50.934
-49.722
-48.458
-47.145
-45.789
-44.397
-42.973
-41.525
-40.06
-38.584
-37.106
-35.632
-34.173
-32.735
-31.328
-29.964
-28.652
-27.405
-26.234
-25.149
-24.162
-23.284
-22.525
-21.89
-21.387
-21.021
-20.798
-20.726
-20.812
-21.064
-21.484
-22.078
-22.846
-23.794
-24.919
-26.215
-27.671
-29.283
-31.05
-32.982
-35.087
-37.363
-39.806
-42.407
-45.149
-48.011
-50.963
-53.95
-56.922
-59.829
-62.629
-65.296
-67.801
-70.099
-72.136
-73.842
-75.153
-76.039
-76.475
-76.441
-75.955
-75.054
-73.818
-72.378
-70.845
-69.322
-67.923
-66.752
-65.929
-65.612
-65.935
-67.077
-69.282
-72.635
-77.071
-82.395
-88.153
-93.848
-99.06
-103.198
-105.539
-105.727
-103.877
-100.56
-96.93
-94.13
-92.812
-93.615
-97.345
-104.107
-112.976
-122.181
-128.68
-128.906
-120.169
-99.917
-66.041
-18.548
41.59
113.766
198.461
296.784
407.581
523.238
627.988
705.403
745.498
747.963
723.231
682.904
632.609
572.615
499.545
411.939
312.604
207.072
101.282
-0.686
-95.584
-180.704
-254.298
-314.646
-360.758
-392.891
-411.197
-415.833
-407.833
-388.877
-361.118
-327.17
-289.592
-250.412
-211.738
-176.042
-145.317
-120.599
-102.188
-89.632
-81.921
-78.17
-77.21
-77.177
-76.448
-74.125
-69.821
-63.76
-56.608
-48.858
-41.148
-34.541
-29.818
-27.331
-27.149
-28.893
-31.972
-35.933
-40.301
-44.487
-48.108
-50.912
-52.696
-53.463
-53.265
-52.119
-50.105
-47.328
-43.841
-39.725
-35.101
-30.076
-24.809
-19.466
-14.142
-8.917
-3.85
1.025
5.658
10.023
14.13
17.999
21.647
25.089
28.333
31.395
34.326
37.18
40.022
42.919
45.916
49.046
52.338
55.81
59.473
63.33
67.371
71.58
75.945
80.458
85.11
89.892
94.787
99.772
104.825
109.919
115.03
120.131
125.195
130.197
135.112
139.917
144.589
149.109
153.453
157.597
161.516
165.186
168.581
171.68
174.459
176.896
178.972
180.67
181.974
182.873
183.356
183.416
183.048
182.248
181.017
179.357
177.272
174.769
171.856
168.545
164.849
160.784
156.367
151.618
146.556
141.205
135.587
129.726
123.647
117.377
110.94
104.364
97.677
90.906
84.078
77.222
70.364
63.532
56.752
50.048
43.444
36.963
30.625
24.45
18.456
12.658
7.07
1.707
-3.423
-8.308
-12.941
-17.316
-21.429
-25.277
-28.857
-32.17
-35.216
-37.997
-40.518
-42.781
-44.791
-46.556
-48.08
-49.374
-50.444
-51.301
-51.954
-52.413
-52.691
-52.799
-52.748
-52.551
-52.218
-51.763
-51.196
-50.529
-49.774
-48.941
-48.04
-47.082
-46.077
-45.032
-43.958
-42.862
-41.752
-40.635
-39.518
-38.407
-37.309
-36.229
-35.173
-34.145
-33.15
-32.193
-31.276
-30.403
-29.577
-28.801
-28.074
-27.4
-26.779
-26.211
-25.697
-25.235
-24.827
-24.47
-24.165
-23.91
-23.705
-23.546
-23.433
-23.365
-23.339
-23.354
-23.406
-23.495
-23.617
-23.771
-23.953
-24.161
-24.393
-24.644
-24.914
-25.198
-25.494
-25.799
-26.11
-26.424
-26.739
-27.053
-27.362
-27.665
-27.959
-28.244
-28.516
-28.773
-29.014
-29.237
-29.438
-29.616
-29.769
-29.894
-29.989
-30.053
-30.082
-30.076
-30.034
-29.953
-29.833
-29.672
-29.469
-29.224
-28.935
-28.602
-28.222
-27.796
-27.323
-26.801
-26.23
-25.61
-24.94
-24.219
-23.446
-22.621
-21.744
-20.815
-19.835
-18.803
-17.721
-16.593
-15.42
-14.206
-12.955
-11.671
-10.359
-9.025
-7.674
-6.311
-4.942
-3.574
-2.213
-0.866
0.459
1.754
3.01
4.214
5.354
6.419
7.394
8.266
9.022
9.649
10.135
10.473
10.655
10.673
10.518
10.181
9.651
8.925
7.996
6.862
5.521
3.973
2.222
0.282
-1.838
-4.13
-6.593
-9.238
-12.074
-15.1
-18.313
-21.701
-25.245
-28.923
-32.697
-36.51
-40.303
-44.015
-47.593
-51.001
-54.194
-57.115
-59.697
-61.854
-63.506
-64.603
-65.106
-65.007
-64.323
-63.092
-61.38
-59.296
-56.971
-54.552
-52.186
-50.002
-48.145
-46.762
-46.054
-46.336
-47.776
-50.373
-54.004
-58.267
-62.685
-66.893
-70.36
-72.328
-72.453
-70.726
-67.385
-63.612
-60.819
-59.908
-61.858
-66.55
-72.055
-76.458
-78.437
-79.1
-81.134
-84.997
-86.79
-73.637
-30.994
48.625
165.268
302.61
437.953
555.974
645.032
706.137
748.422
775.792
791.29
793.454
775.922
735.892
673.087
590.148
493.011
387.114
277.409
167.921
61.95
-36.194
-122.73
-195.058
-251.395
-291.744
-317.432
-329.807
-330.815
-323.315
-309.813
-292.433
-273.015
-252.364
-230.666
-208.1
-184.661
-160.242
-135.23
-110.544
-87.188
-66.253
-48.796
-35.621
-27.177
-23.509
-23.989
-27.229
-31.849
-36.869
-41.49
-45.141
-47.549
-48.61
-48.665
-48.607
-49.119
-50.408
-52.507
-55.257
-58.44
-61.938
-65.45
-68.415
-70.45
-71.406
-71.254
-70.151
-68.245
-65.58
-62.266
-58.488
-54.412
-50.221
-46.066
-41.996
-38.054
-34.293
-30.752
-27.492
-24.547
-21.896
-19.513
-17.372
-15.445
-13.719
-12.169
-10.744
-9.389
-8.042
-6.637
-5.131
-3.488
-1.674
0.338
2.574
5.053
7.779
10.744
13.949
17.395
21.083
25.016
29.183
33.573
38.173
42.963
47.928
53.049
58.303
63.667
69.118
74.634
80.191
85.765
91.331
96.859
102.319
107.679
112.906
117.968
122.833
127.467
131.838
135.912
139.659
143.049
146.057
148.661
150.834
152.549
153.797
154.571
154.861
154.67
153.978
152.766
151.045
148.831
146.096
142.822
139.001
134.616
129.709
124.35
118.534
112.232
105.607
98.848
91.888
84.77
77.557
69.941
62.883
57.325
52.014
46.595
38.737
25.64
10.48
-4.618
-16.506
-20.871
-21.469
-21.478
-23.071
-29.854
-39.208
-48.48
-57.067
-63.347
-68.241
-72.935
-77.193
-81.162
-84.761
-87.745
-90.276
-92.485
-94.338
-95.835
-97
-97.845
-98.373
-98.598
-98.512
-98.109
-97.418
-96.473
-95.29
-93.893
-92.305
-90.545
-88.64
-86.616
-84.493
-82.292
-80.034
-77.739
-75.427
-73.118
-70.828
-68.576
-66.376
-64.244
-62.193
-60.234
-58.38
-56.639
-55.021
-53.532
-52.178
-50.963
-49.891
-48.964
-48.183
-47.547
-47.056
-46.707
-46.497
-46.421
-46.476
-46.654
-46.951
-47.359
-47.871
-48.481
-49.181
-49.964
-50.821
-51.746
-52.73
-53.766
-54.847
-55.964
-57.11
-58.278
-59.46
-60.65
-61.84
-63.022
-64.191
-65.34
-66.462
-67.552
-68.602
-69.608
-70.565
-71.467
-72.31
-73.089
-73.801
-74.441
-75.006
-75.492
-75.896
-76.216
-76.449
-76.591
-76.641
-76.597
-76.455
-76.215
-75.874
-75.431
-74.885
-74.234
-73.477
-72.614
-71.645
-70.568
-69.386
-68.099
-66.709
-65.218
-63.629
-61.944
-60.168
-58.303
-56.356
-54.329
-52.228
-50.059
-47.828
-45.541
-43.205
-40.829
-38.418
-35.983
-33.532
-31.074
-28.618
-26.176
-23.756
-21.371
-19.032
-16.75
-14.537
-12.407
-10.374
-8.454
-6.663
-5.015
-3.527
-2.215
-1.095
-0.18
0.517
0.988
1.223
1.214
0.952
0.429
-0.364
-1.433
-2.78
-4.408
-6.318
-8.508
-10.973
-13.698
-16.671
-19.881
-23.324
-27.006
-30.926
-35.078
-39.451
-44.027
-48.782
-53.691
-58.712
-63.787
-68.858
-73.866
-78.762
-83.511
-88.07
-92.384
-96.382
-99.975
-103.091
-105.67
-107.672
-109.069
-109.853
-110.036
-109.668
-108.83
-107.619
-106.15
-104.53
-102.878
-101.335
-100.028
-99.157
-98.993
-99.707
-101.355
-103.793
-106.621
-109.427
-111.868
-113.48
-113.709
-112.166
-108.711
-103.912
-99.01
-95.184
-93.393
-94.296
-98.236
-105.383
-115.331
-126.218
-134.95
-138.187
-132.562
-115.539
-85.314
-40.001
21.382
97.791
186.552
283.754
384.431
484.14
578.642
662.666
731.349
781.118
809.253
814.571
797.501
758.45
698.445
620.236
527.061
422.527
311.19
197.293
84.419
-23.468
-122.752
-210.686
-284.67
-342.948
-385.477
-412.831
-425.793
-425.731
-414.035
-392.53
-364.023
-331.248
-295.905
-259.465
-223.359
-189.1
-158.754
-133.572
-113.41
-97.79
-86.458
-78.974
-74.835
-72.959
-71.277
-68.444
-64.187
-58.511
-51.677
-44.008
-35.65
-27.24
-20.042
-14.778
-11.627
-10.51
-10.928
-12.472
-14.915
-17.783
-20.461
-22.536
-23.714
-23.893
-23.19
-21.666
-19.346
-16.312
-12.637
-8.429
-3.818
1.102
6.234
11.478
16.739
21.886
26.807
31.43
35.686
39.546
43.014
46.083
48.765
51.092
53.083
54.777
56.229
57.481
58.586
59.602
60.588
61.617
62.752
64.037
65.512
67.202
69.124
71.295
73.726
76.412
79.354
82.552
85.999
89.695
93.633
97.8
102.178
106.747
111.483
116.365
121.371
126.474
131.648
136.867
142.103
147.329
152.515
157.63
162.639
167.507
172.198
176.68
180.917
184.875
188.522
191.826
194.76
197.297
199.413
201.086
202.296
203.025
203.261
202.99
202.206
200.902
199.077
196.731
193.869
190.499
186.632
182.28
177.461
172.192
166.497
160.398
153.923
147.1
139.959
132.532
124.853
116.958
108.88
100.657
92.325
83.921
75.481
67.041
58.636
50.302
42.07
33.972
26.04
18.3
10.781
3.506
-3.501
-10.222
-16.637
-22.732
-28.493
-33.91
-38.973
-43.679
-48.021
-52.001
-55.618
-58.876
-61.781
-64.338
-66.558
-68.452
-70.031
-71.309
-72.3
-73.022
-73.49
-73.723
-73.738
-73.555
-73.192
-72.669
-72.005
-71.219
-70.33
-69.356
-68.315
-67.223
-66.096
-64.95
-63.798
-62.654
-61.529
-60.434
-59.379
-58.372
-57.421
-56.532
-55.71
-54.958
-54.28
-53.677
-53.152
-52.705
-52.334
-52.041
-51.823
-51.678
-51.605
-51.601
-51.662
-51.785
-51.966
-52.201
-52.487
-52.819
-53.193
-53.605
-54.052
-54.528
-55.032
-55.558
-56.104
-56.666
-57.242
-57.828
-58.423
-59.024
-59.63
-60.238
-60.847
-61.457
-62.066
-62.673
-63.276
-63.874
-64.466
-65.049
-65.623
-66.184
-66.73
-67.259
-67.769
-68.256
-68.717
-69.149
-69.547
-69.908
-70.229
-70.504
-70.73
-70.902
-71.017
-71.07
-71.058
-70.979
-70.827
-70.6
-70.294
-69.908
-69.437
-68.878
-68.229
-67.488
-66.651
-65.719
-64.69
-63.564
-62.341
-61.021
-59.607
-58.101
-56.506
-54.824
-53.06
-51.218
-49.305
-47.328
-45.294
-43.211
-41.088
-38.936
-36.764
-34.583
-32.405
-30.238
-28.094
-25.985
-23.92
-21.913
-19.974
-18.116
-16.353
-14.701
-13.175
-11.79
-10.561
-9.504
-8.631
-7.956
-7.489
-7.236
-7.203
-7.396
-7.824
-8.493
-9.408
-10.57
-11.979
-13.634
-15.532
-17.667
-20.027
-22.593
-25.351
-28.29
-31.407
-34.711
-38.203
-41.873
-45.71
-49.696
-53.812
-58.033
-62.318
-66.606
-70.836
-74.952
-78.91
-82.68
-86.213
-89.446
-92.306
-94.705
-96.576
-97.888
-98.614
-98.736
-98.266
-97.228
-95.667
-93.711
-91.493
-89.137
-86.79
-84.563
-82.575
-81.036
-80.227
-80.355
-81.465
-83.41
-85.852
-88.469
-90.963
-92.891
-93.642
-92.746
-90.182
-86.46
-82.513
-79.43
-78.242
-79.954
-85.558
-94.605
-104.841
-113.434
-117.891
-118.805
-118.701
-118.21
-113.502
-93.517
-45.678
38.147
157.581
299.053
443.198
570.367
665.611
725.375
753.752
759.898
752.011
732.754
700.977
652.018
583.759
498.657
400.988
296.788
191.101
86.625
-14.306
-109.111
-195.399
-270.962
-333.969
-383.4
-418.96
-440.379
-447.611
-441.428
-423.32
-395.32
-359.908
-319.75
-277.198
-234.668
-194.913
-160.113
-131.42
-109.269
-93.348
-82.644
-76.153
-72.582
-69.897
-66.425
-61.331
-54.196
-45.212
-35.047
-24.203
-13.422
-3.954
3.291
7.893
9.708
9.078
6.537
2.438
-2.715
-8.226
-13.562
-18.267
-22.035
-24.829
-26.651
-27.48
-27.343
-26.292
-24.385
-21.73
-18.437
-14.585
-10.25
-5.501
-0.454
4.797
10.184
15.6
20.983
26.281
31.382
36.246
40.945
45.375
49.25
52.561
55.445
57.914
60.338
62.131
61.466
58.831
55.99
55.861
63.817
79.484
97.552
112.702
117.369
111.178
101.259
93.1
92.661
100.893
112.433
124.015
133.362
139.801
145.482
151.346
157.295
163.372
169.216
174.715
180.133
185.526
190.815
195.98
201.006
205.849
210.467
214.802
218.775
222.341
225.498
228.228
230.504
232.307
233.619
234.425
234.72
234.497
233.746
232.462
230.644
228.293
225.415
222.02
218.117
213.722
208.851
203.525
197.764
191.593
185.039
178.131
170.897
163.37
155.581
147.564
139.352
130.982
122.486
113.9
105.259
96.595
87.943
79.335
70.803
62.376
54.084
45.955
38.014
30.285
22.791
15.551
8.586
1.91
-4.462
-10.518
-16.249
-21.647
-26.708
-31.427
-35.806
-39.845
-43.547
-46.919
-49.967
-52.699
-55.127
-57.262
-59.115
-60.701
-62.034
-63.128
-63.999
-64.663
-65.136
-65.434
-65.573
-65.571
-65.442
-65.204
-64.872
-64.461
-63.986
-63.462
-62.901
-62.317
-61.722
-61.126
-60.54
-59.972
-59.431
-58.923
-58.454
-58.029
-57.65
-57.319
-57.039
-56.808
-56.626
-56.492
-56.403
-56.357
-56.349
-56.378
-56.437
-56.525
-56.634
-56.762
-56.903
-57.053
-57.206
-57.359
-57.506
-57.645
-57.77
-57.879
-57.967
-58.033
-58.072
-58.084
-58.065
-58.015
-57.933
-57.818
-57.67
-57.492
-57.285
-57.05
-56.791
-56.511
-56.214
-55.904
-55.585
-55.262
-54.941
-54.625
-54.321
-54.033
-53.767
-53.526
-53.317
-53.142
-53.005
-52.91
-52.858
-52.853
-52.894
-52.983
-53.12
-53.306
-53.539
-53.819
-54.142
-54.507
-54.911
-55.35
-55.818
-56.31
-56.822
-57.345
-57.874
-58.403
-58.924
-59.429
-59.911
-60.362
-60.773
-61.138
-61.448
-61.696
-61.872
-61.972
-61.988
-61.916
-61.751
-61.489
-61.127
-60.665
-60.102
-59.439
-58.678
-57.819
-56.868
-55.83
-54.71
-53.516
-52.258
-50.946
-49.593
-48.213
-46.821
-45.434
-44.067
-42.736
-41.458
-40.249
-39.123
-38.093
-37.174
-36.379
-35.725
-35.229
-34.904
-34.764
-34.821
-35.085
-35.566
-36.269
-37.192
-38.33
-39.685
-41.258
-43.061
-45.102
-47.378
-49.882
-52.606
-55.528
-58.627
-61.866
-65.189
-68.545
-71.881
-75.155
-78.34
-81.402
-84.291
-86.95
-89.313
-91.324
-92.954
-94.171
-94.949
-95.299
-95.25
-94.874
-94.282
-93.554
-92.769
-92.017
-91.376
-90.955
-90.888
-91.276
-92.262
-94.044
-96.664
-100.042
-104.019
-108.179
-112.067
-115.317
-117.402
-117.7
-115.992
-112.483
-107.618
-102.353
-97.832
-94.645
-93.306
-94.768
-98.166
-101.696
-104.709
-104.66
-100.76
-93.595
-78.321
-50.849
-6.934
57.291
136.366
223.451
311.65
393.422
467.349
531.125
580.878
614.701
629.421
623.802
599.536
557.711
499.742
428.572
347.206
258.963
167.623
75.969
-13.993
-99.771
-178.425
-247.77
-306.053
-351.952
-385.237
-405.89
-414.089
-410.936
-398.368
-378.204
-352.376
-323.192
-292.532
-262.16
-233.486
-207.081
-183.087
-161.884
-143.791
-128.532
-115.581
-104.099
-93.509
-83.842
-75.25
-67.63
-60.686
-54.374
-48.991
-45.146
-43.213
-43.134
-44.685
-47.595
-51.709
-56.804
-62.434
-68.006
-73.03
-77.201
-80.33
-82.34
-83.142
-82.66
-80.927
-78.046
-74.148
-69.363
-63.813
-57.626
-50.96
-44.005
-36.95
-29.937
-23.072
-16.438
-10.111
-4.145
1.428
6.608
11.413
15.86
19.967
23.762
27.284
30.585
33.723
36.764
39.775
42.811
45.913
49.111
52.428
55.877
59.468
63.199
67.06
71.047
75.16
79.395
83.751
88.219
92.79
97.451
102.187
106.983
111.824
116.696
121.585
126.476
131.356
136.209
141.023
145.782
150.467
155.057
159.531
163.867
168.044
172.041
175.835
179.407
182.737
185.806
188.597
191.093
193.28
195.141
196.664
197.836
198.647
199.087
199.147
198.823
198.109
197.002
195.502
193.609
191.326
188.658
185.612
182.196
178.42
174.298
169.843
165.071
159.999
154.646
149.032
143.177
137.103
130.831
124.386
117.789
111.064
104.235
97.324
90.354
83.35
76.333
69.327
62.353
55.432
48.586
41.835
35.199
28.697
22.346
16.164
10.167
4.37
-1.215
-6.576
-11.702
-16.584
-21.215
-25.589
-29.702
-33.552
-37.135
-40.453
-43.506
-46.295
-48.824
-51.097
-53.118
-54.893
-56.429
-57.733
-58.812
-59.676
-60.334
-60.795
-61.07
-61.168
-61.103
-60.884
-60.525
-60.037
-59.434
-58.728
-57.931
-57.057
-56.118
-55.125
-54.09
-53.025
-51.94
-50.845
-49.75
-48.663
-47.593
-46.549
-45.536
-44.563
-43.637
-42.761
-41.944
-41.188
-40.5
-39.883
-39.341
-38.878
-38.496
-38.196
-37.982
-37.852
-37.808
-37.849
-37.974
-38.179
-38.463
-38.823
-39.254
-39.752
-40.312
-40.929
-41.598
-42.314
-43.07
-43.86
-44.679
-45.519
-46.374
-47.238
-48.104
-48.965
-49.814
-50.643
-51.446
-52.214
-52.941
-53.618
-54.238
-54.792
-55.274
-55.676
-55.992
-56.215
-56.339
-56.359
-56.272
-56.072
-55.758
-55.327
-54.777
-54.107
-53.316
-52.405
-51.373
-50.221
-48.952
-47.568
-46.071
-44.465
-42.755
-40.944
-39.038
-37.044
-34.967
-32.814
-30.594
-28.314
-25.985
-23.617
-21.221
-18.807
-16.387
-13.974
-11.58
-9.217
-6.898
-4.634
-2.436
-0.317
1.712
3.64
5.456
7.147
8.701
10.105
11.344
12.406
13.279
13.95
14.408
14.642
14.647
14.417
13.949
13.24
12.285
11.081
9.627
7.925
5.976
3.786
1.359
-1.299
-4.176
-7.253
-10.515
-13.953
-17.564
-21.352
-25.315
-29.441
-33.715
-38.12
-42.634
-47.232
-51.865
-56.471
-60.982
-65.338
-69.491
-73.402
-77.017
-80.27
-83.086
-85.382
-87.106
-88.234
-88.755
-88.654
-87.949
-86.676
-84.905
-82.788
-80.489
-78.143
-75.894
-73.865
-72.18
-71.055
-70.78
-71.511
-73.243
-75.837
-79.021
-82.565
-86.294
-89.822
-92.527
-93.933
-93.923
-92.773
-91.032
-89.344
-88.304
-88.239
-89.814
-92.576
-94.22
-93.861
-91.036
-86.592
-84.258
-81.592
-70.842
-43.778
9.803
89.732
185.634
287.819
385.028
472.511
552.673
623.886
683.68
728.793
753.493
755.647
735.81
693.859
631.22
551.19
457.097
353.437
245.684
137.659
32.669
-64.927
-151.691
-225.201
-283.305
-325.807
-354.034
-368.585
-370.42
-361.654
-344.086
-320.014
-292.293
-262.496
-231.494
-200.798
-171.808
-145.462
-122.88
-104.292
-89.116
-77.24
-68.566
-62.381
-57.721
-53.651
-49.159
-43.869
-38.027
-31.793
-25.396
-19.368
-14.404
-11.081
-9.862
-10.854
-13.733
-18.103
-23.546
-29.524
-35.471
-40.969
-45.681
-49.379
-52.021
-53.596
-54.109
-53.636
-52.271
-50.082
-47.159
-43.597
-39.5
-35.013
-30.286
-25.46
-20.65
-15.934
-11.373
-7.021
-2.909
0.959
4.591
8.012
11.247
14.313
17.238
20.061
22.831
25.61
28.457
31.437
34.599
37.978
41.6
45.481
49.628
54.038
58.702
63.602
68.727
74.069
79.617
85.358
91.266
97.318
103.493
109.759
116.071
122.371
128.601
134.723
140.724
146.587
152.269
157.743
163.035
168.198
173.286
178.295
183.137
187.726
192.07
196.09
199.471
201.961
203.486
204.087
204.08
202.837
198.571
190.617
180.071
171.334
170.843
181.117
198.909
215.02
218.79
205.888
180.134
151.816
130.947
121.473
121.068
123.205
122.745
118.158
110.304
101.414
92.646
83.913
75.051
65.896
56.577
47.409
38.503
29.859
21.518
13.516
5.865
-1.446
-8.453
-15.177
-21.599
-27.678
-33.393
-38.733
-43.689
-48.254
-52.416
-56.167
-59.509
-62.447
-64.988
-67.142
-68.917
-70.326
-71.383
-72.106
-72.512
-72.621
-72.455
-72.034
-71.382
-70.522
-69.476
-68.267
-66.919
-65.453
-63.893
-62.259
-60.572
-58.852
-57.119
-55.391
-53.684
-52.015
-50.4
-48.851
-47.383
-46.005
-44.729
-43.562
-42.513
-41.587
-40.789
-40.122
-39.588
-39.186
-38.916
-38.775
-38.761
-38.867
-39.091
-39.424
-39.862
-40.397
-41.022
-41.731
-42.517
-43.372
-44.289
-45.262
-46.284
-47.349
-48.449
-49.58
-50.736
-51.91
-53.099
-54.296
-55.497
-56.697
-57.893
-59.079
-60.251
-61.407
-62.543
-63.657
-64.745
-65.806
-66.838
-67.84
-68.811
-69.75
-70.657
-71.53
-72.369
-73.172
-73.938
-74.665
-75.352
-75.995
-76.592
-77.14
-77.634
-78.073
-78.45
-78.761
-79.002
-79.17
-79.258
-79.262
-79.178
-79.002
-78.729
-78.357
-77.881
-77.298
-76.604
-75.797
-74.873
-73.831
-72.669
-71.384
-69.976
-68.443
-66.786
-65.006
-63.104
-61.081
-58.941
-56.687
-54.325
-51.861
-49.302
-46.656
-43.932
-41.143
-38.298
-35.411
-32.494
-29.561
-26.626
-23.704
-20.81
-17.959
-15.169
-12.457
-9.843
-7.347
-4.989
-2.788
-0.766
1.061
2.673
4.056
5.196
6.082
6.7
7.038
7.081
6.82
6.247
5.357
4.145
2.61
0.75
-1.427
-3.908
-6.683
-9.744
-13.095
-16.741
-20.683
-24.908
-29.396
-34.13
-39.087
-44.237
-49.538
-54.922
-60.323
-65.682
-70.948
-76.081
-81.03
-85.716
-90.046
-93.927
-97.279
-100.067
-102.277
-103.873
-104.842
-105.195
-104.964
-104.267
-103.245
-102.013
-100.697
-99.425
-98.305
-97.558
-97.494
-98.29
-99.995
-102.436
-105.174
-107.879
-110.384
-112.38
-113.443
-113.264
-111.705
-109.286
-107.247
-106.588
-107.781
-111
-116.092
-122.716
-130.424
-137.687
-141.656
-139.475
-128.831
-108.122
-76.647
-33.919
20.751
86.848
162.106
243.587
328.013
412.309
494.138
570.779
638.412
693.564
733.793
757.248
762.919
749.995
717.197
664.135
593.043
508.001
413.17
312.074
204.933
90.393
-28.605
-144.456
-244.786
-316.656
-355.558
-366.107
-358.319
-343.569
-327.036
-308.015
-286.951
-264.224
-243.214
-229.332
-221.151
-216.269
-211.44
-201.833
-188.529
-172.962
-155.665
-138.633
-121.472
-103.799
-86.612
-70.406
-55.961
-44.173
-35.151
-28.767
-24.927
-23.31
-23.598
-25.54
-28.792
-32.991
-37.801
-42.889
-47.958
-52.774
-57.14
-60.895
-63.896
-66.002
-67.135
-67.269
-66.408
-64.595
-61.884
-58.331
-54.034
-49.11
-43.706
-37.984
-32.094
-26.176
-20.34
-14.663
-9.211
-4.04
0.822
5.368
9.606
13.563
17.265
20.734
24.002
27.113
30.119
33.081
36.059
39.117
42.303
45.653
49.195
52.95
56.929
61.137
65.569
70.212
75.055
80.092
85.31
90.698
96.238
101.909
107.685
113.541
119.447
125.377
131.302
137.194
143.025
148.766
154.392
159.876
165.191
170.307
175.196
179.827
184.171
188.2
191.887
195.205
198.129
200.639
202.714
204.337
205.495
206.174
206.365
206.061
205.258
203.955
202.152
199.853
197.066
193.801
190.069
185.887
181.271
176.244
170.826
165.042
158.918
152.481
145.76
138.784
131.584
124.191
116.636
108.95
101.165
93.313
85.424
77.53
69.66
61.843
54.107
46.479
38.984
31.645
24.485
17.524
10.781
4.272
-1.987
-7.982
-13.704
-19.142
-24.289
-29.14
-33.69
-37.94
-41.888
-45.537
-48.891
-51.953
-54.73
-57.229
-59.457
-61.423
-63.136
-64.607
-65.845
-66.862
-67.67
-68.279
-68.703
-68.954
-69.044
-68.987
-68.795
-68.48
-68.055
-67.533
-66.926
-66.245
-65.503
-64.709
-63.876
-63.012
-62.128
-61.232
-60.333
-59.437
-58.552
-57.684
-56.838
-56.02
-55.234
-54.484
-53.776
-53.113
-52.499
-51.937
-51.43
-50.983
-50.597
-50.274
-50.018
-49.829
-49.708
-49.658
-49.678
-49.769
-49.929
-50.159
-50.457
-50.821
-51.249
-51.739
-52.288
-52.893
-53.55
-54.258
-55.011
-55.808
-56.643
-57.514
-58.415
-59.344
-60.296
-61.265
-62.247
-63.236
-64.227
-65.214
-66.19
-67.148
-68.082
-68.984
-69.847
-70.664
-71.427
-72.13
-72.765
-73.327
-73.808
-74.205
-74.51
-74.72
-74.83
-74.835
-74.733
-74.52
-74.192
-73.746
-73.182
-72.497
-71.691
-70.763
-69.712
-68.539
-67.246
-65.834
-64.306
-62.663
-60.911
-59.053
-57.096
-55.048
-52.915
-50.705
-48.429
-46.098
-43.721
-41.312
-38.88
-36.438
-33.998
-31.573
-29.175
-26.818
-24.515
-22.282
-20.135
-18.091
-16.167
-14.379
-12.744
-11.277
-9.993
-8.906
-8.025
-7.361
-6.922
-6.72
-6.765
-7.066
-7.626
-8.451
-9.543
-10.901
-12.525
-14.409
-16.538
-18.902
-21.491
-24.303
-27.344
-30.612
-34.097
-37.783
-41.655
-45.692
-49.871
-54.155
-58.485
-62.803
-67.055
-71.193
-75.182
-78.977
-82.511
-85.71
-88.494
-90.793
-92.574
-93.819
-94.493
-94.588
-94.115
-93.107
-91.67
-89.932
-87.999
-85.996
-84.054
-82.282
-80.873
-80.089
-80.084
-80.931
-82.535
-84.57
-86.774
-88.977
-90.856
-91.977
-92.033
-90.826
-88.641
-86.425
-84.938
-84.673
-86.115
-89.529
-94.943
-102.213
-110.279
-116.788
-119.399
-115.966
-104.183
-82.194
-48.356
-0.961
59.365
129.152
205.469
285.986
370.822
462.595
559.064
651.606
726.842
770.733
776.849
749.051
698.405
635.905
567.399
493.352
410.523
317.55
217.189
113.725
12.205
-83.07
-169.75
-246.171
-310.639
-361.96
-399.897
-424.408
-435.858
-435.423
-424.319
-404.143
-377.282
-346.177
-312.618
-278.458
-245.55
-215.152
-188.443
-166.095
-147.791
-132.821
-120.674
-110.507
-101.186
-91.928
-81.934
-70.794
-58.82
-46.526
-34.362
-22.958
-13.078
-5.222
0.178
2.952
3.343
1.714
-1.52
-5.879
-10.845
-16.015
-21.034
-25.571
-29.421
-32.453
-34.592
-35.845
-36.258
-35.852
-34.645
-32.702
-30.089
-26.902
-23.258
-19.23
-14.879
-10.288
-5.553
-0.799
3.83
8.251
12.42
16.31
19.91
23.215
26.227
28.983
31.544
33.96
36.282
38.545
40.774
43.008
45.296
47.69
50.247
53.005
55.986
59.208
62.683
66.413
70.398
74.621
79.055
83.677
88.465
93.401
98.465
103.634
108.877
114.166
119.469
124.755
129.994
135.155
140.205
145.113
149.85
154.389
158.705
162.771
166.559
170.045
173.2
176.003
178.43
180.461
182.077
183.262
184.003
184.291
184.119
183.481
182.377
180.808
178.777
176.292
173.362
169.998
166.217
162.036
157.474
152.554
147.298
141.732
135.884
129.78
123.451
116.926
110.236
103.411
96.482
89.48
82.437
75.381
68.342
61.349
54.429
47.608
40.91
34.358
27.973
21.774
15.779
10.002
4.458
-0.843
-5.892
-10.68
-15.204
-19.459
-23.445
-27.162
-30.613
-33.802
-36.733
-39.415
-41.856
-44.063
-46.048
-47.822
-49.394
-50.779
-51.987
-53.031
-53.924
-54.678
-55.306
-55.82
-56.231
-56.551
-56.79
-56.957
-57.063
-57.115
-57.122
-57.09
-57.026
-56.935
-56.823
-56.694
-56.55
-56.394
-56.229
-56.055
-55.872
-55.682
-55.482
-55.273
-55.054
-54.823
-54.58
-54.323
-54.051
-53.763
-53.459
-53.138
-52.8
-52.444
-52.072
-51.683
-51.279
-50.862
-50.433
-49.994
-49.548
-49.098
-48.647
-48.198
-47.754
-47.319
-46.896
-46.488
-46.1
-45.733
-45.392
-45.08
-44.799
-44.552
-44.342
-44.171
-44.04
-43.949
-43.899
-43.889
-43.918
-43.985
-44.085
-44.216
-44.374
-44.555
-44.754
-44.966
-45.184
-45.403
-45.616
-45.814
-45.992
-46.142
-46.255
-46.323
-46.339
-46.295
-46.185
-46.001
-45.738
-45.388
-44.948
-44.411
-43.774
-43.033
-42.184
-41.225
-40.156
-38.976
-37.686
-36.29
-34.791
-33.193
-31.504
-29.729
-27.877
-25.956
-23.978
-21.951
-19.888
-17.801
-15.704
-13.61
-11.534
-9.494
-7.509
-5.596
-3.777
-2.068
-0.49
0.939
2.201
3.279
4.161
4.835
5.287
5.506
5.476
5.186
4.627
3.792
2.676
1.277
-0.409
-2.376
-4.612
-7.108
-9.854
-12.849
-16.101
-19.613
-23.377
-27.383
-31.613
-36.04
-40.64
-45.371
-50.172
-54.986
-59.754
-64.427
-68.973
-73.347
-77.493
-81.346
-84.818
-87.838
-90.356
-92.336
-93.761
-94.637
-94.984
-94.863
-94.361
-93.584
-92.652
-91.686
-90.81
-90.16
-89.856
-90.072
-91.067
-92.979
-95.804
-99.361
-103.208
-106.902
-110.111
-112.373
-113.103
-111.964
-108.928
-104.547
-100.022
-96.499
-94.776
-95.504
-99.184
-105.862
-114.901
-124.5
-131.695
-133.231
-126.18
-108.094
-76.663
-30.16
31.992
108.841
197.482
293.668
392.937
490.689
581.343
659.262
719.348
757.146
770.433
758.781
722.065
661.323
579.611
480.95
370.609
255.014
139.263
27.759
-74.532
-163.727
-237.133
-292.7
-330.54
-352.658
-360.755
-356.927
-344.105
-324.766
-301.795
-278.506
-256.747
-237.026
-219.691
-204.648
-191.744
-181.206
-172.342
-163.549
-153.78
-142.789
-130.563
-117.506
-103.797
-88.827
-73.782
-60.545
-48.954
-39.383
-29.625
-16.649
-3.608
7.167
12.393
7.976
-1.556
-12.3
-21.584
-25.46
-26.535
-27.316
-28.121
-30.403
-33.057
-34.798
-35.87
-36.081
-35.459
-34.232
-32.257
-29.475
-26.055
-22.116
-17.729
-12.983
-7.956
-2.759
2.449
7.532
12.416
17.06
21.449
25.564
29.388
32.919
36.184
39.224
42.09
44.826
47.456
50.016
52.54
55.075
57.683
60.407
63.275
66.306
69.511
72.896
76.47
80.227
84.149
88.22
92.42
96.734
101.152
105.657
110.228
114.842
119.473
124.098
128.695
133.241
137.712
142.085
146.336
150.443
154.387
158.146
161.698
165.018
168.085
170.875
173.368
175.545
177.384
178.869
179.985
180.72
181.063
181.007
180.546
179.676
178.396
176.708
174.615
172.123
169.24
165.975
162.341
158.351
154.019
149.364
144.403
139.156
133.644
127.889
121.917
115.75
109.415
102.937
96.344
89.662
82.918
76.139
69.351
62.58
55.854
49.195
42.628
36.176
29.858
23.695
17.704
11.901
6.3
0.913
-4.248
-9.175
-13.859
-18.296
-22.478
-26.405
-30.073
-33.482
-36.633
-39.528
-42.171
-44.566
-46.72
-48.638
-50.33
-51.803
-53.069
-54.137
-55.017
-55.723
-56.266
-56.659
-56.914
-57.044
-57.061
-56.979
-56.809
-56.563
-56.251
-55.884
-55.472
-55.024
-54.549
-54.054
-53.546
-53.034
-52.522
-52.018
-51.526
-51.053
-50.602
-50.178
-49.784
-49.425
-49.103
-48.821
-48.582
-48.386
-48.235
-48.131
-48.075
-48.065
-48.103
-48.187
-48.317
-48.492
-48.71
-48.971
-49.273
-49.614
-49.993
-50.408
-50.859
-51.343
-51.86
-52.407
-52.984
-53.587
-54.217
-54.869
-55.541
-56.23
-56.933
-57.646
-58.365
-59.085
-59.801
-60.508
-61.2
-61.872
-62.519
-63.133
-63.71
-64.242
-64.724
-65.15
-65.514
-65.812
-66.038
-66.187
-66.255
-66.236
-66.128
-65.925
-65.624
-65.221
-64.713
-64.097
-63.37
-62.532
-61.582
-60.519
-59.344
-58.058
-56.666
-55.169
-53.572
-51.881
-50.1
-48.239
-46.306
-44.31
-42.26
-40.168
-38.045
-35.905
-33.76
-31.622
-29.505
-27.422
-25.386
-23.411
-21.511
-19.698
-17.99
-16.402
-14.951
-13.654
-12.526
-11.585
-10.844
-10.319
-10.021
-9.958
-10.139
-10.57
-11.258
-12.211
-13.435
-14.932
-16.702
-18.745
-21.057
-23.638
-26.477
-29.558
-32.866
-36.387
-40.114
-44.05
-48.192
-52.526
-57.034
-61.697
-66.488
-71.378
-76.326
-81.267
-86.136
-90.871
-95.414
-99.729
-103.768
-107.467
-110.756
-113.549
-115.78
-117.415
-118.436
-118.825
-118.588
-117.757
-116.398
-114.624
-112.57
-110.365
-108.136
-106.024
-104.179
-102.736
-101.888
-101.87
-102.801
-104.695
-107.408
-110.58
-113.88
-117.083
-119.806
-121.534
-121.898
-120.663
-118.11
-115.118
-112.394
-110.234
-108.785
-108.323
-109.025
-110.782
-112.729
-111.69
-104.485
-90.199
-67.559
-37.868
-2.402
43.463
101.591
173.671
261.41
356.841
453.182
544.61
622.169
683.676
727.81
751.608
755.347
738.193
698.551
637.458
557.704
462.872
357.906
248.324
138.108
30.893
-68.798
-157.481
-232.609
-292.018
-335.718
-365.155
-381.11
-384.785
-378.2
-363.005
-341.546
-316.599
-289.428
-260.703
-231.588
-203.142
-176.646
-153.587
-134.251
-118.184
-105.5
-96.229
-90.044
-86.375
-83.814
-80.816
-76.813
-71.791
-65.756
-58.944
-51.591
-44.084
-37.442
-32.566
-29.764
-29.059
-30.179
-32.667
-36.217
-40.438
-44.683
-48.484
-51.545
-53.641
-54.779
-55.01
-54.312
-52.736
-50.363
-47.236
-43.445
-39.084
-34.21
-28.933
-23.364
-17.602
-11.792
-6.039
-0.414
5.006
10.186
15.119
19.783
24.182
28.336
32.252
35.959
39.494
42.885
46.17
49.396
52.607
55.863
59.211
62.678
66.289
70.054
73.976
78.061
82.304
86.689
91.205
95.839
100.576
105.406
110.314
115.278
120.276
125.283
130.271
135.218
140.101
144.896
149.579
154.127
158.517
162.729
166.742
170.532
174.075
177.349
180.328
182.994
185.324
187.298
188.898
190.109
190.916
191.308
191.277
190.813
189.911
188.568
186.781
184.553
181.885
178.784
175.256
171.312
166.964
162.226
157.116
151.65
145.85
139.736
133.332
126.663
119.753
112.629
105.318
97.849
90.25
82.55
74.777
66.961
59.129
51.309
43.529
35.815
28.191
20.683
13.314
6.106
-0.921
-7.746
-14.351
-20.72
-26.837
-32.689
-38.263
-43.551
-48.542
-53.23
-57.61
-61.678
-65.435
-68.88
-72.013
-74.836
-77.352
-79.567
-81.488
-83.126
-84.487
-85.575
-86.411
-87.013
-87.4
-87.595
-87.601
-87.412
-87.056
-86.562
-85.907
-85.079
-84.069
-82.858
-81.487
-80.023
-78.448
-76.719
-74.992
-73.447
-71.994
-70.652
-69.461
-68.068
-67.462
-68.607
-70.144
-71.663
-70.659
-64.133
-55.413
-46.717
-41.348
-43.839
-50.182
-56.978
-61.897
-61.09
-57.308
-53.337
-49.796
-48.382
-48.106
-47.693
-47.384
-47.011
-46.655
-46.57
-46.581
-46.55
-46.516
-46.483
-46.431
-46.358
-46.268
-46.162
-46.058
-45.982
-45.916
-45.845
-45.77
-45.685
-45.587
-45.476
-45.343
-45.183
-44.993
-44.773
-44.519
-44.23
-43.902
-43.534
-43.123
-42.667
-42.166
-41.617
-41.019
-40.371
-39.671
-38.918
-38.112
-37.253
-36.34
-35.375
-34.359
-33.292
-32.176
-31.012
-29.804
-28.552
-27.26
-25.93
-24.565
-23.169
-21.746
-20.301
-18.838
-17.363
-15.881
-14.398
-12.921
-11.455
-10.007
-8.583
-7.191
-5.837
-4.531
-3.279
-2.094
-0.986
0.032
0.949
1.753
2.43
2.971
3.363
3.596
3.666
3.565
3.286
2.821
2.162
1.3
0.23
-1.053
-2.552
-4.269
-6.205
-8.356
-10.71
-13.258
-15.991
-18.911
-22.027
-25.345
-28.86
-32.565
-36.443
-40.476
-44.64
-48.897
-53.189
-57.46
-61.651
-65.718
-69.636
-73.365
-76.86
-80.055
-82.864
-85.218
-87.071
-88.39
-89.158
-89.374
-89.056
-88.266
-87.102
-85.68
-84.129
-82.559
-81.078
-79.81
-78.866
-78.437
-78.779
-80.051
-82.301
-85.393
-88.963
-92.652
-96.165
-99.056
-100.766
-100.865
-99.118
-95.949
-92.428
-89.529
-88.05
-88.551
-91.314
-96.556
-104.108
-112.471
-119.01
-120.828
-114.908
-98.948
-71.307
-30.108
25.958
96.429
179.362
271.548
368.575
466.369
560.874
646.861
719.14
773.562
806.787
817.019
804.163
768.343
710.652
634.081
542.424
439.867
331.103
220.509
111.946
9.386
-83.977
-166.222
-236.186
-293.256
-337.352
-369.112
-389.7
-400.557
-402.976
-397.726
-385.181
-366.264
-342.418
-314.401
-282.817
-248.808
-213.616
-179.187
-148.208
-120.913
-96.694
-77.308
-63.093
-56.079
-58.417
-64.931
-71.428
-73.632
-66.618
-54.255
-40.208
-27.098
-19.305
-15.216
-12.981
-12.355
-11.672
-11.591
-12.91
-15.031
-17.676
-20.168
-21.821
-22.53
-22.297
-21.152
-19.173
-16.431
-13.017
-9.033
-4.572
0.276
5.42
10.744
16.115
21.407
26.522
31.383
35.936
40.135
43.951
47.388
50.46
53.198
55.632
57.789
59.699
61.407
62.97
64.451
65.918
67.444
69.085
70.888
72.89
75.12
77.595
80.323
83.306
86.536
90.006
93.713
97.648
101.803
106.163
110.708
115.415
120.259
125.211
130.244
135.328
140.435
145.537
150.606
155.612
160.529
165.326
169.973
174.436
178.683
182.68
186.397
189.802
192.865
195.558
197.856
199.737
201.181
202.172
202.694
202.737
202.292
201.354
199.92
197.992
195.574
192.672
189.296
185.458
181.176
176.466
171.349
165.846
159.983
153.784
147.277
140.491
133.454
126.198
118.755
111.156
103.435
95.624
87.757
79.866
71.983
64.14
56.366
48.69
41.139
33.739
26.513
19.484
12.671
6.091
-0.24
-6.308
-12.103
-17.616
-22.839
-27.767
-32.398
-36.731
-40.765
-44.503
-47.947
-51.104
-53.977
-56.575
-58.906
-60.979
-62.803
-64.391
-65.753
-66.902
-67.85
-68.612
-69.201
-69.63
-69.913
-70.065
-70.099
-70.029
-69.867
-69.627
-69.32
-68.958
-68.55
-68.107
-67.637
-67.148
-66.646
-66.139
-65.632
-65.129
-64.636
-64.157
-63.694
-63.252
-62.832
-62.437
-62.07
-61.731
-61.423
-61.147
-60.903
-60.693
-60.516
-60.374
-60.266
-60.192
-60.15
-60.141
-60.162
-60.212
-60.29
-60.394
-60.523
-60.674
-60.847
-61.041
-61.254
-61.487
-61.737
-62.005
-62.289
-62.589
-62.903
-63.232
-63.573
-63.926
-64.289
-64.66
-65.038
-65.42
-65.804
-66.187
-66.565
-66.936
-67.295
-67.638
-67.961
-68.261
-68.534
-68.776
-68.984
-69.155
-69.286
-69.373
-69.415
-69.407
-69.347
-69.233
-69.059
-68.825
-68.526
-68.161
-67.727
-67.222
-66.645
-65.993
-65.267
-64.466
-63.589
-62.637
-61.61
-60.509
-59.337
-58.097
-56.794
-55.431
-54.014
-52.55
-51.046
-49.509
-47.947
-46.367
-44.778
-43.187
-41.602
-40.034
-38.491
-36.985
-35.527
-34.131
-32.812
-31.584
-30.46
-29.456
-28.583
-27.855
-27.282
-26.871
-26.633
-26.574
-26.706
-27.037
-27.573
-28.319
-29.276
-30.446
-31.828
-33.42
-35.213
-37.196
-39.36
-41.704
-44.23
-46.949
-49.861
-52.956
-56.225
-59.662
-63.248
-66.962
-70.764
-74.599
-78.414
-82.17
-85.825
-89.335
-92.65
-95.715
-98.466
-100.835
-102.767
-104.215
-105.144
-105.555
-105.419
-104.665
-103.298
-101.39
-99.048
-96.481
-93.848
-91.159
-88.703
-87.111
-86.642
-87.301
-89.061
-91.194
-94.087
-99.64
-107.009
-113.915
-116.89
-109.819
-93.626
-75.353
-62.027
-62.795
-78.484
-101.338
-125
-142.482
-151.706
-156.017
-156.209
-152.237
-142.174
-121.967
-89.527
-43.521
16.35
87.987
168.916
256.107
345.448
433.576
516.99
590.718
650.45
692.948
715.275
716.379
696.523
655.348
593.667
514.441
420.964
317.457
209.167
100.063
-6.228
-105.03
-192.68
-266.811
-325.448
-368.46
-397.266
-412.941
-416.988
-411.925
-399.76
-382.342
-361.873
-339.4
-315.164
-289.665
-263.148
-235.999
-209.5
-184.642
-161.911
-141.266
-121.683
-103.813
-89.298
-80.413
-80.844
-88.814
-98.681
-104.766
-99.363
-82.294
-60.504
-39.819
-27.206
-24.287
-26.16
-29.777
-32.695
-34.01
-35.656
-38.125
-40.709
-43.001
-44.36
-44.579
-44.004
-42.733
-40.719
-38.02
-34.682
-30.777
-26.388
-21.515
-16.21
-10.651
-4.954
0.77
6.232
11.246
15.856
19.916
23.48
27.217
30.209
31.437
32.315
32.936
36.487
47.928
63.528
79.376
89.25
83.157
65.632
45.638
31.103
33.79
51.273
73.354
93.681
104.294
105.238
103.341
101.726
102.909
107.437
112.75
117.998
123.354
128.671
134.259
140.182
146.102
151.891
157.565
163.061
168.308
173.302
178.037
182.507
186.734
190.7
194.347
197.643
200.565
203.085
205.178
206.822
207.991
208.669
208.848
208.517
207.672
206.309
204.428
202.033
199.128
195.725
191.834
187.471
182.655
177.404
171.743
165.694
159.284
152.542
145.498
138.183
130.631
122.875
114.95
106.892
98.738
90.521
82.279
74.047
65.858
57.746
49.743
41.879
34.183
26.681
19.397
12.354
5.572
-0.934
-7.146
-13.054
-18.646
-23.916
-28.856
-33.464
-37.739
-41.68
-45.289
-48.573
-51.535
-54.184
-56.529
-58.581
-60.352
-61.856
-63.106
-64.118
-64.909
-65.495
-65.892
-66.119
-66.192
-66.128
-65.945
-65.659
-65.286
-64.841
-64.337
-63.789
-63.209
-62.608
-61.997
-61.383
-60.777
-60.184
-59.611
-59.064
-58.547
-58.065
-57.62
-57.215
-56.852
-56.532
-56.256
-56.025
-55.837
-55.692
-55.588
-55.525
-55.5
-55.511
-55.557
-55.634
-55.74
-55.874
-56.033
-56.215
-56.418
-56.64
-56.881
-57.138
-57.412
-57.702
-58.007
-58.329
-58.666
-59.021
-59.393
-59.782
-60.189
-60.613
-61.055
-61.514
-61.99
-62.481
-62.986
-63.504
-64.033
-64.57
-65.114
-65.661
-66.207
-66.751
-67.287
-67.811
-68.32
-68.809
-69.273
-69.708
-70.109
-70.471
-70.788
-71.056
-71.268
-71.42
-71.504
-71.516
-71.45
-71.3
-71.061
-70.728
-70.298
-69.767
-69.133
-68.392
-67.543
-66.586
-65.52
-64.346
-63.065
-61.679
-60.191
-58.606
-56.928
-55.162
-53.314
-51.392
-49.402
-47.352
-45.25
-43.106
-40.927
-38.723
-36.506
-34.286
-32.073
-29.882
-27.725
-25.618
-23.578
-21.62
-19.761
-18.015
-16.4
-14.93
-13.618
-12.473
-11.506
-10.726
-10.144
-9.77
-9.616
-9.688
-9.993
-10.535
-11.318
-12.344
-13.613
-15.114
-16.838
-18.781
-20.945
-23.343
-25.981
-28.854
-31.955
-35.269
-38.776
-42.454
-46.264
-50.146
-54.045
-57.909
-61.694
-65.378
-68.927
-72.292
-75.408
-78.197
-80.591
-82.558
-84.075
-85.13
-85.731
-85.913
-85.742
-85.326
-84.782
-84.219
-83.731
-83.396
-83.298
-83.533
-84.275
-85.772
-88.171
-91.461
-95.473
-99.898
-104.439
-108.826
-112.611
-115.147
-115.952
-114.97
-112.653
-109.788
-107.19
-105.613
-105.678
-108.116
-112.427
-116.341
-117.661
-114.812
-109.416
-105.389
-102.817
-96.487
-75.418
-27.668
49.812
149.951
258.743
361.483
450.472
525.125
587.755
639.422
678.688
702.482
707.732
693.9
661.429
610.742
543.72
462.838
370.991
271.89
169.182
66.169
-33.189
-124.425
-203.516
-268.706
-319.847
-356.044
-377.841
-383.907
-373.368
-352.504
-326.721
-302.008
-284.019
-269.195
-254.617
-238.533
-217.639
-194.526
-171.226
-147.92
-127.051
-108.601
-91.868
-77.193
-63.816
-51.467
-40.706
-31.516
-23.291
-15.65
-8.319
-1.304
4.66
9.06
11.901
13.146
12.781
10.965
7.786
3.48
-1.344
-6.236
-10.882
-14.927
-18.219
-20.685
-22.214
-22.817
-22.568
-21.488
-19.645
-17.13
-14
-10.357
-6.29
-1.842
2.899
7.835
12.852
17.795
22.567
27.126
31.431
35.466
39.22
42.68
45.869
48.844
51.648
54.325
56.91
59.422
61.9
64.394
66.954
69.642
72.498
75.544
78.799
82.28
85.992
89.94
94.115
98.49
103.047
107.77
112.643
117.652
122.776
127.989
133.262
138.57
143.884
149.178
154.421
159.586
164.642
169.562
174.321
178.892
183.251
187.368
191.218
194.772
198.005
200.891
203.407
205.529
207.238
208.515
209.345
209.716
209.616
209.037
207.975
206.425
204.389
201.868
198.867
195.395
191.463
187.084
182.273
177.05
171.434
165.448
159.116
152.464
145.52
138.313
130.872
123.229
115.415
107.463
99.405
91.273
83.101
74.919
66.76
58.655
50.633
42.724
34.954
27.35
19.936
12.735
5.768
-0.947
-7.391
-13.549
-19.408
-24.956
-30.184
-35.084
-39.652
-43.884
-47.779
-51.338
-54.562
-57.458
-60.029
-62.283
-64.23
-65.879
-67.241
-68.329
-69.156
-69.737
-70.086
-70.218
-70.15
-69.896
-69.474
-68.898
-68.185
-67.35
-66.408
-65.374
-64.263
-63.088
-61.864
-60.603
-59.316
-58.017
-56.716
-55.423
-54.147
-52.897
-51.681
-50.507
-49.38
-48.308
-47.294
-46.344
-45.462
-44.651
-43.913
-43.25
-42.663
-42.152
-41.719
-41.363
-41.083
-40.88
-40.751
-40.697
-40.716
-40.807
-40.968
-41.199
-41.497
-41.86
-42.287
-42.774
-43.32
-43.922
-44.577
-45.281
-46.032
-46.826
-47.659
-48.525
-49.421
-50.342
-51.281
-52.234
-53.195
-54.159
-55.119
-56.072
-57.01
-57.929
-58.822
-59.685
-60.512
-61.295
-62.03
-62.71
-63.328
-63.88
-64.358
-64.758
-65.074
-65.3
-65.432
-65.465
-65.395
-65.217
-64.928
-64.524
-64.004
-63.366
-62.611
-61.738
-60.748
-59.645
-58.43
-57.106
-55.679
-54.152
-52.529
-50.816
-49.017
-47.14
-45.19
-43.176
-41.105
-38.986
-36.829
-34.642
-32.435
-30.219
-28.002
-25.797
-23.614
-21.464
-19.36
-17.314
-15.34
-13.456
-11.677
-10.016
-8.486
-7.102
-5.877
-4.827
-3.965
-3.3
-2.841
-2.597
-2.577
-2.791
-3.249
-3.952
-4.9
-6.09
-7.523
-9.201
-11.128
-13.292
-15.679
-18.272
-21.059
-24.04
-27.212
-30.565
-34.077
-37.727
-41.494
-45.362
-49.314
-53.306
-57.294
-61.217
-65.014
-68.655
-72.11
-75.366
-78.414
-81.201
-83.667
-85.754
-87.404
-88.6
-89.374
-89.708
-89.556
-88.989
-88.147
-87.355
-87.123
-87.713
-89.128
-91.296
-94.166
-97.704
-101.793
-105.797
-108.429
-108.73
-106.424
-101.743
-95.232
-87.204
-77.869
-68.177
-60.32
-56.481
-57.893
-64.783
-76.269
-91.51
-110.045
-130.518
-149.835
-164.105
-169.693
-163.718
-144.945
-112.496
-64.842
-1.368
76.615
166.157
262.944
362.027
459.505
551.64
633.394
699.943
747.556
773.703
777.947
761.471
725.123
669.841
598.281
513.772
420.028
321.287
220.74
120.658
24.037
-65.652
-145.85
-214.483
-270.317
-313.543
-344.358
-362.914
-370.387
-368.674
-359.637
-345.274
-327.245
-306.256
-282.985
-258.272
-232.572
-206.356
-180.309
-154.888
-130.643
-108.478
-89.123
-72.97
-60.279
-50.729
-43.489
-37.953
-33.502
-29.509
-25.599
-21.533
-17.194
-12.94
-9.497
-7.316
-6.682
-7.673
-10.069
-13.659
-18.215
-23.286
-28.255
-32.638
-36.103
-38.495
-39.868
-40.257
-39.678
-38.189
-35.887
-32.892
-29.328
-25.289
-20.834
-16.027
-10.957
-5.748
-0.56
4.479
9.29
13.831
18.093
22.069
25.749
29.144
32.29
35.232
38.015
40.674
43.232
45.719
48.177
50.663
53.244
55.97
58.869
61.964
65.264
68.776
72.505
76.445
80.572
84.867
89.311
93.889
98.59
103.396
108.284
113.226
118.193
123.159
128.1
132.988
137.797
142.5
147.071
151.488
155.73
159.776
163.601
167.182
170.496
173.521
176.235
178.619
180.653
182.321
183.606
184.498
184.988
185.066
184.729
183.973
182.798
181.205
179.2
176.789
173.98
170.785
167.217
163.292
159.027
154.44
149.552
144.384
138.959
133.299
127.429
121.372
115.154
108.798
102.329
95.773
89.151
82.49
75.811
69.138
62.492
55.896
49.369
42.93
36.597
30.385
24.311
18.388
12.627
7.04
1.636
-3.578
-8.595
-13.41
-18.021
-22.424
-26.621
-30.61
-34.395
-37.977
-41.359
-44.547
-47.544
-50.356
-52.987
-55.442
-57.729
-59.852
-61.817
-63.63
-65.297
-66.824
-68.216
-69.48
-70.622
-71.647
-72.561
-73.368
-74.076
-74.688
-75.21
-75.647
-76.003
-76.283
-76.49
-76.629
-76.703
-76.714
-76.666
-76.561
-76.401
-76.188
-75.925
-75.615
-75.259
-74.861
-74.423
-73.949
-73.443
-72.907
-72.348
-71.768
-71.175
-70.572
-69.966
-69.361
-68.764
-68.181
-67.617
-67.078
-66.568
-66.092
-65.656
-65.263
-64.917
-64.622
-64.381
-64.197
-64.073
-64.01
-64.011
-64.078
-64.212
-64.413
-64.681
-65.018
-65.42
-65.888
-66.42
-67.011
-67.66
-68.361
-69.11
-69.901
-70.727
-71.58
-72.454
-73.339
-74.225
-75.105
-75.967
-76.804
-77.605
-78.361
-79.063
-79.704
-80.275
-80.768
-81.177
-81.494
-81.714
-81.831
-81.84
-81.735
-81.511
-81.166
-80.696
-80.099
-79.372
-78.515
-77.526
-76.406
-75.156
-73.777
-72.272
-70.644
-68.899
-67.042
-65.08
-63.021
-60.874
-58.649
-56.357
-54.008
-51.614
-49.187
-46.739
-44.281
-41.825
-39.385
-36.971
-34.596
-32.273
-30.014
-27.833
-25.747
-23.77
-21.918
-20.208
-18.654
-17.271
-16.074
-15.075
-14.283
-13.704
-13.346
-13.218
-13.329
-13.688
-14.299
-15.166
-16.289
-17.668
-19.302
-21.181
-23.289
-25.614
-28.143
-30.875
-33.821
-36.989
-40.374
-43.973
-47.771
-51.747
-55.876
-60.116
-64.405
-68.684
-72.895
-76.988
-80.931
-84.677
-88.167
-91.332
-94.086
-96.35
-98.066
-99.195
-99.744
-99.755
-99.295
-98.457
-97.326
-95.989
-94.58
-93.202
-91.895
-90.717
-89.718
-89.029
-89.054
-90.117
-92.261
-95.501
-99.783
-104.785
-110.076
-115.045
-118.426
-120.193
-122.382
-126.331
-132.001
-136.182
-131.577
-113.594
-86.251
-60.882
-52.603
-73.349
-119.937
-174.942
-217.574
-226.821
-191.39
-115.824
-7.152
125.943
270.359
417.97
556.651
668.587
745.072
782.568
786.102
770.868
746.305
715.9
677.52
623.425
551.235
463.467
364.624
262.765
162.942
66
-25.352
-110.931
-190.864
-259.028
-312.222
-347.775
-361.744
-358.728
-343.738
-320.865
-296.581
-272.161
-247.707
-224.05
-200.744
-179.322
-161.342
-147.097
-136.175
-126.738
-117.107
-106.862
-96.013
-84.759
-73.129
-60.73
-47.724
-35.133
-24.104
-15.337
-9.023
-4.946
-2.923
-3.058
-5.287
-9.151
-13.951
-18.988
-23.803
-28.232
-32.208
-35.593
-38.227
-39.974
-40.801
-40.778
-39.97
-38.422
-36.158
-33.194
-29.604
-25.524
-21.114
-16.548
-11.982
-7.502
-3.165
0.979
4.896
8.544
11.902
14.995
17.855
20.511
22.99
25.311
27.5
29.617
31.732
33.916
36.241
38.755
41.491
44.481
47.747
51.305
55.165
59.323
63.763
68.478
73.463
78.709
84.21
89.947
95.895
102.029
108.32
114.739
121.255
127.837
134.449
141.061
147.639
154.151
160.565
166.849
172.965
178.878
184.549
189.944
195.027
199.763
204.119
208.064
211.571
214.612
217.167
219.214
220.738
221.723
222.159
222.037
221.352
220.103
218.291
215.921
213.002
209.545
205.563
201.077
196.105
190.671
184.803
178.526
171.872
164.872
157.561
149.973
142.146
134.115
125.921
117.6
109.192
100.736
92.269
83.828
75.45
67.168
59.015
51.024
43.223
35.639
28.299
21.226
14.44
7.959
1.802
-4.02
-9.494
-14.611
-19.365
-23.752
-27.77
-31.418
-34.7
-37.619
-40.182
-42.397
-44.275
-45.826
-47.065
-48.006
-48.664
-49.056
-49.2
-49.115
-48.819
-48.331
-47.67
-46.857
-45.909
-44.846
-43.686
-42.448
-41.148
-39.804
-38.431
-37.044
-35.656
-34.283
-32.934
-31.622
-30.356
-29.147
-28.002
-26.928
-25.933
-25.02
-24.196
-23.462
-22.822
-22.277
-21.828
-21.475
-21.217
-21.051
-20.977
-20.991
-21.09
-21.271
-21.528
-21.859
-22.258
-22.72
-23.241
-23.817
-24.441
-25.111
-25.82
-26.565
-27.342
-28.146
-28.973
-29.82
-30.682
-31.555
-32.437
-33.323
-34.211
-35.097
-35.978
-36.853
-37.717
-38.57
-39.409
-40.232
-41.038
-41.826
-42.594
-43.341
-44.067
-44.771
-45.452
-46.109
-46.743
-47.353
-47.937
-48.495
-49.025
-49.527
-49.998
-50.438
-50.845
-51.218
-51.555
-51.854
-52.115
-52.336
-52.516
-52.653
-52.745
-52.791
-52.79
-52.739
-52.638
-52.485
-52.278
-52.018
-51.701
-51.327
-50.895
-50.404
-49.852
-49.239
-48.564
-47.825
-47.025
-46.162
-45.239
-44.258
-43.22
-42.129
-40.988
-39.803
-38.578
-37.317
-36.027
-34.715
-33.385
-32.047
-30.708
-29.377
-28.064
-26.782
-25.545
-24.364
-23.254
-22.229
-21.303
-20.489
-19.801
-19.247
-18.836
-18.579
-18.486
-18.569
-18.84
-19.306
-19.977
-20.857
-21.951
-23.262
-24.789
-26.522
-28.454
-30.579
-32.9
-35.429
-38.174
-41.137
-44.313
-47.693
-51.259
-54.992
-58.858
-62.806
-66.786
-70.746
-74.645
-78.453
-82.134
-85.637
-88.899
-91.836
-94.378
-96.476
-98.09
-99.215
-99.863
-100.06
-99.872
-99.384
-98.684
-97.886
-97.101
-96.395
-95.876
-95.674
-95.963
-97.031
-99.094
-102.187
-106.162
-110.774
-115.714
-120.428
-124.336
-126.869
-127.267
-126.207
-125.033
-123.781
-123.552
-123.373
-120.583
-117.16
-114.494
-115.945
-128.382
-151.318
-180.35
-206.336
-212.522
-187.175
-126.208
-33.696
76.035
189.351
297.839
397.995
491.599
578.036
652.699
709.816
743.218
749.87
731.075
689.89
628.167
548.054
450.979
336.668
211.152
83.889
-36.556
-139.144
-220.439
-285.297
-337.534
-382.371
-421.212
-449.112
-462.98
-461.458
-445.531
-419.35
-386.169
-348.378
-308.243
-267.737
-229.646
-196.959
-170.174
-148.928
-134.106
-124.866
-122.393
-127.932
-135.987
-142.444
-142.996
-132.776
-115.731
-95.886
-76.2
-61.322
-50.197
-41.325
-34.754
-29.222
-25.464
-24.234
-24.925
-27.161
-30.197
-33.366
-36.558
-39.684
-42.617
-45.238
-47.402
-49.043
-50.158
-50.721
-50.697
-50.057
-48.803
-46.992
-44.703
-41.996
-38.909
-35.471
-31.697
-27.642
-23.386
-19.023
-14.655
-10.36
-6.187
-2.175
1.657
5.312
8.807
12.179
15.479
18.749
22.019
25.311
28.638
32.024
35.502
39.109
42.893
46.886
51.111
55.584
60.311
65.291
70.514
75.961
81.601
87.406
93.351
99.413
105.57
111.797
118.065
124.344
130.599
136.797
142.906
148.891
154.72
160.359
165.776
170.944
175.834
180.422
184.679
188.578
192.095
195.204
197.885
200.118
201.885
203.17
203.962
204.251
204.032
203.301
202.059
200.308
198.052
195.299
192.06
188.347
184.176
179.563
174.528
169.092
163.279
157.113
150.622
143.832
136.774
129.478
121.975
114.297
106.476
98.545
90.535
82.478
74.406
66.349
58.337
50.397
42.559
34.847
27.285
19.897
12.702
5.72
-1.032
-7.538
-13.786
-19.763
-25.458
-30.865
-35.976
-40.786
-45.291
-49.491
-53.386
-56.976
-60.266
-63.259
-65.962
-68.382
-70.528
-72.408
-74.034
-75.416
-76.567
-77.499
-78.225
-78.759
-79.112
-79.3
-79.334
-79.228
-78.995
-78.646
-78.195
-77.652
-77.03
-76.338
-75.588
-74.789
-73.95
-73.082
-72.191
-71.286
-70.374
-69.462
-68.556
-67.661
-66.783
-65.925
-65.092
-64.286
-63.509
-62.765
-62.053
-61.374
-60.73
-60.119
-59.541
-58.995
-58.482
-57.999
-57.546
-57.121
-56.724
-56.353
-56.007
-55.684
-55.383
-55.103
-54.841
-54.598
-54.37
-54.158
-53.959
-53.772
-53.596
-53.43
-53.273
-53.122
-52.978
-52.838
-52.703
-52.571
-52.442
-52.317
-52.194
-52.073
-51.957
-51.843
-51.733
-51.627
-51.523
-51.424
-51.326
-51.232
-51.139
-51.047
-50.956
-50.864
-50.772
-50.678
-50.58
-50.478
-50.369
-50.252
-50.124
-49.983
-49.826
-49.652
-49.458
-49.242
-49.002
-48.734
-48.436
-48.106
-47.739
-47.334
-46.886
-46.392
-45.85
-45.256
-44.608
-43.905
-43.145
-42.327
-41.451
-40.518
-39.527
-38.481
-37.38
-36.226
-35.024
-33.777
-32.489
-31.166
-29.816
-28.446
-27.067
-25.69
-24.327
-22.988
-21.688
-20.438
-19.252
-18.142
-17.119
-16.193
-15.377
-14.684
-14.128
-13.724
-13.485
-13.422
-13.547
-13.871
-14.4
-15.141
-16.091
-17.248
-18.612
-20.188
-21.989
-24.026
-26.298
-28.802
-31.529
-34.462
-37.579
-40.847
-44.212
-47.625
-51.039
-54.41
-57.714
-60.921
-63.987
-66.86
-69.474
-71.763
-73.686
-75.212
-76.313
-76.996
-77.285
-77.239
-76.964
-76.551
-76.089
-75.675
-75.39
-75.338
-75.644
-76.406
-77.776
-79.954
-83.017
-86.94
-91.555
-96.438
-101.182
-105.437
-108.693
-110.409
-110.247
-108.078
-104.355
-100.086
-96.092
-93.002
-91.311
-91.295
-93.156
-96.657
-100.313
-101.727
-98.475
-88.161
-69.026
-39.686
1.593
55.772
122.145
198.709
282.346
369.153
455.616
537.862
610.773
669.605
710.392
730.023
727.195
701.815
654.046
585.388
499.211
399.524
291.352
180.328
71.13
-31.983
-124.853
-204.546
-269.359
-318.179
-351.51
-371.242
-379.17
-377.339
-367.994
-352.559
-332.255
-308.767
-282.954
-254.926
-225.129
-193.99
-162.195
-131.484
-103.464
-78.747
-58.065
-42.103
-30.931
-24.472
-21.968
-21.568
-21.621
-21.289
-19.92
-17.186
-13.129
-7.79
-1.694
4.027
8.496
11.35
12.513
12.214
10.792
8.52
5.817
3.302
1.451
0.508
0.561
1.531
3.315
5.866
9.114
12.924
17.179
21.781
26.624
31.649
36.784
41.904
46.911
51.727
56.278
60.537
64.502
68.163
71.533
74.642
77.513
80.179
82.685
85.06
87.346
89.591
91.845
94.171
96.624
99.24
102.052
105.079
108.328
111.809
115.519
119.446
123.579
127.907
132.417
137.099
141.941
146.922
152.018
157.205
162.454
167.74
173.037
178.316
183.55
188.711
193.77
198.703
203.481
208.075
212.452
216.583
220.436
223.982
227.192
230.039
232.497
234.541
236.153
237.313
238.006
238.219
237.941
237.162
235.879
234.086
231.785
228.977
225.667
221.86
217.568
212.803
207.579
201.913
195.825
189.335
182.469
175.252
167.712
159.879
151.783
143.458
134.938
126.256
117.449
108.551
99.598
90.625
81.667
72.758
63.93
55.216
46.646
38.248
30.049
22.076
14.352
6.899
-0.262
-7.113
-13.637
-19.818
-25.642
-31.099
-36.179
-40.874
-45.179
-49.092
-52.612
-55.74
-58.48
-60.839
-62.825
-64.448
-65.721
-66.656
-67.27
-67.579
-67.601
-67.356
-66.863
-66.143
-65.216
-64.103
-62.826
-61.404
-59.859
-58.209
-56.475
-54.676
-52.83
-50.955
-49.07
-47.191
-45.335
-43.518
-41.754
-40.059
-38.444
-36.921
-35.501
-34.192
-33.002
-31.937
-31.002
-30.198
-29.529
-28.994
-28.592
-28.321
-28.177
-28.156
-28.252
-28.459
-28.77
-29.179
-29.678
-30.26
-30.919
-31.647
-32.438
-33.285
-34.181
-35.12
-36.094
-37.096
-38.12
-39.159
-40.207
-41.256
-42.302
-43.338
-44.36
-45.363
-46.342
-47.294
-48.216
-49.106
-49.961
-50.78
-51.564
-52.312
-53.024
-53.703
-54.349
-54.965
-55.55
-56.108
-56.638
-57.14
-57.616
-58.064
-58.483
-58.873
-59.233
-59.561
-59.856
-60.116
-60.34
-60.527
-60.674
-60.779
-60.84
-60.854
-60.818
-60.731
-60.589
-60.392
-60.135
-59.817
-59.435
-58.987
-58.47
-57.881
-57.217
-56.475
-55.653
-54.75
-53.764
-52.697
-51.549
-50.322
-49.019
-47.644
-46.204
-44.704
-43.151
-41.55
-39.911
-38.241
-36.55
-34.849
-33.149
-31.463
-29.807
-28.197
-26.649
-25.182
-23.81
-22.549
-21.417
-20.424
-19.584
-18.907
-18.405
-18.092
-17.981
-18.084
-18.413
-18.974
-19.776
-20.823
-22.118
-23.66
-25.44
-27.448
-29.683
-32.152
-34.866
-37.833
-41.047
-44.496
-48.169
-52.049
-56.109
-60.31
-64.587
-68.875
-73.118
-77.268
-81.286
-85.126
-88.714
-91.962
-94.785
-97.106
-98.889
-100.118
-100.759
-100.805
-100.28
-99.232
-97.787
-96.095
-94.274
-92.459
-90.79
-89.391
-88.488
-88.383
-89.25
-91.157
-93.944
-97.21
-100.647
-104.012
-106.899
-108.795
-109.257
-108.08
-105.839
-103.704
-102.606
-103.271
-106.144
-111.45
-119.456
-129.83
-140.694
-149.157
-152.302
-146.968
-130.678
-101.719
-57.807
1.523
73.577
156.233
247.129
343.989
447.547
553.072
649.975
728.055
776.168
791.548
780.908
751.034
709.066
657.442
593.89
518.621
432.918
339.787
243.961
148.12
54.444
-34.494
-117.117
-191.73
-256.595
-310.764
-353.427
-383.729
-401.495
-407.357
-402.351
-388.142
-366.882
-340.759
-311.754
-281.938
-253.377
-227.638
-205.944
-188.868
-176.074
-166.739
-160.161
-155.392
-151.117
-146.312
-140.011
-131.618
-121.357
-109.851
-97.672
-85.594
-74.549
-65.112
-57.822
-53.009
-50.529
-50.125
-51.455
-53.981
-57.171
-60.698
-64.265
-67.66
-70.756
-73.32
-75.203
-76.383
-76.859
-76.638
-75.708
-74.023
-71.572
-68.429
-64.697
-60.464
-55.787
-50.73
-45.377
-39.828
-34.226
-28.7
-23.294
-18.087
-13.178
-8.447
-3.745
0.802
5.219
9.587
13.584
18.228
24.499
31.045
37.48
41.344
39.691
35.887
32.175
31.856
39.458
51
63.104
73.45
78.195
80.046
81.754
83.918
88.208
93.628
98.89
104.209
109.395
114.505
119.767
124.986
130.001
134.828
139.451
143.827
147.94
151.779
155.327
158.588
161.57
164.241
166.569
168.544
170.148
171.367
172.191
172.608
172.608
172.189
171.351
170.094
168.422
166.34
163.854
160.975
157.714
154.084
150.102
145.783
141.148
136.216
131.008
125.547
119.857
113.962
107.888
101.658
95.299
88.836
82.294
75.699
69.074
62.444
55.833
49.262
42.753
36.327
30.003
23.799
17.731
11.814
6.06
0.482
-4.909
-10.107
-15.103
-19.891
-24.467
-28.828
-32.973
-36.9
-40.611
-44.108
-47.394
-50.473
-53.351
-56.032
-58.524
-60.832
-62.965
-64.93
-66.734
-68.385
-69.892
-71.262
-72.502
-73.621
-74.626
-75.522
-76.318
-77.019
-77.631
-78.158
-78.607
-78.98
-79.282
-79.517
-79.687
-79.796
-79.847
-79.841
-79.78
-79.666
-79.501
-79.285
-79.02
-78.706
-78.344
-77.936
-77.483
-76.985
-76.444
-75.861
-75.238
-74.578
-73.883
-73.156
-72.401
-71.62
-70.818
-70.001
-69.172
-68.337
-67.502
-66.672
-65.853
-65.052
-64.274
-63.525
-62.81
-62.137
-61.509
-60.933
-60.413
-59.954
-59.56
-59.234
-58.98
-58.8
-58.696
-58.669
-58.72
-58.85
-59.056
-59.338
-59.694
-60.121
-60.613
-61.167
-61.776
-62.433
-63.133
-63.865
-64.621
-65.391
-66.166
-66.936
-67.69
-68.417
-69.107
-69.75
-70.334
-70.849
-71.285
-71.632
-71.881
-72.022
-72.049
-71.954
-71.731
-71.375
-70.881
-70.245
-69.465
-68.539
-67.466
-66.246
-64.881
-63.373
-61.727
-59.948
-58.042
-56.018
-53.886
-51.656
-49.341
-46.952
-44.503
-42.008
-39.481
-36.939
-34.398
-31.874
-29.384
-26.949
-24.591
-22.33
-20.188
-18.184
-16.336
-14.663
-13.185
-11.92
-10.881
-10.082
-9.533
-9.247
-9.24
-9.523
-10.103
-10.981
-12.158
-13.63
-15.398
-17.459
-19.802
-22.412
-25.273
-28.373
-31.712
-35.288
-39.091
-43.101
-47.293
-51.637
-56.107
-60.67
-65.277
-69.873
-74.401
-78.803
-83.033
-87.051
-90.811
-94.274
-97.394
-100.108
-102.354
-104.077
-105.238
-105.839
-105.937
-105.559
-104.696
-103.433
-101.98
-100.7
-99.997
-100.076
-100.868
-102.312
-104.626
-107.876
-111.724
-115.298
-117.329
-116.998
-114.368
-109.78
-103.098
-94.356
-84.281
-74.56
-67.912
-66.482
-70.672
-79.967
-94.112
-112.426
-133.194
-153.35
-167.996
-172.293
-163.419
-139.758
-99.673
-42.256
32.045
121.202
220.687
324.775
428.821
528.534
618.859
694.912
752.53
788.279
800.784
790.465
757.478
702.671
628.58
538.414
436.279
327.327
216.088
106.372
2.68
-91.098
-172.102
-237.702
-286.998
-320.815
-340.017
-345.988
-341.105
-327.443
-307.487
-284.529
-260.577
-236.798
-214.647
-194.775
-177.437
-163.418
-152.562
-143.74
-136.416
-129.936
-123.237
-116.032
-108.05
-98.523
-87.411
-75.23
-62.358
-49.635
-38.136
-28.284
-20.399
-14.921
-11.849
-10.986
-12.118
-14.662
-17.899
-21.411
-24.866
-27.967
-30.604
-32.66
-33.991
-34.57
-34.416
-33.52
-31.887
-29.521
-26.405
-22.587
-18.158
-13.224
-7.927
-2.388
3.283
8.966
14.57
20.034
25.299
30.327
35.1
39.602
43.831
47.801
51.527
55.031
58.345
61.509
64.574
67.592
70.616
73.703
76.896
80.224
83.711
87.374
91.22
95.254
99.474
103.869
108.429
113.147
118.012
123.012
128.132
133.351
138.645
143.99
149.358
154.725
160.065
165.35
170.556
175.655
180.623
185.435
190.065
194.486
198.67
202.588
206.213
209.519
212.481
215.073
217.274
219.065
220.427
221.347
221.813
221.813
221.34
220.387
218.951
217.031
214.628
211.746
208.392
204.573
200.304
195.598
190.472
184.947
179.043
172.784
166.197
159.307
152.144
144.737
137.118
129.319
121.372
113.312
105.171
96.984
88.782
80.6
72.468
64.417
56.477
48.676
41.041
33.596
26.367
19.375
12.641
6.185
0.022
-5.83
-11.36
-16.556
-21.409
-25.913
-30.064
-33.859
-37.298
-40.384
-43.12
-45.512
-47.569
-49.298
-50.713
-51.824
-52.646
-53.193
-53.482
-53.528
-53.35
-52.966
-52.393
-51.651
-50.757
-49.731
-48.591
-47.355
-46.042
-44.67
-43.256
-41.818
-40.371
-38.933
-37.518
-36.14
-34.813
-33.549
-32.358
-31.25
-30.235
-29.319
-28.509
-27.81
-27.225
-26.759
-26.414
-26.19
-26.089
-26.109
-26.25
-26.509
-26.883
-27.37
-27.966
-28.665
-29.464
-30.358
-31.34
-32.405
-33.547
-34.758
-36.032
-37.36
-38.735
-40.148
-41.591
-43.054
-44.531
-46.011
-47.488
-48.953
-50.398
-51.816
-53.2
-54.542
-55.834
-57.07
-58.244
-59.347
-60.374
-61.319
-62.175
-62.938
-63.601
-64.159
-64.606
-64.938
-65.149
-65.235
-65.192
-65.015
-64.702
-64.249
-63.657
-62.925
-62.052
-61.041
-59.892
-58.609
-57.196
-55.655
-53.991
-52.208
-50.312
-48.308
-46.205
-44.008
-41.728
-39.371
-36.947
-34.466
-31.939
-29.375
-26.786
-24.182
-21.576
-18.98
-16.407
-13.871
-11.386
-8.966
-6.626
-4.38
-2.244
-0.23
1.649
3.381
4.954
6.358
7.583
8.618
9.455
10.082
10.488
10.662
10.594
10.277
9.7
8.859
7.749
6.367
4.717
2.801
0.62
-1.824
-4.53
-7.494
-10.71
-14.168
-17.859
-21.769
-25.885
-30.184
-34.641
-39.234
-43.946
-48.77
-53.707
-58.756
-63.904
-69.133
-74.424
-79.75
-85.085
-90.386
-95.59
-100.638
-105.474
-110.057
-114.353
-118.32
-121.895
-125.003
-127.56
-129.489
-130.755
-131.341
-131.228
-130.43
-128.971
-126.899
-124.336
-121.433
-118.329
-115.195
-112.185
-109.434
-107.172
-105.705
-105.232
-105.812
-107.265
-109.13
-110.973
-112.489
-113.272
-112.813
-110.828
-107.374
-103.171
-99.644
-98.112
-99.421
-104.13
-112.528
-124.291
-138.336
-152.347
-162.77
-165.928
-158.67
-138.532
-103.617
-52.834
13.588
94.006
185.309
283.071
382.757
479.385
566.686
640.317
697.859
738.79
766.044
778.794
772.176
741.294
679.911
590.029
481.962
365.283
250.646
142.935
40.086
-57.44
-148.495
-230.974
-300.309
-354.376
-393.379
-417.445
-427.219
-423.691
-408.16
-382.861
-350.621
-314.015
-275.085
-235.762
-198.319
-165.192
-137.903
-116.886
-101.81
-91.8
-86.019
-83.656
-83.251
-82.768
-80.851
-76.948
-71.017
-63.6
-55.25
-46.363
-37.774
-30.698
-25.888
-23.607
-23.797
-25.965
-29.608
-34.378
-39.724
-44.953
-49.58
-53.261
-55.815
-57.29
-57.72
-57.095
-55.473
-52.929
-49.534
-45.41
-40.656
-35.341
-29.58
-23.483
-17.176
-10.824
-4.551
1.549
7.401
12.975
18.254
23.219
27.87
32.223
36.301
40.144
43.792
47.271
50.623
53.891
57.128
60.403
63.766
67.247
70.871
74.65
78.589
82.697
86.969
91.389
95.945
100.623
105.41
110.298
115.274
120.32
125.413
130.529
135.644
140.739
145.79
150.776
155.673
160.458
165.11
169.61
173.936
178.065
181.972
185.633
189.023
192.12
194.902
197.346
199.432
201.142
202.46
203.373
203.869
203.937
203.57
202.763
201.51
199.813
197.671
195.087
192.067
188.62
184.754
180.483
175.822
170.786
165.394
159.666
153.624
147.292
140.694
133.856
126.804
119.568
112.174
104.653
97.032
89.342
81.611
73.867
66.139
58.455
50.84
43.32
35.918
28.659
21.563
14.651
7.94
1.45
-4.806
-10.812
-16.557
-22.03
-27.222
-32.126
-36.737
-41.05
-45.065
-48.78
-52.198
-55.321
-58.153
-60.701
-62.971
-64.972
-66.713
-68.204
-69.456
-70.481
-71.29
-71.898
-72.316
-72.558
-72.638
-72.569
-72.364
-72.037
-71.601
-71.068
-70.452
-69.765
-69.018
-68.222
-67.389
-66.529
-65.652
-64.766
-63.881
-63.004
-62.142
-61.301
-60.487
-59.704
-58.958
-58.251
-57.586
-56.966
-56.393
-55.867
-55.389
-54.961
-54.581
-54.25
-53.968
-53.734
-53.546
-53.403
-53.305
-53.25
-53.236
-53.262
-53.326
-53.427
-53.563
-53.732
-53.932
-54.16
-54.416
-54.695
-54.996
-55.317
-55.655
-56.008
-56.373
-56.749
-57.133
-57.523
-57.917
-58.312
-58.705
-59.096
-59.48
-59.855
-60.22
-60.57
-60.904
-61.219
-61.511
-61.778
-62.017
-62.224
-62.395
-62.527
-62.616
-62.657
-62.647
-62.582
-62.457
-62.271
-62.019
-61.7
-61.31
-60.848
-60.31
-59.696
-59.004
-58.233
-57.382
-56.45
-55.438
-54.346
-53.176
-51.93
-50.608
-49.215
-47.752
-46.223
-44.632
-42.984
-41.284
-39.538
-37.753
-35.937
-34.099
-32.249
-30.399
-28.562
-26.751
-24.98
-23.266
-21.621
-20.061
-18.601
-17.255
-16.035
-14.952
-14.017
-13.241
-12.636
-12.216
-11.991
-11.971
-12.166
-12.583
-13.231
-14.115
-15.232
-16.58
-18.159
-19.968
-22.02
-24.321
-26.868
-29.656
-32.679
-35.917
-39.347
-42.932
-46.612
-50.335
-54.048
-57.701
-61.268
-64.714
-67.993
-71.06
-73.853
-76.317
-78.426
-80.159
-81.484
-82.409
-82.975
-83.266
-83.422
-83.573
-83.796
-84.175
-84.792
-85.755
-87.189
-89.191
-91.824
-95.184
-99.412
-104.587
-110.669
-117.376
-124.189
-130.575
-136.04
-140.062
-142.019
-141.438
-138.268
-133.058
-126.906
-120.797
-115.559
-112.122
-111.28
-113.591
-117.846
-120.546
-119.02
-111.666
-98.552
-81.863
-58.336
-20.847
35.413
114.36
211.406
315.402
420.376
520.8
612.004
690.301
743.646
759.841
734.438
669.774
578.405
475.64
370.648
267.105
164.228
61
-40.438
-135.492
-219.218
-289.105
-344.361
-385.213
-413.381
-429.948
-435.48
-431.334
-418.476
-397.545
-371.203
-341.94
-309.567
-275.238
-238.173
-197.267
-158.047
-124.16
-99.455
-88.571
-87.108
-90.92
-96.448
-97.867
-96.046
-92.659
-87.794
-83.177
-78.137
-71.717
-64.822
-58.452
-53.635
-51.065
-50.637
-51.829
-54.175
-57.342
-60.85
-64.103
-66.673
-68.251
-68.705
-68.132
-66.606
-64.162
-60.908
-56.942
-52.358
-47.301
-41.906
-36.302
-30.644
-25.036
-19.551
-14.259
-9.205
-4.433
0.029
4.193
8.081
11.713
15.108
18.279
21.242
24.051
26.766
29.454
32.189
35.023
37.994
41.14
44.488
48.055
51.853
55.877
60.115
64.562
69.217
74.077
79.135
84.377
89.781
95.33
101.003
106.777
112.619
118.505
124.425
130.367
136.321
142.263
148.144
153.933
159.628
165.179
170.5
175.513
180.14
184.345
188.171
191.61
194.559
197.072
199.41
201.612
203.577
205.325
206.541
207.771
210.757
215.122
219.253
220.509
213.912
199.75
183.035
168.757
164.002
169.262
177.862
184.644
184.052
175.111
162.851
150.378
139.813
131.831
124.423
116.693
108.742
100.533
92.406
84.474
76.493
68.414
60.315
52.221
44.149
36.138
28.229
20.474
12.944
5.678
-1.325
-8.052
-14.482
-20.6
-26.39
-31.841
-36.95
-41.711
-46.116
-50.16
-53.84
-57.157
-60.115
-62.718
-64.972
-66.885
-68.466
-69.727
-70.68
-71.339
-71.718
-71.834
-71.704
-71.346
-70.776
-70.015
-69.082
-67.995
-66.774
-65.44
-64.01
-62.504
-60.94
-59.337
-57.711
-56.08
-54.459
-52.863
-51.307
-49.802
-48.362
-46.998
-45.719
-44.534
-43.451
-42.475
-41.613
-40.868
-40.243
-39.741
-39.358
-39.097
-38.959
-38.945
-39.054
-39.285
-39.627
-40.074
-40.63
-41.284
-42.011
-42.793
-43.599
-44.415
-45.272
-46.176
-47.091
-48.04
-49.073
-50.214
-51.527
-53.027
-54.586
-56.142
-57.757
-59.307
-60.478
-61.239
-61.656
-61.627
-61.626
-61.201
-58.187
-52.95
-47.441
-44.346
-50.458
-66.563
-85.415
-100.786
-101.964
-85.211
-61.638
-39.509
-28.533
-34.473
-47.568
-60.842
-69.615
-69.326
-65.026
-60.556
-56.42
-54.356
-53.055
-51.186
-49.312
-47.381
-45.422
-43.691
-42.045
-40.344
-38.619
-36.856
-34.988
-33.003
-30.942
-28.824
-26.675
-24.531
-22.385
-20.232
-18.092
-15.974
-13.882
-11.826
-9.812
-7.847
-5.945
-4.122
-2.391
-0.766
0.739
2.112
3.338
4.407
5.309
6.034
6.574
6.919
7.056
6.977
6.675
6.143
5.375
4.37
3.125
1.642
-0.071
-2.005
-4.16
-6.54
-9.156
-12.017
-15.123
-18.464
-22.035
-25.822
-29.806
-33.955
-38.215
-42.532
-46.853
-51.134
-55.339
-59.425
-63.323
-66.952
-70.227
-73.066
-75.424
-77.279
-78.597
-79.367
-79.603
-79.34
-78.68
-77.761
-76.703
-75.628
-74.656
-73.891
-73.537
-73.886
-75.147
-77.426
-80.584
-84.272
-88.235
-92.256
-95.974
-98.92
-100.611
-100.807
-100.074
-99.445
-99.651
-101.488
-105.596
-112.174
-121.653
-133.076
-142.928
-148.732
-148.963
-143.073
-133.672
-118.733
-91.451
-45.816
24.572
117.831
223.581
331.911
432.823
521.407
598.189
661.82
711.062
744.111
757.534
750.787
724.605
679.437
617.536
541.709
454.501
359.537
260.844
161.28
63.877
-27.651
-110.568
-182.384
-240.796
-285.413
-316.897
-335.499
-342.021
-337.953
-324.55
-304.019
-279.134
-251.294
-221.449
-190.964
-161.112
-133.506
-109.905
-90.748
-75.622
-64.577
-57.513
-53.992
-53.296
-53.752
-53.571
-51.989
-48.855
-44.164
-38.19
-31.195
-23.646
-16.674
-11.289
-7.899
-6.604
-7.167
-9.164
-12.31
-16.214
-20.245
-23.944
-27.05
-29.387
-30.967
-31.837
-31.974
-31.419
-30.251
-28.512
-26.26
-23.555
-20.429
-16.966
-13.257
-9.392
-5.481
-1.603
2.199
5.877
9.404
12.769
15.962
18.988
21.867
24.614
27.248
29.797
32.289
34.764
37.268
39.847
42.557
45.441
48.524
51.829
55.368
59.146
63.167
67.426
71.908
76.599
81.489
86.562
91.805
97.198
102.718
108.336
114.023
119.749
125.484
131.198
136.861
142.444
147.916
153.25
158.42
163.398
168.154
172.66
176.887
180.806
184.39
187.615
190.454
192.887
194.895
196.459
197.567
198.207
198.37
198.05
197.243
195.946
194.163
191.896
189.151
185.94
182.272
178.164
173.633
168.699
163.384
157.712
151.708
145.401
138.818
131.99
124.948
117.722
110.347
102.855
95.279
87.654
80.012
72.386
64.81
57.314
49.928
42.68
35.599
28.708
22.032
15.593
9.411
3.503
-2.113
-7.424
-12.416
-17.082
-21.411
-25.4
-29.044
-32.344
-35.299
-37.914
-40.193
-42.143
-43.773
-45.093
-46.116
-46.855
-47.325
-47.54
-47.518
-47.282
-46.854
-46.256
-45.509
-44.631
-43.644
-42.58
-41.456
-40.275
-39.045
-37.771
-36.472
-35.194
-33.957
-32.751
-31.612
-30.613
-29.814
-29.279
-29.023
-28.979
-29.132
-29.57
-30.214
-30.771
-31.183
-31.536
-31.791
-32.263
-32.361
-30.245
-26.304
-22.215
-20.743
-27.101
-40.954
-57.051
-70.159
-72.848
-64.639
-52.532
-41.931
-38.677
-43.774
-51.969
-60.029
-65.746
-68.443
-70.246
-72.114
-73.965
-75.863
-77.478
-78.721
-79.874
-81.017
-82.093
-83.107
-84.066
-84.955
-85.759
-86.449
-86.973
-87.316
-87.502
-87.537
-87.423
-87.161
-86.754
-86.205
-85.526
-84.722
-83.795
-82.749
-81.587
-80.314
-78.936
-77.458
-75.885
-74.223
-72.478
-70.653
-68.754
-66.786
-64.755
-62.664
-60.52
-58.326
-56.089
-53.813
-51.506
-49.173
-46.822
-44.459
-42.092
-39.727
-37.372
-35.035
-32.723
-30.443
-28.204
-26.014
-23.882
-21.817
-19.83
-17.935
-16.144
-14.475
-12.94
-11.556
-10.338
-9.3
-8.458
-7.821
-7.4
-7.201
-7.236
-7.514
-8.048
-8.845
-9.911
-11.253
-12.872
-14.77
-16.945
-19.388
-22.085
-25.022
-28.191
-31.595
-35.243
-39.141
-43.281
-47.654
-52.244
-57.03
-61.982
-67.056
-72.183
-77.296
-82.335
-87.247
-91.997
-96.537
-100.799
-104.704
-108.156
-111.072
-113.405
-115.123
-116.193
-116.618
-116.413
-115.624
-114.382
-112.826
-111.075
-109.266
-107.519
-105.953
-104.804
-104.358
-104.802
-106.243
-108.6
-111.567
-114.809
-117.961
-120.48
-121.768
-121.413
-119.194
-115.373
-110.924
-107.12
-105.243
-106.471
-110.767
-116.636
-122.784
-128.274
-133.987
-142.037
-151.386
-156.093
-145.641
-108.724
-38.801
60.369
178.167
303.243
423.045
532.46
629.243
706.846
765.813
806.18
827.228
835.39
828.022
796.927
738.275
647.168
528.199
396.004
259.352
122.918
-11.148
-145.168
-270.926
-371.265
-434.203
-451.839
-432.558
-399.211
-368.387
-352.433
-351.066
-350.531
-342.848
-322.426
-288.914
-250.999
-213.827
-180.438
-153.048
-129.527
-108.643
-91.145
-77.229
-67.228
-60.905
-56.523
-52.484
-48.209
-43.42
-37.942
-31.871
-25.293
-18.627
-13.002
-9.342
-7.952
-8.846
-11.729
-16.188
-21.928
-28.501
-35.163
-41.275
-46.439
-50.43
-53.263
-55.01
-55.67
-55.281
-53.945
-51.759
-48.843
-45.309
-41.223
-36.656
-31.705
-26.481
-21.127
-15.811
-10.647
-5.701
-1.012
3.417
7.585
11.485
15.14
18.598
21.906
25.114
28.259
31.365
34.47
37.623
40.882
44.311
47.955
51.838
55.976
60.376
65.041
69.973
75.156
80.562
86.169
91.953
97.896
103.981
110.186
116.478
122.828
129.2
135.564
141.887
148.136
154.275
160.267
166.08
171.686
177.059
182.169
186.984
191.47
195.597
199.347
202.688
205.577
207.977
209.851
211.179
211.974
212.229
211.904
211.015
209.62
207.765
205.508
202.859
199.749
196.167
192.21
187.811
182.686
176.792
170.244
163.031
155.509
147.104
135.957
122.51
108.536
96.931
93.116
96.798
102.613
105.213
96.987
77.487
53.975
32.076
17.86
12.417
10.372
8.435
4.361
-2.509
-9.939
-16.914
-23.508
-29.644
-35.656
-41.616
-47.189
-52.278
-56.958
-61.197
-64.919
-68.093
-70.682
-72.719
-74.346
-75.609
-76.41
-76.856
-77.277
-77.733
-78.162
-78.624
-78.773
-79.335
-82.242
-86.943
-91.772
-93.716
-87.323
-73.39
-57.315
-44.631
-43.165
-52.827
-66.375
-78.256
-82.283
-77.869
-70.487
-63.348
-58.826
-57.436
-56.937
-56.432
-55.971
-55.498
-55.363
-55.619
-55.97
-56.335
-56.762
-57.236
-57.743
-58.287
-58.877
-59.533
-60.3
-61.182
-62.146
-63.177
-64.267
-65.407
-66.588
-67.801
-69.028
-70.257
-71.483
-72.698
-73.891
-75.054
-76.177
-77.252
-78.269
-79.221
-80.102
-80.904
-81.621
-82.248
-82.779
-83.21
-83.534
-83.748
-83.847
-83.828
-83.688
-83.424
-83.035
-82.521
-81.881
-81.116
-80.227
-79.214
-78.079
-76.824
-75.45
-73.958
-72.349
-70.628
-68.799
-66.866
-64.835
-62.71
-60.492
-58.19
-55.815
-53.363
-50.832
-48.223
-45.533
-42.777
-39.98
-37.137
-34.244
-31.342
-28.467
-25.649
-22.929
-20.29
-17.693
-15.174
-12.795
-10.438
-7.962
-5.467
-2.969
-0.462
1.707
4.402
8.475
12.69
16.658
18.085
14.274
8.262
2.045
-1.365
2.146
8.855
15.63
20.35
19.324
14.878
9.718
4.426
0.431
-2.731
-6.828
-12.461
-18.563
-24.617
-28.323
-26.421
-20.282
-12.279
-7.305
-12.456
-29.285
-54.422
-80.108
-97.224
-100.658
-92.198
-79.701
-70.396
-69.291
-76.421
-86.491
-95.847
-102.288
-105.228
-106.685
-107.593
-107.924
-107.827
-107.045
-105.593
-103.901
-102.179
-100.51
-99.037
-97.876
-97.199
-97.277
-98.255
-100.072
-102.548
-105.387
-108.301
-111.051
-113.191
-114.02
-113.057
-110.325
-106.322
-101.86
-97.78
-94.821
-93.785
-95.78
-100.441
-105.401
-108.187
-106.995
-103.11
-99.77
-96.529
-87.207
-60.778
-7.393
75.322
181.553
300.653
423.829
544.829
656.416
748.615
809.674
832.082
817.541
776.819
722.101
660.745
594.489
519.793
434.643
341.126
242.7
145.151
53.155
-32.115
-109.263
-179.317
-244.013
-299.67
-343.718
-373.011
-384.009
-381.485
-370.154
-353.844
-337.351
-319.484
-299.183
-277.016
-252.512
-227.698
-204.19
-182.186
-162.605
-145.603
-130.933
-118.837
-108.959
-100.337
-92.513
-85.06
-77.322
-69.235
-60.892
-52.251
-43.752
-36.125
-29.724
-24.803
-21.637
-20.1
-19.986
-21.161
-23.24
-25.77
-28.492
-31.167
-33.569
-35.571
-37.024
-37.804
-37.911
-37.381
-36.236
-34.51
-32.226
-29.428
-26.194
-22.596
-18.681
-14.478
-9.999
-5.278
-0.379
4.606
9.575
14.456
19.206
23.794
28.207
32.439
36.496
40.415
44.248
48.033
51.802
55.575
59.359
63.175
67.053
71.026
75.138
79.419
83.886
88.553
93.426
98.502
103.774
109.221
114.807
120.505
126.287
132.126
138
143.881
149.738
155.54
161.253
166.846
172.285
177.54
182.577
187.366
191.878
196.086
199.969
203.502
206.664
209.431
211.783
213.702
215.17
216.175
216.701
216.74
216.284
215.329
213.875
211.924
209.48
206.551
203.147
199.281
194.969
190.229
185.081
179.547
173.65
167.416
160.87
154.042
146.958
139.65
132.146
124.479
116.678
108.775
100.799
92.781
84.75
76.734
68.76
60.856
53.046
45.355
37.806
30.42
23.218
16.218
9.435
2.885
-3.421
-9.472
-15.258
-20.774
-26.013
-30.971
-35.648
-40.043
-44.156
-47.99
-51.549
-54.839
-57.867
-60.638
-63.161
-65.446
-67.502
-69.338
-70.965
-72.393
-73.633
-74.697
-75.595
-76.339
-76.939
-77.407
-77.754
-77.99
-78.126
-78.172
-78.138
-78.033
-77.866
-77.646
-77.38
-77.076
-76.742
-76.383
-76.006
-75.615
-75.216
-74.812
-74.406
-74.002
-73.602
-73.208
-72.824
-72.449
-72.086
-71.737
-71.402
-71.082
-70.779
-70.492
-70.222
-69.97
-69.736
-69.52
-69.322
-69.141
-68.977
-68.829
-68.696
-68.577
-68.47
-68.374
-68.286
-68.204
-68.127
-68.052
-67.978
-67.902
-67.822
-67.736
-67.643
-67.539
-67.424
-67.294
-67.147
-66.98
-66.79
-66.575
-66.331
-66.055
-65.745
-65.396
-65.005
-64.569
-64.083
-63.544
-62.948
-62.293
-61.574
-60.791
-59.941
-59.023
-58.037
-56.982
-55.858
-54.666
-53.406
-52.08
-50.688
-49.234
-47.718
-46.145
-44.518
-42.839
-41.114
-39.348
-37.547
-35.716
-33.863
-31.994
-30.117
-28.243
-26.38
-24.54
-22.734
-20.975
-19.277
-17.656
-16.125
-14.701
-13.398
-12.23
-11.212
-10.356
-9.673
-9.173
-8.867
-8.764
-8.874
-9.207
-9.771
-10.574
-11.626
-12.93
-14.494
-16.316
-18.393
-20.719
-23.288
-26.097
-29.149
-32.44
-35.958
-39.692
-43.627
-47.742
-52.009
-56.383
-60.806
-65.219
-69.566
-73.802
-77.891
-81.792
-85.461
-88.846
-91.887
-94.537
-96.767
-98.553
-99.875
-100.717
-101.088
-101.07
-100.805
-100.424
-100.032
-99.684
-99.416
-99.321
-99.535
-100.145
-101.159
-102.559
-104.376
-106.748
-109.788
-113.453
-117.425
-121.279
-124.83
-127.755
-129.369
-129.089
-126.364
-121.666
-117.198
-113.693
-110.226
-104.698
-92.842
-74.722
-54.334
-36.129
-26.759
-28.236
-37.509
-49.168
-53.101
-38.711
2.073
72.163
168.428
283.229
405.734
526.169
633.775
716.221
765.209
776.608
753.003
704.808
641.107
566.763
483.659
389.647
284.606
172.95
59.958
-48.308
-146.34
-231.11
-300.965
-354.859
-393.072
-416.856
-427.346
-426.309
-416.278
-399.486
-378.134
-354.106
-328.191
-300.936
-273.06
-245.054
-217.439
-190.618
-164.693
-140.174
-117.936
-98.468
-82.087
-68.714
-57.611
-48.402
-40.916
-34.563
-28.86
-23.558
-18.384
-13.571
-9.869
-7.579
-6.779
-7.613
-9.893
-13.404
-18.006
-23.221
-28.363
-32.961
-36.676
-39.295
-40.847
-41.342
-40.757
-39.177
-36.718
-33.513
-29.714
-25.435
-20.754
-15.76
-10.553
-5.262
-0.054
4.939
9.637
13.994
18.004
21.663
24.965
27.929
30.595
33.021
35.266
37.378
39.393
41.354
43.314
45.338
47.504
49.867
52.461
55.315
58.44
61.849
65.552
69.546
73.814
78.338
83.104
88.099
93.315
98.734
104.332
110.083
115.956
121.923
127.956
134.027
140.103
146.153
152.147
158.055
163.848
169.497
174.967
180.226
185.239
189.974
194.399
198.482
202.194
205.505
208.39
210.827
212.794
214.275
215.251
215.711
215.644
215.043
213.903
212.222
210.003
207.248
203.967
200.171
195.873
191.089
185.837
180.14
174.021
167.506
160.621
153.395
145.861
138.048
129.991
121.723
113.28
104.697
96.008
87.249
78.456
69.664
60.905
52.212
43.618
35.152
26.843
18.718
10.804
3.123
-4.303
-11.454
-18.313
-24.864
-31.094
-36.993
-42.552
-47.765
-52.626
-57.134
-61.288
-65.089
-68.541
-71.647
-74.416
-76.855
-78.972
-80.78
-82.29
-83.515
-84.469
-85.167
-85.624
-85.856
-85.879
-85.71
-85.364
-84.86
-84.212
-83.437
-82.551
-81.568
-80.504
-79.373
-78.186
-76.958
-75.698
-74.419
-73.13
-71.84
-70.559
-69.293
-68.051
-66.839
-65.663
-64.528
-63.439
-62.401
-61.416
-60.488
-59.619
-58.811
-58.066
-57.384
-56.768
-56.217
-55.731
-55.312
-54.957
-54.669
-54.445
-54.286
-54.191
-54.16
-54.191
-54.286
-54.442
-54.661
-54.942
-55.283
-55.684
-56.144
-56.66
-57.232
-57.856
-58.53
-59.25
-60.013
-60.813
-61.647
-62.509
-63.394
-64.295
-65.208
-66.123
-67.034
-67.934
-68.817
-69.676
-70.505
-71.292
-72.027
-72.705
-73.322
-73.86
-74.302
-74.632
-74.831
-74.901
-74.854
-74.666
-74.315
-73.833
-73.242
-72.561
-71.822
-70.993
-70.018
-68.928
-67.784
-66.439
-64.718
-62.736
-60.489
-57.952
-55.52
-52.167
-46.899
-41.17
-35.428
-32.332
-35.063
-40.141
-45.255
-46.955
-40.494
-30.115
-19.421
-10.886
-8.588
-9.65
-11.158
-12.477
-11.838
-10.3
-9.222
-8.367
-7.92
-7.805
-7.761
-7.97
-8.582
-9.55
-10.856
-12.515
-14.519
-16.86
-19.545
-22.551
-25.841
-29.415
-33.266
-37.361
-41.673
-46.16
-50.758
-55.415
-60.075
-64.69
-69.218
-73.604
-77.793
-81.715
-85.292
-88.47
-91.193
-93.42
-95.13
-96.317
-97.002
-97.263
-97.149
-96.701
-96.099
-95.509
-95.12
-95.179
-95.75
-96.876
-98.795
-101.655
-105.154
-108.848
-112.089
-114.135
-114.884
-114.324
-112.077
-107.929
-102.545
-97.241
-93.761
-93.859
-97.019
-101.248
-105.579
-110.047
-116.88
-129.212
-146.095
-161.16
-163.34
-141.093
-88.884
-9.989
83.768
179.462
269.129
350.283
426.021
498.773
566.598
625.234
669.828
697.471
707.08
698.673
672.459
627.693
565.901
491.474
406.656
313.096
211.698
99.608
-18.877
-132.458
-230.942
-302.357
-344.064
-364.882
-372.887
-376.58
-379.305
-377.198
-368.454
-352.539
-330.491
-305.701
-279.608
-252.555
-224.804
-196.188
-167.397
-139.394
-112.972
-89.184
-68.904
-52.646
-40.732
-32.779
-27.777
-24.856
-23.124
-21.77
-20.345
-18.546
-16.251
-13.841
-11.996
-11.173
-11.69
-13.615
-16.743
-20.835
-25.566
-30.454
-34.92
-38.538
-41.063
-42.397
-42.594
-41.711
-39.803
-36.97
-33.374
-29.158
-24.442
-19.347
-13.952
-8.359
-2.718
2.851
8.247
13.395
18.274
22.879
27.203
31.256
35.067
38.666
42.101
45.416
48.639
51.811
54.975
58.18
61.491
64.958
68.613
72.48
76.567
80.876
85.407
90.15
95.082
100.184
105.436
110.816
116.311
121.902
127.561
133.261
138.972
144.662
150.303
155.868
161.326
166.649
171.809
176.78
181.54
186.063
190.324
194.295
197.952
201.27
204.225
206.798
208.966
210.713
212.022
212.882
213.284
213.221
212.687
211.681
210.203
208.257
205.847
202.982
199.672
195.929
191.768
187.207
182.264
176.96
171.319
165.365
159.122
152.62
145.886
138.949
131.838
124.583
117.215
109.764
102.26
94.733
87.213
79.727
72.304
64.971
57.752
50.671
43.751
37.011
30.47
24.146
18.053
12.204
6.611
1.283
-3.771
-8.546
-13.038
-17.244
-21.164
-24.798
-28.15
-31.224
-34.027
-36.565
-38.848
-40.887
-42.691
-44.273
-45.646
-46.823
-47.819
-48.647
-49.323
-49.862
-50.278
-50.586
-50.802
-50.939
-51.011
-51.032
-51.013
-50.967
-50.905
-50.836
-50.771
-50.718
-50.684
-50.678
-50.704
-50.768
-50.873
-51.023
-51.219
-51.463
-51.753
-52.089
-52.468
-52.887
-53.343
-53.832
-54.349
-54.888
-55.443
-56.009
-56.579
-57.146
-57.703
-58.244
-58.761
-59.248
-59.7
-60.109
-60.47
-60.778
-61.029
-61.219
-61.343
-61.397
-61.38
-61.287
-61.118
-60.87
-60.544
-60.138
-59.655
-59.095
-58.461
-57.756
-56.982
-56.143
-55.244
-54.289
-53.282
-52.226
-51.129
-49.998
-48.839
-47.66
-46.466
-45.26
-44.052
-42.854
-41.661
-40.471
-39.283
-38.092
-36.909
-35.758
-34.627
-33.505
-32.431
-31.433
-30.535
-29.77
-29.112
-28.51
-27.994
-27.615
-27.235
-26.687
-26.068
-25.37
-24.559
-23.99
-22.706
-19.778
-16.531
-13.364
-12.711
-17.483
-24.454
-31.473
-35.339
-31.655
-24.312
-16.612
-10.818
-10.67
-13.503
-16.618
-19.422
-20.275
-20.146
-20.278
-20.443
-20.807
-21.295
-21.669
-22.1
-22.729
-23.515
-24.451
-25.557
-26.834
-28.281
-29.901
-31.662
-33.524
-35.484
-37.543
-39.699
-41.964
-44.339
-46.816
-49.393
-52.069
-54.847
-57.719
-60.664
-63.626
-66.538
-69.351
-72.034
-74.581
-77.02
-79.345
-81.496
-83.401
-84.965
-86.11
-86.862
-87.194
-86.973
-86.191
-84.946
-83.483
-82.349
-81.999
-82.485
-83.788
-86.002
-89.032
-92.64
-96.42
-99.366
-100.182
-99.298
-97.438
-93.709
-88.548
-80.001
-65.874
-50.825
-38.708
-34.329
-43.081
-61.089
-84.108
-109.079
-131.408
-151.847
-170.129
-183.097
-188.743
-183.296
-164.046
-130.024
-79.474
-11.877
71.285
167.289
271.936
380.089
487.507
589.789
680.931
755.356
808.696
837.651
841.38
820.782
776.423
709.89
624.955
525.833
417.293
304.649
191.653
81.228
-23.081
-118.239
-202.072
-272.636
-329.028
-371.449
-399.823
-414.043
-414.611
-402.687
-380.243
-349.898
-314.247
-275.438
-235.573
-197.19
-163.013
-134.803
-113.152
-97.746
-87.595
-81.763
-79.386
-78.88
-78.066
-75.467
-70.431
-62.986
-53.841
-43.638
-32.839
-22.312
-13.286
-6.586
-2.575
-1.221
-1.984
-4.328
-7.876
-12.114
-16.443
-20.421
-23.677
-25.936
-27.326
-28.044
-27.982
-27.183
-25.737
-23.351
-21.01
-19.699
-18.25
-16.372
-11.88
-2.13
9.711
21.46
29.996
31.116
28.433
25.016
23.005
25.968
31.444
36.961
41.996
44.975
46.829
48.84
50.743
52.434
53.84
54.89
55.768
56.972
57.876
56.614
53.629
50.614
50.394
58.259
73.76
91.515
106.192
110.239
103.278
92.462
83.301
81.75
88.755
98.945
109.057
116.837
121.634
125.652
129.884
134.287
138.991
143.695
148.302
153.061
157.956
162.812
167.548
172.108
176.427
180.459
184.112
187.273
189.878
191.878
193.209
193.784
193.475
192.185
189.888
186.604
182.42
177.464
171.825
165.576
158.793
151.526
143.844
135.817
127.485
118.904
110.147
101.301
92.502
83.867
75.458
67.305
59.393
51.667
44.105
36.693
29.41
22.256
15.231
8.34
1.613
-4.917
-11.238
-17.35
-23.278
-29.05
-34.665
-40.111
-45.361
-50.374
-55.12
-59.577
-63.714
-67.516
-70.973
-74.084
-76.864
-79.334
-81.511
-83.403
-85.017
-86.358
-87.437
-88.267
-88.866
-89.251
-89.442
-89.458
-89.324
-89.059
-88.683
-88.211
-87.656
-87.028
-86.337
-85.595
-84.811
-83.995
-83.158
-82.309
-81.458
-80.614
-79.785
-78.978
-78.199
-77.451
-76.738
-76.063
-75.428
-74.834
-74.281
-73.77
-73.301
-72.875
-72.49
-72.145
-71.841
-71.575
-71.347
-71.154
-70.996
-70.87
-70.774
-70.707
-70.666
-70.652
-70.662
-70.697
-70.754
-70.835
-70.938
-71.063
-71.209
-71.375
-71.56
-71.762
-71.98
-72.213
-72.459
-72.716
-72.982
-73.256
-73.534
-73.815
-74.096
-74.372
-74.641
-74.899
-75.142
-75.366
-75.567
-75.739
-75.88
-75.984
-76.046
-76.06
-76.023
-75.927
-75.767
-75.539
-75.236
-74.852
-74.382
-73.822
-73.166
-72.411
-71.554
-70.593
-69.525
-68.35
-67.07
-65.685
-64.199
-62.615
-60.937
-59.172
-57.327
-55.409
-53.427
-51.39
-49.308
-47.191
-45.051
-42.9
-40.751
-38.621
-36.525
-34.483
-32.512
-30.632
-28.863
-27.223
-25.732
-24.405
-23.256
-22.298
-21.547
-21.016
-20.72
-20.672
-20.88
-21.351
-22.091
-23.101
-24.381
-25.925
-27.719
-29.755
-32.028
-34.541
-37.303
-40.321
-43.588
-47.094
-50.825
-54.762
-58.88
-63.139
-67.481
-71.848
-76.188
-80.454
-84.61
-88.603
-92.357
-95.792
-98.813
-101.334
-103.308
-104.698
-105.473
-105.632
-105.187
-104.166
-102.672
-100.824
-98.745
-96.586
-94.491
-92.602
-91.15
-90.437
-90.675
-91.905
-93.935
-96.316
-98.598
-100.458
-101.517
-101.236
-99.307
-95.931
-91.911
-88.75
-87.944
-90.286
-96.22
-106.146
-119.753
-135.653
-151.351
-162.965
-166.342
-158.489
-137.152
-100.347
-47.125
21.989
104.945
197.702
295.016
392.233
485.141
569.253
640.369
695.108
730.885
746.451
742.261
718.929
676.867
617.485
542.914
455.651
359.178
257.46
153.643
51.054
-46.181
-134.571
-211.108
-273.213
-320.098
-352.336
-370.562
-375.936
-370.597
-356.735
-336.77
-313.442
-288.362
-262.322
-236.175
-210.78
-186.859
-165.077
-145.768
-128.63
-113.692
-101.238
-91.274
-83.44
-76.873
-70.664
-64.188
-57.351
-50.179
-42.661
-34.874
-27.101
-20.059
-14.414
-10.58
-8.693
-8.554
-9.88
-12.436
-15.919
-19.842
-23.805
-27.454
-30.457
-32.718
-34.209
-34.889
-34.805
-34.01
-32.499
-30.316
-27.526
-24.172
-20.346
-16.129
-11.525
-6.583
-1.416
3.85
9.052
14.064
18.877
23.51
27.917
32.031
35.978
39.945
43.878
47.826
51.857
55.627
60.136
66.378
73.008
79.651
83.82
82.514
79.109
75.861
76.115
84.457
96.831
109.786
120.935
126.36
128.822
131.119
133.859
138.736
144.72
150.499
156.283
161.879
167.342
172.899
178.347
183.52
188.432
193.066
197.382
201.357
204.975
208.214
211.076
213.565
215.647
217.292
218.483
219.205
219.444
219.193
218.441
217.18
215.412
213.139
210.366
207.101
203.354
199.138
194.469
189.364
183.845
177.935
171.657
165.038
158.106
150.89
143.422
135.733
127.855
119.821
111.665
103.419
95.118
86.794
78.48
70.208
62.009
53.914
45.953
38.154
30.543
23.145
15.981
9.073
2.439
-3.906
-9.949
-15.676
-21.08
-26.153
-30.89
-35.288
-39.346
-43.066
-46.449
-49.502
-52.231
-54.643
-56.748
-58.557
-60.081
-61.333
-62.327
-63.077
-63.598
-63.905
-64.015
-63.943
-63.706
-63.321
-62.804
-62.172
-61.44
-60.624
-59.739
-58.797
-57.814
-56.801
-55.77
-54.731
-53.696
-52.673
-51.67
-50.695
-49.756
-48.857
-48.004
-47.202
-46.453
-45.762
-45.13
-44.56
-44.052
-43.609
-43.23
-42.916
-42.667
-42.48
-42.357
-42.294
-42.291
-42.344
-42.453
-42.614
-42.824
-43.083
-43.386
-43.731
-44.116
-44.537
-44.991
-45.476
-45.989
-46.526
-47.083
-47.658
-48.246
-48.845
-49.45
-50.056
-50.66
-51.258
-51.843
-52.412
-52.96
-53.48
-53.969
-54.42
-54.829
-55.191
-55.502
-55.756
-55.949
-56.077
-56.135
-56.118
-56.023
-55.845
-55.581
-55.227
-54.78
-54.239
-53.601
-52.864
-52.028
-51.093
-50.059
-48.926
-47.696
-46.372
-44.956
-43.452
-41.867
-40.204
-38.471
-36.674
-34.823
-32.925
-30.99
-29.028
-27.047
-25.058
-23.073
-21.101
-19.154
-17.245
-15.387
-13.596
-11.888
-10.279
-8.784
-7.421
-6.205
-5.15
-4.271
-3.577
-3.077
-2.78
-2.695
-2.832
-3.202
-3.811
-4.662
-5.759
-7.105
-8.7
-10.542
-12.617
-14.914
-17.425
-20.147
-23.088
-26.252
-29.633
-33.221
-37.003
-40.959
-45.066
-49.286
-53.561
-57.834
-62.046
-66.149
-70.111
-73.892
-77.438
-80.681
-83.546
-85.963
-87.897
-89.323
-90.219
-90.588
-90.462
-89.903
-89.018
-87.925
-86.738
-85.573
-84.561
-83.84
-83.55
-83.882
-85.069
-87.258
-90.467
-94.538
-99.11
-103.775
-108.162
-111.784
-114.04
-114.525
-113.14
-110.337
-107.146
-104.632
-103.646
-104.889
-108.904
-115.853
-125.281
-135.555
-143.901
-147.156
-142.198
-126.418
-97.625
-53.979
5.344
79.433
165.694
260.052
357.533
453.411
542.713
619.947
680.324
720.162
736.935
730.225
701.005
650.327
580.447
494.994
397.745
292.974
185.367
78.43
-24.751
-120.625
-206.644
-281.065
-342.123
-389.053
-422.185
-441.661
-448.236
-443.599
-429.034
-406.13
-377.424
-345.218
-311.387
-278.065
-246.643
-217.912
-193.093
-172.74
-156.272
-142.908
-131.633
-121.046
-110.455
-99.462
-87.248
-73.6
-58.961
-43.912
-29.429
-16.648
-6.052
2.126
7.515
10.15
10.265
8.16
4.49
-0.046
-5.055
-10.252
-15.353
-20.167
-24.456
-27.968
-30.633
-32.447
-33.394
-33.475
-32.675
-30.995
-28.506
-25.316
-21.534
-17.25
-12.528
-7.42
-2.013
3.583
9.245
14.842
20.295
25.554
30.581
35.357
39.875
44.146
48.207
52.11
55.9
59.613
63.273
66.897
70.513
74.159
77.875
81.708
85.687
89.828
94.142
98.634
103.297
108.123
113.086
118.155
123.302
128.502
133.732
138.97
144.194
149.373
154.482
159.488
164.364
169.08
173.609
177.923
181.995
185.801
189.318
192.526
195.406
197.937
200.099
201.872
203.238
204.183
204.692
204.752
204.353
203.487
202.15
200.339
198.056
195.303
192.085
188.409
184.287
179.729
174.75
169.368
163.6
157.465
150.987
144.188
137.093
129.728
122.121
114.301
106.296
98.137
89.854
81.478
73.039
64.569
56.096
47.652
39.264
30.962
22.773
14.723
6.838
-0.859
-8.346
-15.601
-22.607
-29.347
-35.806
-41.97
-47.828
-53.372
-58.593
-63.485
-68.045
-72.271
-76.161
-79.718
-82.944
-85.844
-88.425
-90.694
-92.66
-94.335
-95.73
-96.858
-97.733
-98.369
-98.782
-98.987
-99
-98.838
-98.518
-98.056
-97.47
-96.774
-95.987
-95.123
-94.198
-93.226
-92.223
-91.2
-90.17
-89.146
-88.137
-87.154
-86.206
-85.301
-84.447
-83.65
-82.914
-82.245
-81.645
-81.117
-80.662
-80.28
-79.97
-79.732
-79.562
-79.459
-79.418
-79.437
-79.51
-79.634
-79.803
-80.013
-80.257
-80.53
-80.825
-81.138
-81.463
-81.793
-82.124
-82.45
-82.765
-83.066
-83.348
-83.606
-83.837
-84.036
-84.2
-84.325
-84.41
-84.45
-84.445
-84.392
-84.29
-84.139
-83.939
-83.688
-83.388
-83.038
-82.639
-82.191
-81.693
-81.147
-80.552
-79.909
-79.218
-78.481
-77.698
-76.87
-75.998
-75.082
-74.122
-73.121
-72.077
-70.992
-69.866
-68.7
-67.493
-66.249
-64.968
-63.652
-62.301
-60.919
-59.507
-58.067
-56.602
-55.115
-53.607
-52.084
-50.549
-49.007
-47.464
-45.926
-44.401
-42.9
-41.432
-40.01
-38.643
-37.345
-36.126
-35
-33.977
-33.066
-32.275
-31.615
-31.094
-30.724
-30.519
-30.488
-30.639
-30.982
-31.523
-32.27
-33.227
-34.388
-35.749
-37.309
-39.071
-41.049
-43.255
-45.686
-48.338
-51.204
-54.265
-57.502
-60.879
-64.339
-67.83
-71.3
-74.708
-78.031
-81.238
-84.285
-87.116
-89.659
-91.851
-93.658
-95.054
-96.011
-96.543
-96.684
-96.504
-96.125
-95.646
-95.156
-94.745
-94.483
-94.447
-94.748
-95.493
-96.851
-99.048
-102.155
-106.112
-110.769
-115.76
-120.663
-125.09
-128.445
-129.997
-129.413
-126.748
-122.348
-117.208
-112.487
-108.95
-107.488
-108.291
-110.003
-111.135
-110.699
-109.592
-110.1
-112.185
-111.051
-95.644
-54.479
16.846
113.915
223.327
330.706
428.161
512.931
585.274
644.889
688.619
713.133
717.554
701.467
664.216
605.026
522.453
420.712
309.14
197.853
97.779
11.816
-63.922
-132.461
-198.174
-260.357
-313.001
-353.369
-379.364
-390.648
-390.476
-380.826
-362.962
-339.017
-310.735
-279.522
-247.387
-216.282
-187.499
-162.348
-141.582
-124.915
-111.635
-101.195
-92.676
-84.851
-76.818
-67.593
-56.762
-44.788
-32.135
-19.324
-7.142
3.879
12.273
16.633
17.942
16.763
15.709
17.942
20.936
23.178
22.049
13.747
2.255
-9.064
-17.889
-20.591
-19.65
-17.639
-15.124
-13.629
-12.269
-9.932
-6.922
-3.208
1.05
5.57
10.431
15.662
21.097
26.554
31.93
37.163
42.192
46.985
51.497
55.673
59.537
63.153
66.56
69.804
72.916
75.909
78.819
81.693
84.582
87.546
90.629
93.849
97.228
100.781
104.513
108.429
112.518
116.751
121.107
125.569
130.121
134.749
139.436
144.155
148.88
153.589
158.254
162.854
167.363
171.755
176.007
180.096
183.999
187.698
191.172
194.399
197.354
200.015
202.361
204.373
206.031
207.316
208.209
208.695
208.762
208.401
207.606
206.368
204.678
202.544
199.975
196.98
193.576
189.762
185.53
180.908
175.925
170.563
164.814
158.68
152.149
145.272
138.125
130.705
122.988
115.137
107.342
99.536
91.759
84.07
76.154
68.972
63.461
58.354
53.286
45.904
33.381
18.898
4.582
-6.415
-9.772
-9.276
-8.135
-8.545
-14.146
-22.315
-30.399
-37.802
-42.906
-46.645
-50.223
-53.411
-56.365
-59.011
-61.11
-62.831
-64.312
-65.521
-66.461
-67.161
-67.63
-67.875
-67.911
-67.73
-67.324
-66.721
-65.946
-65.018
-63.961
-62.783
-61.491
-60.1
-58.619
-57.072
-55.492
-53.877
-52.228
-50.592
-49.009
-47.512
-46.144
-44.887
-43.697
-42.612
-41.693
-40.803
-39.78
-38.728
-37.642
-36.492
-35.642
-34.117
-30.967
-27.549
-24.274
-23.635
-28.612
-35.901
-43.295
-47.512
-44.044
-36.87
-29.364
-23.835
-24.104
-27.433
-31.046
-34.323
-35.57
-35.765
-36.164
-36.523
-36.998
-37.503
-37.776
-37.982
-38.251
-38.536
-38.821
-39.121
-39.426
-39.724
-40.005
-40.241
-40.4
-40.488
-40.516
-40.474
-40.363
-40.18
-39.92
-39.585
-39.179
-38.698
-38.14
-37.503
-36.787
-35.99
-35.113
-34.158
-33.124
-32.014
-30.828
-29.57
-28.246
-26.86
-25.412
-23.902
-22.331
-20.704
-19.031
-17.321
-15.574
-13.795
-12.01
-10.255
-8.568
-6.966
-5.439
-3.977
-2.604
-1.324
-0.087
1.192
2.594
4.146
5.776
7.406
9.067
10.693
11.964
12.613
12.577
11.908
10.941
9.052
4.316
-4.037
-14.78
-23.278
-22.633
-9.979
11.095
30.78
37.677
26.894
2.636
-24.079
-42.604
-48.545
-44.505
-37.571
-33.227
-33.22
-36.637
-41.076
-45.348
-49.555
-53.871
-58.463
-63.171
-67.636
-71.732
-75.461
-78.75
-81.517
-83.705
-85.265
-86.207
-86.566
-86.31
-85.392
-83.817
-81.597
-78.813
-75.637
-72.209
-68.688
-65.261
-62.058
-59.314
-57.35
-56.357
-56.436
-57.481
-59.097
-60.963
-62.881
-64.5
-65.405
-65.308
-64.029
-62.075
-60.598
-60.55
-62.637
-67.279
-74.562
-84.419
-96.342
-108.531
-118.087
-121.99
-117.262
-101.691
-73.8
-32.123
24.108
93.99
175.112
264.084
356.583
448.633
536.692
616.385
683.294
734.004
765.92
777.493
768.789
740.1
691.654
625.228
543.632
450.016
348.435
243.132
137.386
34.63
-61.129
-146.705
-219.504
-277.517
-320.411
-348.768
-362.921
-363.633
-352.612
-331.966
-304.415
-272.854
-239.178
-204.835
-171.641
-141.528
-115.996
-95.76
-80.533
-69.474
-61.997
-57.565
-55.202
-53.427
-50.779
-46.465
-40.424
-33.068
-24.869
-16.203
-7.619
-0.053
5.621
8.984
9.998
8.995
6.464
2.765
-1.699
-6.345
-10.677
-14.349
-17.109
-18.914
-19.811
-19.789
-18.879
-17.148
-14.626
-11.385
-7.529
-3.13
1.717
6.902
12.34
17.907
23.452
28.865
34.048
38.936
43.511
47.749
51.625
55.137
58.293
61.115
63.646
65.92
67.962
69.809
71.5
73.089
74.64
76.202
77.805
79.473
81.22
83.056
84.995
87.037
89.172
91.393
93.69
96.058
98.495
100.995
103.542
106.122
108.717
111.311
113.889
116.437
118.937
121.373
123.729
125.99
128.142
130.171
132.058
133.785
135.334
136.685
137.821
138.725
139.379
139.767
139.875
139.692
139.206
138.411
137.298
135.861
134.097
132.005
129.584
126.837
123.767
120.38
116.684
112.688
108.406
103.85
99.035
93.978
88.698
83.213
77.546
71.718
65.75
59.667
53.492
47.25
40.964
34.66
28.361
22.091
15.872
9.727
3.678
-2.257
-8.058
-13.708
-19.193
-24.496
-29.606
-34.512
-39.202
-43.67
-47.909
-51.912
-55.677
-59.202
-62.485
-65.53
-68.338
-70.913
-73.261
-75.39
-77.306
-79.02
-80.54
-81.877
-83.044
-84.051
-84.91
-85.636
-86.239
-86.732
-87.129
-87.44
-87.678
-87.853
-87.975
-88.055
-88.099
-88.117
-88.115
-88.101
-88.079
-88.054
-88.031
-88.014
-88.005
-88.005
-88.017
-88.041
-88.077
-88.123
-88.179
-88.243
-88.313
-88.387
-88.46
-88.531
-88.596
-88.651
-88.693
-88.718
-88.723
-88.705
-88.659
-88.585
-88.478
-88.338
-88.164
-87.954
-87.708
-87.428
-87.114
-86.768
-86.391
-85.985
-85.553
-85.097
-84.619
-84.123
-83.611
-83.087
-82.553
-82.012
-81.468
-80.922
-80.378
-79.837
-79.3
-78.769
-78.246
-77.732
-77.226
-76.731
-76.244
-75.768
-75.302
-74.844
-74.394
-73.949
-73.507
-73.066
-72.622
-72.171
-71.708
-71.229
-70.728
-70.202
-69.644
-69.051
-68.417
-67.737
-67.007
-66.223
-65.382
-64.479
-63.512
-62.478
-61.378
-60.21
-58.977
-57.677
-56.315
-54.892
-53.412
-51.88
-50.302
-48.682
-47.025
-45.34
-43.634
-41.914
-40.191
-38.475
-36.778
-35.114
-33.498
-31.946
-30.473
-29.097
-27.831
-26.694
-25.699
-24.859
-24.184
-23.686
-23.375
-23.267
-23.371
-23.696
-24.25
-25.038
-26.064
-27.33
-28.836
-30.57
-32.524
-34.691
-37.07
-39.67
-42.494
-45.537
-48.79
-52.238
-55.862
-59.637
-63.528
-67.477
-71.427
-75.324
-79.119
-82.781
-86.269
-89.529
-92.492
-95.078
-97.218
-98.872
-100.015
-100.627
-100.707
-100.28
-99.4
-98.165
-96.692
-95.088
-93.444
-91.852
-90.42
-89.275
-88.625
-88.715
-89.664
-91.484
-94.081
-97.207
-100.567
-103.86
-106.555
-108.006
-107.893
-106.11
-102.818
-98.797
-95.011
-92.283
-91.616
-92.886
-94.273
-94.538
-93.228
-92.219
-95.322
-102.336
-107.266
-98.375
-62.753
4.817
98.994
206.166
311.687
406.58
489.087
561.649
624.885
676.396
712.104
727.625
721.691
695.449
650.119
587.741
510.961
422.447
325.736
224.839
122.778
22.235
-73.682
-162.032
-240.083
-305.419
-356.731
-393.741
-416.304
-424.465
-418.883
-401.113
-373.619
-339.265
-300.717
-260.229
-219.873
-181.991
-149.031
-122.342
-102.092
-87.844
-78.74
-73.876
-72.427
-72.918
-73.217
-72.023
-68.921
-63.91
-57.511
-50.218
-42.31
-34.561
-28.205
-23.939
-21.972
-22.207
-24.098
-27.196
-31.234
-35.698
-39.975
-43.635
-46.363
-48.04
-48.755
-48.544
-47.415
-45.435
-42.669
-39.216
-35.202
-30.726
-25.886
-20.789
-15.535
-10.262
-5.082
-0.077
4.681
9.156
13.342
17.223
20.804
24.107
27.145
29.952
32.577
35.055
37.437
39.776
42.125
44.552
47.112
49.841
52.769
55.913
59.281
62.881
66.714
70.768
75.037
79.512
84.181
89.035
94.061
99.24
104.549
109.963
115.452
120.994
126.562
132.13
137.67
143.155
148.559
153.857
159.022
164.023
168.831
173.414
177.743
181.787
185.518
188.91
191.935
194.57
196.796
198.593
199.945
200.837
201.257
201.195
200.643
199.597
198.054
196.013
193.479
190.457
186.957
182.989
178.57
173.714
168.441
162.771
156.729
150.338
143.625
136.618
129.346
121.84
114.131
106.251
98.234
90.11
81.912
73.672
65.422
57.19
49.006
40.898
32.894
25.018
17.296
9.751
2.403
-4.726
-11.618
-18.257
-24.627
-30.717
-36.515
-42.012
-47.201
-52.077
-56.636
-60.875
-64.796
-68.399
-71.687
-74.666
-77.342
-79.722
-81.815
-83.631
-85.18
-86.473
-87.521
-88.338
-88.933
-89.321
-89.512
-89.521
-89.359
-89.039
-88.573
-87.976
-87.257
-86.43
-85.505
-84.495
-83.41
-82.26
-81.055
-79.805
-78.519
-77.206
-75.873
-74.528
-73.179
-71.832
-70.493
-69.167
-67.858
-66.572
-65.312
-64.081
-62.885
-61.725
-60.606
-59.53
-58.502
-57.523
-56.597
-55.726
-54.913
-54.161
-53.47
-52.843
-52.282
-51.788
-51.362
-51.005
-50.717
-50.5
-50.352
-50.274
-50.263
-50.319
-50.441
-50.624
-50.869
-51.171
-51.527
-51.935
-52.391
-52.89
-53.427
-53.997
-54.595
-55.212
-55.843
-56.48
-57.115
-57.739
-58.345
-58.924
-59.468
-59.968
-60.417
-60.805
-61.126
-61.37
-61.531
-61.601
-61.574
-61.444
-61.205
-60.853
-60.384
-59.796
-59.084
-58.248
-57.286
-56.199
-54.986
-53.648
-52.188
-50.609
-48.917
-47.115
-45.213
-43.217
-41.138
-38.985
-36.77
-34.506
-32.205
-29.88
-27.545
-25.215
-22.905
-20.629
-18.402
-16.244
-14.17
-12.201
-10.352
-8.643
-7.092
-5.714
-4.527
-3.544
-2.775
-2.232
-1.923
-1.858
-2.049
-2.504
-3.23
-4.232
-5.512
-7.071
-8.91
-11.022
-13.393
-16.008
-18.855
-21.929
-25.234
-28.769
-32.525
-36.49
-40.647
-44.972
-49.441
-54.011
-58.624
-63.219
-67.736
-72.124
-76.349
-80.366
-84.121
-87.546
-90.558
-93.088
-95.085
-96.511
-97.345
-97.585
-97.253
-96.41
-95.154
-93.595
-91.866
-90.101
-88.431
-86.991
-85.905
-85.364
-85.637
-86.912
-89.249
-92.489
-96.283
-100.312
-104.283
-107.761
-110.164
-110.98
-109.97
-107.661
-105.039
-102.812
-101.8
-102.746
-105.999
-112.151
-120.315
-126.968
-129.748
-127.253
-119.102
-108.009
-91.575
-62.514
-14.372
59.43
156.698
266.864
379.76
485.159
577.983
657.905
722.89
771.342
800.71
807.256
790.25
749.925
686.966
604.358
505.714
394.58
276.69
158.657
44.049
-63.884
-163.473
-256.748
-340.225
-406.869
-451.21
-465.875
-451.779
-419.2
-377.405
-336.592
-301.752
-270.363
-241.315
-214.13
-189.633
-170.53
-157.317
-148.576
-142.445
-136.949
-130.616
-122.643
-112.317
-99.218
-83.57
-66.22
-48.365
-31.184
-15.812
-2.949
7.01
13.787
17.439
18.274
16.735
13.45
9.141
4.268
-0.879
-6.038
-11.049
-15.675
-19.639
-22.817
-25.179
-26.689
-27.339
-27.095
-25.914
-23.847
-20.997
-17.477
-13.419
-8.9
-3.967
1.293
6.777
12.348
17.85
23.188
28.313
33.185
37.783
42.09
46.098
49.842
53.381
56.766
60.046
63.249
66.396
69.52
72.667
75.887
79.239
82.759
86.468
90.384
94.518
98.873
103.449
108.229
113.183
118.286
123.52
128.864
134.301
139.809
145.359
150.923
156.47
161.971
167.397
172.718
177.903
182.924
187.752
192.362
196.73
200.832
204.642
208.134
211.284
214.068
216.466
218.455
220.019
221.14
221.807
222.007
221.735
220.984
219.753
218.042
215.853
213.191
210.064
206.484
202.463
198.017
193.165
187.925
182.321
176.376
170.115
163.566
156.757
149.716
142.474
135.06
127.507
119.844
112.103
104.314
96.509
88.716
80.966
73.285
65.701
58.24
50.927
43.782
36.829
30.086
23.57
17.298
11.284
5.538
0.072
-5.106
-9.992
-14.581
-18.871
-22.863
-26.558
-29.96
-33.075
-35.909
-38.469
-40.765
-42.808
-44.607
-46.175
-47.525
-48.669
-49.621
-50.394
-51.003
-51.46
-51.78
-51.977
-52.063
-52.052
-51.956
-51.788
-51.561
-51.286
-50.973
-50.634
-50.278
-49.913
-49.548
-49.189
-48.843
-48.514
-48.206
-47.922
-47.664
-47.435
-47.234
-47.062
-46.919
-46.803
-46.712
-46.646
-46.603
-46.58
-46.575
-46.587
-46.613
-46.652
-46.703
-46.763
-46.832
-46.907
-46.987
-47.07
-47.156
-47.241
-47.325
-47.407
-47.485
-47.557
-47.625
-47.686
-47.741
-47.791
-47.834
-47.872
-47.906
-47.937
-47.964
-47.991
-48.017
-48.045
-48.075
-48.107
-48.142
-48.18
-48.221
-48.262
-48.302
-48.338
-48.369
-48.39
-48.398
-48.391
-48.364
-48.314
-48.237
-48.129
-47.988
-47.808
-47.585
-47.316
-46.996
-46.622
-46.189
-45.695
-45.135
-44.507
-43.806
-43.032
-42.18
-41.249
-40.237
-39.141
-37.961
-36.697
-35.351
-33.925
-32.421
-30.845
-29.202
-27.5
-25.746
-23.949
-22.119
-20.264
-18.396
-16.525
-14.664
-12.825
-11.021
-9.266
-7.579
-5.974
-4.471
-3.085
-1.832
-0.731
0.205
0.961
1.528
1.893
2.047
1.978
1.672
1.123
0.323
-0.733
-2.045
-3.616
-5.444
-7.519
-9.827
-12.356
-15.097
-18.049
-21.218
-24.601
-28.187
-31.96
-35.906
-40.003
-44.23
-48.546
-52.896
-57.225
-61.483
-65.63
-69.634
-73.449
-77.008
-80.234
-83.045
-85.38
-87.203
-88.487
-89.201
-89.343
-88.924
-87.98
-86.614
-84.933
-83.038
-81.065
-79.142
-77.384
-76.002
-75.267
-75.344
-76.285
-77.938
-79.909
-81.852
-83.5
-84.458
-84.267
-82.576
-79.27
-74.922
-70.725
-67.767
-66.911
-68.737
-73.575
-81.679
-92.823
-105.394
-116.537
-123.028
-121.72
-110.364
-86.94
-49.07
4.899
75.157
158.655
249.384
341.831
431.657
517.807
602.2
682.321
751.981
800.585
813.185
782.641
709.347
600.231
470.378
332.12
195.383
70.521
-36.983
-123.599
-188.922
-239.682
-282.302
-319.79
-352.629
-376.632
-388.488
-388.994
-380.782
-367.768
-352.748
-336.596
-319.075
-299.4
-277.272
-252.757
-225.852
-196.852
-166.456
-135.254
-104.447
-75.969
-51.272
-31.211
-16.344
-6.403
-0.485
1.922
1.605
-0.066
-2.152
-4.044
-5.292
-6.142
-7.21
-8.642
-10.514
-13.029
-16.065
-19.474
-23.112
-26.506
-29.117
-30.661
-30.984
-30.034
-27.93
-24.772
-20.651
-15.762
-10.309
-4.483
1.536
7.607
13.611
19.437
24.982
30.166
34.934
39.263
43.154
46.63
49.729
52.492
54.973
57.226
59.3
61.255
63.15
65.048
67.018
69.116
71.383
73.856
76.56
79.511
82.72
86.186
89.896
93.842
98.013
102.398
106.99
111.773
116.73
121.838
127.072
132.406
137.816
143.274
148.752
154.221
159.652
165.016
170.287
175.435
180.429
185.235
189.821
194.154
198.203
201.937
205.326
208.34
210.954
213.144
214.89
216.172
216.973
217.278
217.075
216.356
215.114
213.348
211.057
208.245
204.917
201.085
196.76
191.958
186.698
181
174.888
168.386
161.523
154.329
146.833
139.069
131.07
122.87
114.504
106.008
97.416
88.764
80.086
71.417
62.789
54.235
45.786
37.473
29.322
21.362
13.617
6.11
-1.139
-8.11
-14.788
-21.158
-27.207
-32.926
-38.308
-43.348
-48.041
-52.387
-56.387
-60.043
-63.362
-66.349
-69.013
-71.363
-73.411
-75.17
-76.651
-77.871
-78.842
-79.582
-80.105
-80.429
-80.57
-80.546
-80.374
-80.071
-79.654
-79.14
-78.545
-77.885
-77.175
-76.43
-75.663
-74.888
-74.116
-73.359
-72.627
-71.931
-71.278
-70.677
-70.134
-69.656
-69.246
-68.909
-68.647
-68.463
-68.358
-68.333
-68.388
-68.523
-68.736
-69.025
-69.389
-69.825
-70.328
-70.897
-71.525
-72.21
-72.945
-73.726
-74.549
-75.407
-76.296
-77.211
-78.145
-79.094
-80.053
-81.017
-81.98
-82.937
-83.885
-84.818
-85.733
-86.627
-87.494
-88.334
-89.143
-89.92
-90.661
-91.366
-92.034
-92.663
-93.254
-93.806
-94.32
-94.796
-95.236
-95.642
-96.016
-96.359
-96.676
-96.968
-97.238
-97.491
-97.729
-97.957
-98.177
-98.395
-98.613
-98.837
-99.07
-99.315
-99.577
-99.86
-100.165
-100.498
-100.859
-101.252
-101.678
-102.14
-102.637
-103.171
-103.741
-104.348
-104.988
-105.661
-106.364
-107.093
-107.844
-108.612
-109.391
-110.174
-110.955
-111.726
-112.479
