Name,John Breau
Date of Birth,"Dec 20, 1971"
Recorded Date,2023-06-12 12:26:25 -0500
Classification,Sinus Rhythm
Symptoms,
Software Version,1.90
Device,"Watch6,3"
Sample Rate,512 hertz


Lead,Lead I
Unit,µV

986.993
948.647
916.051
886.835
858.742
829.967
798.95
765.337
730.003
693.984
658.293
623.969
591.646
561.362
532.604
504.205
474.655
442.429
406.044
364.112
315.55
260.559
200.899
138.598
75.177
12.181
-48.809
-105.697
-155.557
-198.197
-237.213
-275.815
-315.622
-353.691
-381.047
-392.279
-389.695
-384.306
-397.547
-447.579
-537.962
-655.739
-770.232
-848.079
-873.693
-851.848
-804.435
-760.043
-732.018
-718.58
-712.846
-703.783
-689.239
-674.069
-657.523
-639.435
-617.732
-588.124
-552.995
-515.23
-476.007
-437.506
-399.655
-362.291
-326.571
-292.843
-260.906
-230.27
-200.548
-171.877
-144.56
-119.141
-96.339
-77.104
-63.257
-56.925
-59.33
-70.977
-92.168
-122.641
-162.018
-209.787
-264.025
-322.193
-382.377
-442.873
-501.885
-557.8
-608.444
-651.251
-685.055
-709.497
-724.125
-728.891
-724.059
-710.035
-688.2
-660.875
-629.58
-595.016
-557.888
-518.548
-476.975
-434.363
-391.309
-345.958
-297.778
-244.891
-185.218
-122.421
-59.17
1.145
53.899
101.599
146.475
190.001
235.096
279.329
320.226
357.088
388.393
414.954
437.842
457.002
472.795
485.305
494.521
500.94
505.061
507.04
507.134
505.613
502.375
498.428
494.763
490.405
485.188
477.179
464.015
448.628
432.953
419.829
413.107
409.373
405.734
400.189
389.461
375.934
362.056
348.423
336.543
325.593
314.485
303.419
292.242
281.049
270.108
259.334
248.695
238.303
228.235
218.533
209.238
200.357
191.858
183.733
175.984
168.603
161.603
155.021
148.899
143.277
138.197
133.673
129.706
126.291
123.413
121.061
119.227
117.911
117.127
116.873
117.128
117.849
118.969
120.39
121.999
123.654
125.191
126.461
127.327
127.667
127.39
126.411
124.657
122.068
118.59
114.184
108.833
102.546
95.351
87.317
78.541
69.159
59.353
49.306
39.194
29.183
19.409
9.991
1.042
-7.341
-15.071
-22.051
-28.205
-33.471
-37.799
-41.187
-43.68
-45.355
-46.353
-46.84
-46.96
-46.884
-46.792
-46.841
-47.221
-48.115
-49.654
-52.054
-55.591
-60.427
-66.612
-73.959
-81.962
-90.098
-97.916
-104.836
-110.24
-113.709
-115.072
-114.841
-114.245
-114.524
-116.652
-121.297
-128.803
-139.075
-151.411
-163.888
-173.337
-176.182
-168.984
-149.01
-114.161
-62.933
5.198
89.244
186.489
292.859
403.502
513.622
618.289
712.368
790.951
849.613
885.081
895.634
880.547
839.678
774.035
685.842
579.647
462.338
340.317
218.635
99.475
-17.15
-128.893
-230
-310.736
-360.661
-373.981
-352.437
-307.389
-254.759
-210.432
-184.929
-178.394
-184.525
-193.168
-195.872
-190.072
-176.833
-160.049
-142.536
-124.817
-106.724
-87.227
-66.279
-44.958
-24.281
-5.386
10.855
24.245
34.816
42.703
48.2
51.554
52.97
52.717
51.137
48.58
45.326
41.624
37.84
34.358
31.336
28.985
27.503
26.685
27.407
30.49
34.713
39.659
43.085
42.296
40.034
38.072
39.12
46.944
57.941
69.036
78.074
81.617
81.951
81.426
80.55
80.786
81.288
80.98
80.104
78.56
76.473
74.119
71.399
68.256
64.786
61.065
57.149
53.104
48.988
44.849
40.746
36.734
32.835
29.061
25.433
21.971
18.691
15.616
12.762
10.145
7.778
5.673
3.836
2.276
0.997
0.005
-0.701
-1.119
-1.252
-1.105
-0.68
0.012
0.96
2.149
3.561
5.178
6.979
8.942
11.042
13.255
15.557
17.921
20.322
22.736
25.135
27.494
29.788
31.993
34.086
36.043
37.842
39.464
40.889
42.099
43.079
43.815
44.292
44.502
44.434
44.082
43.442
42.511
41.288
39.774
37.973
35.89
33.532
30.909
28.031
24.911
21.562
18
14.241
10.303
6.203
1.961
-2.404
-6.871
-11.422
-16.036
-20.692
-25.371
-30.053
-34.718
-39.348
-43.925
-48.429
-52.845
-57.156
-61.346
-65.402
-69.309
-73.054
-76.628
-80.021
-83.228
-86.241
-89.054
-91.657
-94.05
-96.235
-98.204
-99.953
-101.477
-102.762
-103.832
-104.715
-105.408
-105.915
-106.266
-106.476
-106.583
-106.638
-106.596
-106.394
-106.049
-105.588
-104.921
-103.962
-102.778
-101.323
-99.706
-98.399
-96.475
-93.128
-89.572
-85.848
-84.993
-90.446
-98.146
-105.824
-108.425
-99.396
-85.136
-70.537
-60.53
-62.444
-70.366
-78.887
-85.416
-85.085
-81.18
-77.267
-73.688
-72.091
-71.531
-70.664
-69.851
-69.067
-68.35
-67.922
-67.647
-67.405
-67.228
-67.121
-67.051
-66.996
-66.975
-67.003
-67.098
-67.285
-67.553
-67.888
-68.298
-68.783
-69.339
-69.968
-70.664
-71.422
-72.243
-73.126
-74.07
-75.072
-76.13
-77.24
-78.399
-79.604
-80.851
-82.136
-83.454
-84.801
-86.172
-87.558
-88.955
-90.355
-91.753
-93.147
-94.526
-95.878
-97.208
-98.516
-99.801
-101.067
-102.301
-103.481
-104.615
-105.713
-106.738
-107.663
-108.464
-109.109
-109.618
-110.037
-110.335
-110.462
-110.542
-110.724
-110.918
-111.131
-111.393
-111.381
-111.969
-114.009
-116.29
-118.446
-118.252
-113.041
-105.771
-98.416
-93.912
-96.289
-101.992
-108.005
-112.264
-111.356
-107.729
-103.866
-100.325
-98.619
-97.876
-96.974
-96.132
-95.211
-94.291
-93.605
-93.007
-92.383
-91.775
-91.195
-90.631
-90.089
-89.576
-89.097
-88.674
-88.33
-88.051
-87.825
-87.652
-87.53
-87.456
-87.43
-87.445
-87.494
-87.578
-87.692
-87.831
-87.988
-88.153
-88.317
-88.47
-88.603
-88.709
-88.781
-88.808
-88.785
-88.707
-88.567
-88.356
-88.065
-87.676
-87.176
-86.562
-85.835
-85.002
-84.076
-83.069
-81.995
-80.875
-79.723
-78.546
-77.341
-76.091
-74.776
-73.391
-71.938
-70.434
-68.897
-67.326
-65.719
-64.073
-62.371
-60.599
-58.741
-56.757
-54.63
-52.372
-50.013
-47.622
-45.283
-43.057
-40.99
-39.12
-37.473
-36.094
-35.029
-34.314
-33.998
-34.134
-34.773
-36.002
-37.884
-40.435
-43.656
-47.499
-51.88
-56.746
-62.052
-67.741
-73.775
-80.091
-86.614
-93.283
-100.025
-106.759
-113.398
-119.824
-125.92
-131.605
-136.803
-141.465
-145.579
-149.118
-152.054
-154.402
-156.174
-157.411
-158.194
-158.578
-158.633
-158.471
-158.212
-158.008
-158.042
-158.453
-159.424
-161.212
-163.951
-167.678
-172.286
-177.38
-182.535
-187.391
-191.426
-194.032
-194.841
-193.716
-191.012
-187.781
-185.031
-183.575
-184.241
-187.618
-193.868
-202.586
-212.302
-220.401
-223.867
-219.489
-204.288
-175.675
-132.149
-73.992
-1.304
85.229
184.854
297.893
419.229
539.363
648.139
733.292
789.867
820.745
828.431
817.605
789.588
740.502
670.004
579.812
473.31
357.489
238.584
120.897
8.824
-93.815
-184.361
-260.406
-320.273
-364.358
-394.134
-410.93
-416.72
-413.576
-402.884
-386.703
-367.445
-346.161
-323.222
-299.254
-274.603
-250.144
-227.614
-207.669
-190.068
-175.118
-163.186
-154.348
-148.689
-145.335
-142.395
-138.849
-134.483
-129.049
-122.579
-115.146
-106.683
-97.78
-89.667
-83.065
-78.204
-75.107
-73.431
-72.889
-73.388
-74.61
-76.034
-77.314
-78.23
-78.687
-78.791
-78.615
-78.141
-77.379
-76.333
-74.976
-73.33
-71.422
-69.261
-66.883
-64.32
-61.59
-58.734
-55.799
-52.817
-49.816
-46.8
-43.762
-40.716
-37.696
-34.747
-31.927
-29.264
-26.763
-24.422
-22.228
-20.17
-18.238
-16.404
-14.634
-12.9
-11.183
-9.468
-7.753
-6.018
-4.238
-2.383
-0.418
1.682
3.93
6.338
8.911
11.65
14.552
17.606
20.795
24.104
27.519
31.029
34.623
38.286
42.001
45.746
49.5
53.241
56.948
60.598
64.169
67.641
70.991
74.201
77.256
80.136
82.825
85.304
87.556
89.565
91.315
92.792
93.982
94.872
95.453
95.716
95.654
95.262
94.537
93.476
92.081
90.35
88.289
85.9
83.191
80.168
76.841
73.22
69.319
65.151
60.731
56.076
51.203
46.13
40.877
35.463
29.908
24.233
18.459
12.607
6.699
0.756
-5.2
-11.148
-17.066
-22.935
-28.732
-34.44
-40.038
-45.508
-50.833
-55.996
-60.981
-65.775
-70.362
-74.732
-78.872
-82.774
-86.43
-89.832
-92.977
-95.859
-98.477
-100.831
-102.921
-104.749
-106.319
-107.634
-108.702
-109.528
-110.122
-110.491
-110.646
-110.597
-110.355
-109.934
-109.345
-108.601
-107.717
-106.707
-105.584
-104.364
-103.061
-101.69
-100.265
-98.8
-97.308
-95.803
-94.297
-92.801
-91.327
-89.884
-88.482
-87.128
-85.83
-84.594
-83.426
-82.329
-81.306
-80.36
-79.493
-78.704
-77.994
-77.361
-76.803
-76.319
-75.904
-75.556
-75.27
-75.04
-74.861
-74.726
-74.63
-74.566
-74.526
-74.503
-74.49
-74.48
-74.467
-74.444
-74.406
-74.346
-74.259
-74.142
-73.989
-73.798
-73.566
-73.29
-72.97
-72.605
-72.193
-71.737
-71.236
-70.693
-70.108
-69.484
-68.822
-68.127
-67.399
-66.644
-65.864
-65.063
-64.246
-63.417
-62.581
-61.743
-60.908
-60.079
-59.263
-58.464
-57.684
-56.929
-56.202
-55.506
-54.844
-54.217
-53.628
-53.077
-52.566
-52.095
-51.662
-51.268
-50.91
-50.588
-50.299
-50.041
-49.814
-49.614
-49.44
-49.29
-49.162
-49.054
-48.965
-48.892
-48.833
-48.786
-48.749
-48.721
-48.699
-48.681
-48.667
-48.653
-48.64
-48.625
-48.609
-48.589
-48.566
-48.54
-48.511
-48.478
-48.444
-48.409
-48.374
-48.341
-48.312
-48.289
-48.272
-48.264
-48.265
-48.277
-48.298
-48.33
-48.371
-48.42
-48.476
-48.537
-48.601
-48.664
-48.725
-48.778
-48.822
-48.852
-48.865
-48.855
-48.82
-48.754
-48.653
-48.513
-48.328
-48.093
-47.804
-47.454
-47.04
-46.554
-45.992
-45.348
-44.617
-43.793
-42.872
-41.849
-40.721
-39.484
-38.137
-36.677
-35.106
-33.424
-31.633
-29.734
-27.733
-25.633
-23.441
-21.162
-18.805
-16.377
-13.889
-11.349
-8.77
-6.162
-3.538
-0.912
1.704
4.293
6.837
9.318
11.713
14.001
16.162
18.176
20.025
21.691
23.159
24.413
25.441
26.229
26.765
27.035
27.024
26.722
26.124
25.235
24.069
22.638
20.948
19.007
16.811
14.358
11.651
8.687
5.461
1.981
-1.744
-5.68
-9.762
-13.939
-18.164
-22.413
-26.694
-30.984
-35.227
-39.347
-43.231
-46.788
-49.98
-52.726
-54.915
-56.534
-57.619
-58.363
-59.158
-60.213
-61.544
-63.148
-64.938
-66.793
-68.636
-70.146
-70.766
-70.318
-68.959
-66.997
-64.899
-63.011
-61.509
-60.773
-61.334
-63.381
-66.853
-71.555
-77.207
-83.915
-92.09
-101.764
-112.788
-124.243
-133.911
-140.874
-144.719
-145.508
-145.244
-141.079
-125.972
-93.155
-34.248
51.427
155.561
270.172
385.505
495.369
599.838
696.369
781.08
849.823
896.536
917.327
911.336
878.545
820.023
738.52
637.7
522.005
397.162
268.989
142.361
22.122
-87.215
-182.385
-260.895
-321.361
-364.372
-391.358
-403.77
-403.59
-393.015
-374.39
-350.513
-323.857
-295.849
-267.493
-239.865
-214.165
-191.555
-172.506
-156.72
-143.679
-133.027
-124.534
-117.686
-111.343
-104.32
-96.037
-86.414
-75.759
-64.504
-52.93
-41.531
-31.227
-22.804
-16.685
-12.99
-11.456
-11.696
-13.399
-16.135
-19.364
-22.672
-25.757
-28.421
-30.622
-32.348
-33.58
-34.319
-34.552
-34.238
-33.321
-31.782
-29.653
-26.977
-23.787
-20.176
-16.274
-12.191
-8.054
-3.922
0.253
4.463
8.594
12.739
17.218
22.038
27.037
32.229
37.196
42.732
51.077
61.628
72.411
79.957
77.926
67.101
53.8
44.441
48.107
64.882
86.299
105.859
116.389
117.05
114.219
111.679
112.161
116.309
121.497
126.618
131.71
136.676
141.898
147.433
152.915
158.231
163.417
168.439
173.261
177.872
182.266
186.457
190.483
194.342
197.987
201.396
204.557
207.457
210.083
212.422
214.453
216.164
217.549
218.601
219.315
219.686
219.71
219.385
218.713
217.695
216.337
214.642
212.618
210.273
207.617
204.66
201.414
197.894
194.112
190.084
185.827
181.356
176.691
171.848
166.846
161.705
156.446
151.086
145.648
140.15
134.613
129.056
123.499
117.958
112.453
107.001
101.617
96.318
91.119
86.032
81.072
76.25
71.578
67.064
62.718
58.547
54.558
50.757
47.148
43.734
40.517
37.5
34.682
32.062
29.639
27.409
25.368
23.511
21.832
20.323
18.977
17.784
16.736
15.823
15.035
14.362
13.794
13.321
12.932
12.618
12.368
12.173
12.023
11.909
11.821
11.753
11.695
11.641
11.583
11.516
11.433
11.329
11.2
11.041
10.848
10.621
10.355
10.051
9.707
9.325
8.906
8.453
7.967
7.454
6.916
6.357
5.784
5.199
4.609
4.018
3.431
2.852
2.287
1.739
1.214
0.714
0.243
-0.195
-0.599
-0.966
-1.294
-1.583
-1.831
-2.037
-2.202
-2.325
-2.409
-2.452
-2.459
-2.431
-2.37
-2.282
-2.17
-2.04
-1.897
-1.748
-1.598
-1.455
-1.325
-1.216
-1.135
-1.089
-1.085
-1.129
-1.229
-1.391
-1.619
-1.921
-2.299
-2.759
-3.304
-3.937
-4.661
-5.478
-6.388
-7.394
-8.496
-9.695
-10.989
-12.378
-13.861
-15.436
-17.099
-18.848
-20.678
-22.585
-24.563
-26.605
-28.705
-30.857
-33.051
-35.281
-37.538
-39.813
-42.098
-44.385
-46.664
-48.928
-51.167
-53.374
-55.541
-57.66
-59.724
-61.727
-63.662
-65.523
-67.305
-69.003
-70.611
-72.124
-73.538
-74.848
-76.052
-77.145
-78.124
-78.987
-79.733
-80.36
-80.869
-81.258
-81.529
-81.684
-81.723
-81.649
-81.464
-81.17
-80.772
-80.272
-79.675
-78.985
-78.205
-77.341
-76.397
-75.377
-74.287
-73.13
-71.912
-70.636
-69.307
-67.93
-66.51
-65.052
-63.562
-62.046
-60.509
-58.957
-57.397
-55.834
-54.275
-52.726
-51.193
-49.683
-48.201
-46.756
-45.354
-44.002
-42.711
-41.49
-40.346
-39.292
-38.337
-37.491
-36.765
-36.167
-35.706
-35.392
-35.233
-35.24
-35.42
-35.781
-36.328
-37.075
-38.034
-39.202
-40.579
-42.161
-43.937
-45.915
-48.108
-50.499
-53.078
-55.877
-58.921
-62.229
-65.828
-69.68
-73.72
-77.946
-82.367
-86.799
-91.03
-95.109
-98.986
-102.587
-106.214
-108.881
-109.618
-109.678
-109.415
-111.181
-117.807
-126.095
-133.927
-138.196
-134.664
-127.27
-119.364
-113.264
-112.748
-115.303
-118.388
-121.538
-123.255
-124.588
-126.904
-130.19
-134.688
-140.27
-146.497
-153.075
-159.593
-165.517
-170.184
-172.869
-173.189
-171.014
-166.539
-160.639
-154.448
-149.02
-145.55
-144.234
-143.59
-142.163
-139.119
-135.827
-135.174
-136.937
-135.39
-118.425
-73.399
5.171
112.79
235.601
358.696
472.45
573.174
661.312
735.892
793.345
828.918
838.037
819.214
773.151
701.693
608.763
498.999
377.316
249.73
121.836
-1.737
-116.319
-218.137
-304.863
-374.739
-427.068
-462.962
-483.968
-491.664
-488.13
-474.946
-453.501
-425.949
-394.348
-359.653
-322.623
-284.418
-246.242
-210.071
-178.138
-150.317
-125.873
-106.162
-91.57
-83.905
-84.892
-89.885
-95.003
-96.451
-90.086
-79.199
-66.784
-54.993
-47.478
-42.95
-40.222
-39.344
-39.009
-39.827
-42.38
-46.078
-50.671
-55.479
-59.702
-63.05
-65.259
-66.33
-66.663
-66.368
-65.389
-63.852
-61.492
-59.111
-58.787
-60.078
-61.296
-59.417
-48.859
-30.394
-9.761
7.222
12.354
5.474
-5.893
-15.959
-18.32
-12.176
-3.184
5.315
10.944
13.155
14.318
15.452
16.534
17.682
18.595
19.259
20.041
21.067
22.31
23.805
25.582
27.638
29.967
32.539
35.29
38.203
41.301
44.586
48.056
51.705
55.521
59.495
63.621
67.887
72.277
76.773
81.36
86.02
90.737
95.492
100.269
105.047
109.805
114.519
119.165
123.719
128.156
132.453
136.584
140.526
144.258
147.759
151.008
153.988
156.682
159.074
161.149
162.895
164.301
165.356
166.054
166.388
166.355
165.952
165.18
164.041
162.539
160.68
158.472
155.926
153.052
149.864
146.378
142.608
138.574
134.294
129.789
125.08
120.188
115.137
109.95
104.649
99.258
93.801
88.3
82.777
77.256
71.758
66.303
60.914
55.609
50.407
45.325
40.381
35.589
30.963
26.514
22.254
18.191
14.334
10.687
7.255
4.042
1.047
-1.728
-4.287
-6.631
-8.766
-10.696
-12.43
-13.973
-15.334
-16.522
-17.548
-18.421
-19.151
-19.75
-20.228
-20.599
-20.872
-21.059
-21.173
-21.224
-21.223
-21.182
-21.11
-21.017
-20.911
-20.8
-20.692
-20.593
-20.508
-20.442
-20.399
-20.38
-20.388
-20.424
-20.487
-20.578
-20.694
-20.835
-20.998
-21.18
-21.38
-21.593
-21.817
-22.048
-22.283
-22.518
-22.75
-22.975
-23.189
-23.39
-23.573
-23.736
-23.875
-23.988
-24.072
-24.125
-24.145
-24.131
-24.082
-23.999
-23.882
-23.732
-23.551
-23.341
-23.105
-22.846
-22.569
-22.276
-21.971
-21.66
-21.346
-21.034
-20.728
-20.433
-20.151
-19.888
-19.646
-19.429
-19.239
-19.08
-18.954
-18.862
-18.808
-18.792
-18.817
-18.884
-18.994
-19.148
-19.346
-19.589
-19.877
-20.209
-20.583
-20.999
-21.455
-21.948
-22.476
-23.037
-23.628
-24.246
-24.887
-25.55
-26.231
-26.926
-27.633
-28.349
-29.072
-29.799
-30.528
-31.258
-31.989
-32.718
-33.446
-34.173
-34.898
-35.622
-36.343
-37.063
-37.782
-38.499
-39.216
-39.932
-40.65
-41.368
-42.089
-42.813
-43.541
-44.274
-45.011
-45.754
-46.503
-47.258
-48.019
-48.786
-49.558
-50.335
-51.118
-51.904
-52.693
-53.482
-54.27
-55.055
-55.831
-56.597
-57.347
-58.077
-58.783
-59.46
-60.103
-60.709
-61.272
-61.787
-62.249
-62.653
-62.995
-63.27
-63.473
-63.599
-63.646
-63.61
-63.489
-63.28
-62.983
-62.596
-62.119
-61.553
-60.899
-60.157
-59.329
-58.418
-57.428
-56.363
-55.229
-54.034
-52.784
-51.49
-50.165
-48.82
-47.47
-46.128
-44.81
-43.531
-42.305
-41.145
-40.065
-39.08
-38.203
-37.449
-36.834
-36.372
-36.079
-35.968
-36.051
-36.338
-36.831
-37.532
-38.44
-39.556
-40.882
-42.429
-44.204
-46.209
-48.447
-50.917
-53.61
-56.508
-59.577
-62.769
-66.04
-69.341
-72.628
-75.868
-79.018
-82.035
-84.866
-87.442
-89.698
-91.588
-93.084
-94.162
-94.804
-95.015
-94.826
-94.332
-93.661
-92.892
-92.012
-91.015
-90.045
-89.299
-89.074
-89.624
-90.939
-93.192
-96.865
-102.058
-108.285
-114.939
-120.818
-125.727
-131.204
-136.416
-139.408
-137.291
-125.336
-105.709
-85.776
-72.532
-74.409
-91.098
-113.456
-134.881
-148.239
-151.548
-150.584
-144.554
-128.426
-95.859
-36.582
50.591
157.269
274.763
392.178
502.994
607.235
702.279
784.528
850.316
894.094
912.821
906.099
873.344
815.859
737.725
643.102
536.628
420.829
294.11
157.618
16.851
-116.399
-224.608
-297.277
-332.444
-337.297
-327.229
-312.021
-296.465
-281.896
-264.728
-244.883
-224.611
-205.416
-190.279
-180.87
-176.207
-174.874
-174.752
-173.214
-169.138
-162.505
-153.055
-140.4
-124.776
-106.816
-87.532
-68.791
-51.238
-33.649
-16.441
-1.365
9.043
10.185
1.416
-12.46
-24.925
-28.401
-19.5
-2.165
15.607
26.577
26.568
16.602
3.431
-7.895
-14.494
-14.918
-12.507
-9.539
-6.561
-4.736
-3.131
-0.954
1.429
4.159
7.137
10.101
13.169
16.433
19.825
23.346
27.006
30.745
34.5
38.205
41.763
45.11
48.249
51.188
53.934
56.504
58.902
61.148
63.275
65.315
67.289
69.216
71.106
72.981
74.873
76.819
78.861
81.028
83.333
85.787
88.396
91.162
94.083
97.15
100.344
103.651
107.059
110.558
114.138
117.785
121.48
125.204
128.937
132.658
136.349
139.987
143.555
147.031
150.399
153.641
156.744
159.691
162.466
165.052
167.435
169.599
171.53
173.214
174.64
175.794
176.67
177.258
177.553
177.55
177.247
176.64
175.732
174.523
173.015
171.214
169.124
166.753
164.108
161.2
158.038
154.634
151.001
147.152
143.101
138.863
134.453
129.885
125.176
120.341
115.397
110.36
105.245
100.069
94.848
89.597
84.332
79.068
73.821
68.603
63.43
58.314
53.268
48.304
43.434
38.669
34.018
29.491
25.097
20.843
16.738
12.786
8.994
5.366
1.907
-1.379
-4.491
-7.427
-10.184
-12.762
-15.162
-17.384
-19.429
-21.298
-22.995
-24.521
-25.88
-27.076
-28.114
-28.997
-29.731
-30.322
-30.777
-31.101
-31.303
-31.389
-31.368
-31.249
-31.039
-30.748
-30.384
-29.957
-29.476
-28.95
-28.389
-27.802
-27.197
-26.586
-25.975
-25.375
-24.794
-24.239
-23.72
-23.243
-22.816
-22.445
-22.137
-21.898
-21.734
-21.649
-21.649
-21.736
-21.915
-22.188
-22.557
-23.023
-23.587
-24.248
-25.005
-25.856
-26.799
-27.832
-28.95
-30.15
-31.426
-32.774
-34.187
-35.66
-37.186
-38.758
-40.37
-42.014
-43.684
-45.371
-47.07
-48.773
-50.473
-52.164
-53.838
-55.489
-57.111
-58.698
-60.244
-61.744
-63.192
-64.585
-65.919
-67.189
-68.393
-69.529
-70.595
-71.59
-72.513
-73.363
-74.143
-74.851
-75.491
-76.063
-76.571
-77.017
-77.404
-77.735
-78.016
-78.248
-78.438
-78.588
-78.703
-78.788
-78.846
-78.882
-78.899
-78.903
-78.897
-78.885
-78.871
-78.858
-78.851
-78.851
-78.861
-78.885
-78.925
-78.981
-79.057
-79.153
-79.269
-79.408
-79.567
-79.749
-79.951
-80.173
-80.415
-80.674
-80.948
-81.236
-81.536
-81.845
-82.16
-82.478
-82.796
-83.112
-83.421
-83.72
-84.005
-84.274
-84.522
-84.746
-84.942
-85.107
-85.237
-85.329
-85.379
-85.384
-85.34
-85.245
-85.095
-84.888
-84.621
-84.291
-83.897
-83.437
-82.909
-82.312
-81.645
-80.906
-80.095
-79.211
-78.255
-77.226
-76.125
-74.955
-73.717
-72.414
-71.049
-69.625
-68.147
-66.618
-65.043
-63.427
-61.775
-60.095
-58.392
-56.675
-54.952
-53.234
-51.532
-49.859
-48.227
-46.648
-45.133
-43.697
-42.358
-41.131
-40.03
-39.07
-38.259
-37.617
-37.163
-36.9
-36.835
-36.967
-37.293
-37.825
-38.584
-39.561
-40.743
-42.152
-43.802
-45.703
-47.879
-50.304
-52.92
-55.745
-58.813
-61.981
-65.086
-68.197
-71.271
-74.247
-77.397
-79.809
-80.618
-80.977
-81.226
-83.542
-90.502
-99.168
-107.562
-112.752
-110.743
-105.021
-98.513
-93.205
-92.513
-94.164
-95.971
-97.765
-98.359
-98.808
-100.345
-102.814
-106.254
-110.333
-114.302
-117.509
-119.265
-118.773
-115.555
-109.492
-100.783
-90.023
-78.193
-66.591
-56.751
-50.668
-50.1
-55.93
-68.385
-86.071
-105.959
-126.228
-145.138
-161.049
-174.395
-181.041
-173.529
-145.35
-88.576
-2.957
103.097
220.947
340.197
454.398
563.32
664.789
755.418
830.978
885.685
915.996
920.708
899.519
852.862
783.026
694.365
591.49
478.544
356.969
226.157
88.825
-46.903
-167.62
-259.672
-316.658
-341.657
-345.845
-340.728
-332.466
-322.49
-308.447
-289.333
-267.338
-245.242
-225.849
-210.73
-200.064
-193.088
-188.409
-184.291
-178.785
-170.885
-160.499
-147.576
-132.064
-114.241
-94.625
-74.303
-54.909
-37.438
-22.283
-9.725
0.118
7.187
11.477
13.345
13.475
12.382
10.393
7.751
4.573
1.008
-2.746
-6.543
-10.284
-13.873
-17.206
-20.164
-22.603
-24.391
-25.463
-25.812
-25.475
-24.523
-23.022
-21.028
-18.597
-15.786
-12.654
-9.264
-5.685
-1.97
1.825
5.633
9.383
12.985
16.38
19.547
22.49
25.228
27.785
30.178
32.433
34.586
36.671
38.718
40.754
42.796
44.87
47.009
49.252
51.642
54.211
56.975
59.942
63.114
66.487
70.057
73.809
77.721
81.775
85.952
90.238
94.619
99.078
103.592
108.139
112.694
117.232
121.73
126.166
130.515
134.754
138.861
142.817
146.605
150.204
153.597
156.762
159.682
162.341
164.724
166.811
168.583
170.023
171.121
171.871
172.268
172.297
171.955
171.26
170.236
168.912
167.301
165.384
163.155
160.641
157.845
154.717
151.184
147.174
142.676
137.774
132.544
126.95
121.081
115.28
109.782
104.636
99.825
95.005
90.884
89.471
91.257
94.909
95.943
87.522
67.583
40.227
14.75
2.246
6.595
22.827
40.724
50.19
47.608
36.293
22.726
11.953
5.488
2.109
-0.321
-2.76
-5.115
-7.135
-8.629
-9.748
-10.764
-11.734
-12.64
-13.5
-14.327
-15.113
-15.83
-16.425
-16.868
-17.177
-17.385
-17.509
-17.559
-17.545
-17.481
-17.382
-17.267
-17.143
-17.017
-16.898
-16.794
-16.712
-16.663
-16.651
-16.684
-16.766
-16.901
-17.093
-17.346
-17.66
-18.038
-18.48
-18.987
-19.557
-20.189
-20.882
-21.632
-22.436
-23.291
-24.193
-25.136
-26.117
-27.13
-28.171
-29.235
-30.317
-31.412
-32.516
-33.624
-34.731
-35.833
-36.926
-38.005
-39.066
-40.106
-41.122
-42.109
-43.064
-43.986
-44.872
-45.718
-46.525
-47.288
-48.008
-48.683
-49.312
-49.895
-50.431
-50.923
-51.369
-51.772
-52.132
-52.451
-52.73
-52.97
-53.173
-53.34
-53.472
-53.571
-53.638
-53.675
-53.682
-53.66
-53.612
-53.539
-53.44
-53.318
-53.174
-53.008
-52.822
-52.616
-52.393
-52.153
-51.897
-51.628
-51.346
-51.053
-50.75
-50.438
-50.115
-49.783
-49.445
-49.105
-48.764
-48.423
-48.081
-47.737
-47.403
-47.077
-46.742
-46.387
-45.998
-45.574
-45.142
-44.708
-44.248
-43.777
-43.357
-43.036
-42.864
-42.851
-42.925
-43.057
-43.326
-43.662
-43.771
-43.573
-43.163
-42.507
-41.893
-40.824
-37.476
-32.087
-26.396
-23.015
-27.076
-38.659
-52.477
-63.41
-64.196
-53.824
-39.271
-26.005
-19.801
-22.135
-27.837
-33.589
-37.218
-37.831
-37.582
-37.44
-36.994
-36.284
-35.134
-33.371
-31.526
-29.301
-25.029
-18.922
-12.649
-8.801
-12.041
-23.097
-37.661
-49.615
-51.583
-40.705
-21.201
-1.084
12.245
14.794
7.78
-2.288
-10.504
-14.186
-12.155
-7.706
-3.095
1.069
3.658
5.579
7.605
9.431
11.228
12.906
14.222
15.312
16.289
17.127
17.852
18.484
18.985
19.325
19.493
19.453
19.171
18.645
17.869
16.828
15.52
13.946
12.104
9.997
7.629
4.992
2.082
-1.104
-4.564
-8.295
-12.284
-16.514
-20.956
-25.567
-30.305
-35.121
-39.97
-44.813
-49.606
-54.303
-58.853
-63.194
-67.26
-70.992
-74.332
-77.226
-79.648
-81.6
-83.11
-84.245
-85.079
-85.672
-86.104
-86.469
-86.865
-87.42
-88.276
-89.544
-91.395
-94.051
-97.644
-102.219
-107.631
-113.464
-119.263
-124.601
-128.939
-131.691
-132.474
-131.097
-127.888
-123.864
-120.01
-117.179
-116.225
-117.708
-121.822
-128.337
-135.91
-141.912
-143.53
-137.804
-121.785
-93.197
-50.013
9.2
84.126
172.712
271.928
377.519
484.696
588.815
684.409
765.873
828.739
869.524
885.878
876.948
842.603
783.493
701.938
602.482
490.146
369.15
244.727
119.81
-2.493
-115.003
-214.061
-295.142
-352.549
-386.711
-396.276
-382.932
-356.307
-325.844
-301.895
-291.028
-289.972
-290.975
-286.748
-273.231
-252.073
-228.765
-207.316
-189.061
-173.507
-158.517
-142.739
-126.478
-110.33
-94.874
-80.402
-66.721
-53.717
-41.768
-31.492
-23.23
-17.094
-13.046
-10.954
-10.816
-12.554
-15.809
-20.055
-24.819
-29.768
-34.686
-39.422
-43.792
-47.604
-50.738
-53.14
-54.773
-55.614
-55.656
-54.899
-53.385
-51.194
-48.42
-45.163
-41.528
-37.599
-33.456
-29.183
-24.845
-20.509
-16.245
-12.12
-8.209
-4.563
-1.206
1.858
4.641
7.165
9.458
11.555
13.505
15.348
17.118
18.846
20.553
22.269
24.027
25.865
27.823
29.935
32.219
34.688
37.35
40.208
43.26
46.498
49.905
53.469
57.177
61.02
64.988
69.068
73.244
77.496
81.804
86.146
90.504
94.854
99.174
103.444
107.642
111.749
115.746
119.614
123.333
126.88
130.236
133.381
136.294
138.957
141.351
143.46
145.268
146.762
147.931
148.765
149.254
149.392
149.174
148.598
147.66
146.364
144.709
142.702
140.348
137.656
134.637
131.301
127.662
123.736
119.538
115.086
110.399
105.495
100.394
95.118
89.687
84.125
78.452
72.692
66.868
61.002
55.116
49.234
43.376
37.565
31.821
26.163
20.611
15.183
9.894
4.762
-0.199
-4.976
-9.558
-13.934
-18.094
-22.032
-25.741
-29.217
-32.457
-35.46
-38.224
-40.752
-43.046
-45.108
-46.945
-48.562
-49.965
-51.162
-52.163
-52.976
-53.613
-54.083
-54.398
-54.569
-54.61
-54.531
-54.346
-54.068
-53.707
-53.276
-52.788
-52.253
-51.683
-51.088
-50.478
-49.863
-49.251
-48.65
-48.069
-47.513
-46.989
-46.502
-46.057
-45.656
-45.302
-44.998
-44.745
-44.543
-44.393
-44.292
-44.241
-44.238
-44.278
-44.36
-44.48
-44.634
-44.817
-45.026
-45.254
-45.498
-45.752
-46.012
-46.272
-46.529
-46.778
-47.013
-47.232
-47.429
-47.601
-47.744
-47.854
-47.927
-47.962
-47.956
-47.906
-47.81
-47.668
-47.478
-47.24
-46.954
-46.62
-46.239
-45.811
-45.338
-44.823
-44.268
-43.675
-43.048
-42.39
-41.705
-40.996
-40.268
-39.525
-38.77
-38.007
-37.242
-36.476
-35.716
-34.965
-34.228
-33.509
-32.813
-32.143
-31.504
-30.901
-30.336
-29.814
-29.338
-28.911
-28.536
-28.216
-27.954
-27.752
-27.612
-27.532
-27.513
-27.554
-27.656
-27.821
-28.042
-28.315
-28.645
-29.036
-29.491
-30.015
-30.597
-31.217
-31.882
-32.602
-33.341
-34.071
-34.768
-35.398
-35.977
-36.545
-37.068
-37.493
-37.934
-38.524
-39.172
-39.877
-40.659
-41.204
-42.329
-44.825
-47.542
-50.126
-50.468
-46.046
-39.64
-33.098
-29.18
-31.677
-37.227
-42.979
-46.981
-46.005
-42.354
-38.363
-34.55
-32.34
-30.906
-29.188
-27.392
-25.387
-23.248
-21.196
-19.097
-16.845
-14.486
-12.035
-9.49
-6.865
-4.179
-1.453
1.279
3.974
6.626
9.227
11.755
14.193
16.523
18.73
20.803
22.731
24.499
26.089
27.486
28.679
29.655
30.405
30.919
31.191
31.219
31.006
30.557
29.876
28.961
27.8
26.385
24.714
22.787
20.611
18.199
15.565
12.739
9.766
6.697
3.582
0.468
-2.61
-5.612
-8.486
-11.168
-13.576
-15.638
-17.294
-18.502
-19.234
-19.484
-19.261
-18.607
-17.595
-16.324
-14.908
-13.456
-12.084
-10.912
-10.063
-9.748
-10.233
-11.698
-14.227
-17.732
-21.915
-26.463
-31.056
-35.18
-38.225
-39.79
-39.658
-38.107
-36.096
-34.638
-34.695
-37.47
-43.049
-50.199
-58
-64.47
-69.536
-76.124
-83.426
-88.53
-83.453
-54.064
6.543
98.015
212.462
332.963
447.346
549.507
636.427
709.544
767.822
807.695
826.204
821.028
792.286
741.473
670.886
584.144
485.046
377.721
266.894
156.357
49.395
-50.194
-139.423
-216.324
-279.257
-327.606
-362.112
-383.73
-393.629
-393.81
-385.983
-371.354
-351.667
-328.647
-303.105
-275.625
-246.934
-217.446
-188.175
-160.932
-136.592
-115.314
-97.609
-83.806
-73.866
-67.747
-64.508
-62.237
-59.855
-56.983
-53.232
-48.606
-43.197
-36.986
-30.593
-25.164
-21.301
-19.2
-18.871
-19.972
-22.228
-25.482
-29.301
-33.124
-36.571
-39.395
-41.48
-42.859
-43.534
-43.488
-42.773
-41.468
-39.655
-37.408
-34.778
-31.806
-28.542
-25.05
-21.404
-17.663
-13.89
-10.147
-6.496
-3.01
0.26
3.292
6.083
8.639
10.976
13.113
15.078
16.91
18.647
20.323
21.97
23.613
25.282
27.014
28.847
30.823
32.975
35.322
37.878
40.651
43.642
46.851
50.269
53.88
57.669
61.621
65.726
69.973
74.348
78.83
83.401
88.037
92.716
97.417
102.116
106.79
111.414
115.968
120.428
124.776
128.99
133.046
136.922
140.594
144.04
147.237
150.165
152.802
155.13
157.132
158.792
160.099
161.041
161.608
161.792
161.588
160.992
160.002
158.618
156.84
154.672
152.122
149.197
145.906
142.257
138.258
133.922
129.261
124.294
119.037
113.499
107.706
101.7
95.517
89.194
82.753
76.191
69.517
62.769
55.93
48.936
41.752
34.362
26.802
19.193
11.625
4.105
-3.193
-9.881
-15.851
-21.259
-26.162
-30.935
-35.177
-37.236
-37.592
-38.073
-41.401
-52.728
-72.354
-95.815
-117.949
-129.925
-126.938
-110.401
-82.523
-51.123
-26.315
-16.61
-30.405
-68.153
-120.841
-171.896
-201.38
-198.64
-164.722
-114.321
-70.053
-45.521
-44.975
-62.209
-82.999
-100.256
-113.288
-122.291
-129.517
-133.607
-129.085
-116.363
-100.193
-85.132
-77.482
-78.284
-82.78
-87.895
-91.22
-91.761
-91.931
-94.021
-97.437
-100.772
-101.341
-93.715
-77.167
-55.892
-35.73
-27.644
-37.59
-61.774
-92.393
-115.415
-120.367
-107.558
-83.042
-58.496
-43.594
-40.36
-46.126
-54.741
-61.347
-64.663
-65.332
-65.203
-65.282
-65.49
-65.659
-65.562
-65.27
-65.063
-65.038
-65.203
-65.573
-66.129
-66.843
-67.68
-68.577
-69.488
-70.402
-71.329
-72.267
-73.211
-74.154
-75.09
-76.017
-76.935
-77.836
-78.712
-79.553
-80.354
-81.108
-81.812
-82.459
-83.045
-83.565
-84.015
-84.392
-84.694
-84.919
-85.066
-85.134
-85.122
-85.033
-84.868
-84.628
-84.318
-83.939
-83.494
-82.99
-82.433
-81.83
-81.186
-80.506
-79.794
-79.059
-78.312
-77.55
-76.772
-75.977
-75.161
-74.339
-73.532
-72.732
-71.93
-71.162
-70.456
-69.836
-69.335
-68.927
-68.565
-68.276
-68.11
-67.933
-67.587
-67.162
-66.646
-66.006
-65.575
-64.44
-61.709
-58.642
-55.614
-54.94
-59.392
-65.889
-72.375
-75.792
-71.944
-64.534
-56.7
-50.592
-49.765
-51.673
-53.734
-55.372
-55.015
-53.574
-52.223
-50.738
-49.271
-47.744
-45.924
-43.969
-42.012
-40.018
-37.986
-35.942
-33.891
-31.838
-29.789
-27.734
-25.657
-23.582
-21.531
-19.516
-17.551
-15.654
-13.838
-12.123
-10.527
-9.066
-7.75
-6.589
-5.591
-4.757
-4.092
-3.608
-3.318
-3.241
-3.401
-3.817
-4.505
-5.483
-6.759
-8.33
-10.189
-12.32
-14.703
-17.325
-20.177
-23.259
-26.561
-30.05
-33.677
-37.369
-41.032
-44.574
-47.9
-50.905
-53.503
-55.634
-57.25
-58.329
-58.867
-58.851
-58.263
-57.095
-55.357
-53.096
-50.399
-47.395
-44.23
-41.081
-38.146
-35.621
-33.714
-32.594
-32.377
-33.229
-35.31
-38.67
-43.329
-49.149
-55.73
-62.666
-69.55
-75.759
-80.675
-83.894
-85.011
-84.063
-81.924
-79.562
-77.721
-77.267
-77.952
-78.312
-78.508
-78.555
-78.414
-80.014
-80.121
-71.879
-49.071
-3.335
66.703
154.078
251.888
351.723
448.557
543.352
635.281
721.366
797.103
856.375
894.7
909.841
901.016
867.723
809.998
729.781
630.493
516.639
393.849
267.496
142.357
24.01
-82.198
-172.118
-242.916
-293.811
-325.532
-340.319
-340.833
-329.285
-309.408
-283.467
-252.148
-220.047
-191.117
-169.392
-161.621
-166.228
-176.188
-185.661
-185.987
-174.583
-157.163
-136.981
-117.41
-101.101
-85.17
-68.665
-52.639
-36.748
-22.398
-10.757
-1.568
4.967
8.898
10.793
11.155
10.339
8.694
6.442
3.651
0.474
-2.89
-6.318
-9.689
-12.889
-15.856
-18.507
-20.733
-22.443
-23.546
-24.001
-23.83
-23.079
-21.811
-20.082
-17.936
-15.416
-12.578
-9.478
-6.19
-2.768
0.755
4.335
7.925
11.463
14.869
18.093
21.127
23.972
26.644
29.165
31.541
33.784
35.934
38.039
40.141
42.28
44.466
46.694
48.985
51.402
53.961
56.628
59.37
62.135
64.916
67.797
70.799
73.83
76.967
80.482
84.396
88.621
93.197
97.741
102.846
110.321
119.638
129.128
135.946
134.754
126.009
115.071
107.381
110.359
124.195
141.837
157.505
166.089
167.596
166.101
164.405
162.534
158.407
152.781
146.671
143.043
145.824
151.806
158.054
162.224
160.842
156.387
151.318
146.177
142.483
139.39
135.815
132.036
127.937
123.586
119.219
114.706
109.946
104.998
99.888
94.614
89.197
83.668
78.051
72.39
66.728
61.075
55.437
49.838
44.294
38.823
33.443
28.164
22.998
17.958
13.057
8.306
3.713
-0.714
-4.969
-9.046
-12.941
-16.651
-20.174
-23.508
-26.654
-29.612
-32.383
-34.971
-37.379
-39.61
-41.67
-43.563
-45.297
-46.877
-48.311
-49.606
-50.771
-51.814
-52.742
-53.564
-54.289
-54.925
-55.48
-55.962
-56.379
-56.738
-57.048
-57.314
-57.544
-57.742
-57.916
-58.07
-58.208
-58.336
-58.458
-58.576
-58.695
-58.818
-58.947
-59.084
-59.231
-59.39
-59.561
-59.745
-59.943
-60.153
-60.376
-60.611
-60.856
-61.11
-61.371
-61.638
-61.908
-62.18
-62.451
-62.718
-62.978
-63.229
-63.469
-63.693
-63.901
-64.088
-64.253
-64.392
-64.504
-64.584
-64.632
-64.644
-64.618
-64.552
-64.442
-64.289
-64.089
-63.841
-63.545
-63.199
-62.803
-62.357
-61.86
-61.314
-60.719
-60.075
-59.385
-58.65
-57.871
-57.051
-56.193
-55.299
-54.373
-53.418
-52.438
-51.436
-50.418
-49.386
-48.346
-47.303
-46.26
-45.225
-44.201
-43.195
-42.211
-41.256
-40.334
-39.45
-38.61
-37.817
-37.077
-36.392
-35.766
-35.202
-34.702
-34.269
-33.904
-33.608
-33.381
-33.225
-33.138
-33.121
-33.171
-33.287
-33.467
-33.709
-34.009
-34.365
-34.772
-35.225
-35.722
-36.255
-36.821
-37.412
-38.023
-38.646
-39.275
-39.903
-40.522
-41.126
-41.707
-42.258
-42.774
-43.248
-43.675
-44.048
-44.362
-44.614
-44.798
-44.912
-44.952
-44.916
-44.799
-44.602
-44.321
-43.956
-43.505
-42.968
-42.343
-41.632
-40.834
-39.951
-38.984
-37.935
-36.806
-35.601
-34.323
-32.978
-31.569
-30.102
-28.581
-27.013
-25.404
-23.76
-22.086
-20.388
-18.675
-16.953
-15.232
-13.517
-11.817
-10.138
-8.492
-6.886
-5.33
-3.833
-2.403
-1.048
0.218
1.383
2.435
3.364
4.164
4.828
5.343
5.7
5.886
5.897
5.736
5.401
4.881
4.158
3.218
2.075
0.754
-0.728
-2.371
-4.19
-6.215
-8.44
-10.855
-13.516
-16.507
-19.884
-23.686
-27.866
-32.268
-36.791
-41.29
-45.383
-48.766
-51.379
-53.192
-54.318
-54.303
-51.769
-45.886
-37.583
-31.027
-31.974
-44.104
-66.375
-89.367
-101.262
-94.673
-68.133
-32.394
-2.506
12.959
9.623
-7.642
-27.803
-46.39
-61.101
-70.112
-77.033
-81.423
-80.693
-78.014
-74.008
-69.882
-69.388
-71.069
-73.797
-77.907
-82.464
-88.745
-98.048
-109.869
-122.84
-134.037
-140.119
-137.962
-124.541
-97.355
-54.1
6.783
84.947
178.194
283.119
395.046
508.825
619.308
720.457
806.254
871.965
913.971
930.073
919.914
883.925
823.337
741.336
642.21
530.503
411.421
289.871
169.86
55.694
-48.437
-139.707
-216.079
-276.103
-319.743
-347.325
-359.028
-356.466
-342.157
-318.42
-288.207
-254.838
-220.591
-188.066
-159.508
-134.716
-114.382
-99.959
-92.912
-96.404
-108.957
-124.161
-135.057
-133.599
-118.809
-96.987
-73.802
-55.629
-44.235
-35.939
-29.172
-22.699
-16.261
-11.936
-10.276
-10.789
-13.193
-16.641
-20.412
-24.366
-28.318
-32.047
-35.502
-38.59
-41.156
-43.102
-44.375
-44.912
-44.69
-43.739
-42.07
-39.728
-36.801
-33.38
-29.56
-25.427
-21.042
-16.468
-11.788
-7.094
-2.477
1.964
6.164
10.08
13.682
16.962
19.928
22.597
24.999
27.178
29.169
31.004
32.709
34.303
35.815
37.281
38.738
40.228
41.784
43.425
45.172
47.034
49.015
51.118
53.336
55.658
58.075
60.58
63.167
65.833
68.571
71.372
74.224
77.115
80.03
82.959
85.885
88.796
91.676
94.51
97.286
99.99
102.608
105.125
107.524
109.789
111.904
113.852
115.618
117.188
118.546
119.682
120.583
121.24
121.645
121.792
121.672
121.283
120.619
119.678
118.458
116.96
115.184
113.131
110.804
108.21
105.352
102.24
98.88
95.282
91.457
87.417
83.174
78.742
74.135
69.368
64.458
59.421
54.275
49.038
43.727
38.36
32.955
27.53
22.101
16.686
11.299
5.957
0.674
-4.536
-9.658
-14.678
-19.586
-24.367
-29.012
-33.508
-37.847
-42.02
-46.017
-49.833
-53.46
-56.894
-60.128
-63.16
-65.986
-68.605
-71.015
-73.218
-75.214
-77.006
-78.598
-79.992
-81.195
-82.212
-83.05
-83.713
-84.211
-84.549
-84.735
-84.777
-84.683
-84.462
-84.121
-83.668
-83.114
-82.466
-81.733
-80.924
-80.048
-79.114
-78.131
-77.108
-76.054
-74.977
-73.888
-72.795
-71.707
-70.631
-69.576
-68.549
-67.557
-66.607
-65.704
-64.853
-64.06
-63.327
-62.66
-62.061
-61.534
-61.079
-60.7
-60.397
-60.173
-60.026
-59.957
-59.967
-60.054
-60.217
-60.454
-60.764
-61.144
-61.591
-62.1
-62.668
-63.29
-63.96
-64.671
-65.419
-66.196
-66.994
-67.808
-68.629
-69.45
-70.264
-71.063
-71.841
-72.59
-73.305
-73.977
-74.601
-75.173
-75.685
-76.133
-76.512
-76.819
-77.049
-77.198
-77.264
-77.244
-77.136
-76.938
-76.648
-76.268
-75.797
-75.235
-74.586
-73.85
-73.031
-72.134
-71.161
-70.118
-69.01
-67.843
-66.624
-65.358
-64.054
-62.717
-61.357
-59.978
-58.591
-57.2
-55.814
-54.44
-53.084
-51.753
-50.454
-49.192
-47.975
-46.807
-45.695
-44.644
-43.658
-42.743
-41.901
-41.137
-40.453
-39.851
-39.335
-38.904
-38.559
-38.301
-38.129
-38.043
-38.04
-38.118
-38.274
-38.506
-38.808
-39.176
-39.607
-40.094
-40.633
-41.218
-41.843
-42.503
-43.19
-43.899
-44.623
-45.354
-46.086
-46.812
-47.524
-48.215
-48.878
-49.507
-50.093
-50.631
-51.114
-51.534
-51.885
-52.16
-52.354
-52.459
-52.471
-52.384
-52.194
-51.898
-51.49
-50.97
-50.333
-49.579
-48.705
-47.711
-46.597
-45.362
-44.008
-42.537
-40.952
-39.256
-37.454
-35.552
-33.555
-31.47
-29.303
-27.062
-24.756
-22.395
-19.987
-17.544
-15.08
-12.61
-10.15
-7.718
-5.331
-3.007
-0.764
1.38
3.406
5.296
7.037
8.612
10.006
11.202
12.182
12.933
13.444
13.706
13.715
13.463
12.944
12.159
11.107
9.794
8.224
6.39
4.285
1.908
-0.741
-3.65
-6.8
-10.176
-13.755
-17.497
-21.365
-25.305
-29.263
-33.19
-37.026
-40.72
-44.228
-47.478
-50.417
-52.978
-55.072
-56.658
-57.719
-58.248
-58.301
-57.908
-57.034
-55.833
-54.59
-53.572
-53.139
-53.418
-54.288
-55.928
-58.643
-62.342
-66.624
-70.74
-73.666
-75.089
-75.304
-74.154
-71.412
-67.267
-62.403
-58.49
-57.56
-60.533
-67.295
-77.667
-91.21
-107.051
-123.482
-137.158
-144.107
-141.067
-125.656
-96.226
-51.611
8.983
85.195
174.689
274.03
379.18
485.801
590.015
687.65
773.919
844.589
896.559
927.073
934.41
918.105
877.405
813.716
731.278
632.882
521.195
398.668
265.032
125.627
-8.718
-127.794
-220.093
-282.53
-321.64
-343.85
-356.585
-362.449
-358.559
-344.709
-322.039
-293.286
-262.821
-232.901
-204.62
-179.323
-157.614
-139.523
-124.709
-112.253
-101.467
-92.108
-83.776
-75.527
-66.405
-56.052
-44.608
-32.668
-20.895
-9.649
0.612
9.117
15.245
18.7
19.481
17.957
14.594
9.755
3.937
-2.281
-8.493
-14.35
-19.607
-24.166
-27.88
-30.608
-32.373
-33.253
-33.154
-31.976
-29.867
-26.89
-23.124
-19.035
-13.827
-6.714
0.93
8.606
13.846
13.717
11.233
8.41
8.319
15.198
25.267
35.341
43.241
45.382
44.407
42.983
41.736
42.306
43.793
45.043
46.324
47.528
48.781
50.36
52.125
53.969
55.944
58.066
60.322
62.711
65.228
67.867
70.645
73.579
76.655
79.851
83.16
86.566
90.054
93.611
97.218
100.854
104.504
108.153
111.782
115.376
118.919
122.393
125.782
129.065
132.224
135.238
138.091
140.763
143.237
145.495
147.522
149.304
150.828
152.083
153.059
153.746
154.136
154.225
154.005
153.475
152.632
151.476
150.008
148.232
146.153
143.776
141.11
138.164
134.948
131.475
127.756
123.807
119.641
115.274
110.722
106.003
101.134
96.133
91.019
85.81
80.526
75.186
69.807
64.41
59.01
53.627
48.278
42.979
37.746
32.596
27.543
22.601
17.784
13.105
8.575
4.204
0.001
-4.026
-7.87
-11.527
-14.991
-18.26
-21.331
-24.203
-26.876
-29.351
-31.629
-33.714
-35.608
-37.318
-38.847
-40.202
-41.389
-42.417
-43.292
-44.022
-44.616
-45.083
-45.43
-45.668
-45.806
-45.853
-45.82
-45.715
-45.549
-45.33
-45.068
-44.771
-44.447
-44.104
-43.747
-43.384
-43.021
-42.662
-42.312
-41.977
-41.659
-41.362
-41.09
-40.845
-40.628
-40.441
-40.285
-40.161
-40.069
-40.01
-39.984
-39.99
-40.029
-40.099
-40.2
-40.33
-40.488
-40.672
-40.88
-41.109
-41.356
-41.621
-41.899
-42.189
-42.49
-42.798
-43.114
-43.434
-43.758
-44.084
-44.41
-44.737
-45.061
-45.384
-45.702
-46.017
-46.326
-46.63
-46.927
-47.217
-47.499
-47.771
-48.032
-48.28
-48.515
-48.735
-48.938
-49.124
-49.291
-49.44
-49.569
-49.678
-49.767
-49.836
-49.884
-49.911
-49.916
-49.9
-49.862
-49.801
-49.719
-49.614
-49.487
-49.338
-49.167
-48.974
-48.759
-48.523
-48.263
-47.982
-47.683
-47.368
-47.038
-46.695
-46.338
-45.973
-45.609
-45.238
-44.858
-44.465
-44.053
-43.633
-43.224
-42.815
-42.396
-42
-41.654
-41.377
-41.2
-41.101
-41.037
-41.033
-41.14
-41.235
-41.173
-41.044
-40.84
-40.534
-40.443
-39.72
-37.543
-35.088
-32.711
-32.571
-37.25
-43.887
-50.573
-54.468
-51.667
-45.62
-39.248
-34.549
-34.834
-37.73
-40.836
-43.613
-44.595
-44.628
-44.798
-44.895
-45.053
-45.196
-45.099
-44.904
-44.723
-44.516
-44.269
-43.994
-43.684
-43.327
-42.915
-42.424
-41.827
-41.132
-40.346
-39.466
-38.49
-37.419
-36.251
-34.99
-33.642
-32.206
-30.684
-29.082
-27.402
-25.653
-23.84
-21.972
-20.058
-18.11
-16.139
-14.159
-12.183
-10.226
-8.303
-6.43
-4.623
-2.896
-1.264
0.26
1.66
2.921
4.025
4.957
5.7
6.241
6.567
6.666
6.529
6.152
5.533
4.672
3.564
2.201
0.573
-1.327
-3.502
-5.952
-8.669
-11.635
-14.822
-18.19
-21.692
-25.283
-28.917
-32.556
-36.161
-39.687
-43.084
-46.289
-49.233
-51.85
-54.079
-55.861
-57.17
-58.012
-58.427
-58.495
-58.303
-57.919
-57.432
-56.949
-56.588
-56.499
-56.823
-57.669
-59.218
-61.718
-65.326
-70.091
-75.798
-81.916
-87.931
-93.407
-97.803
-100.538
-101.186
-99.56
-96.217
-92.472
-89.451
-87.986
-88.865
-92.489
-98.871
-107.762
-116.483
-121.122
-119.307
-107.946
-86.386
-54.967
-9.059
54.047
136.303
238.929
354.344
474.45
592.156
698.941
791.258
865.736
917.927
945.554
945.982
919.099
866.75
789.797
691.702
575.07
442.936
304.555
167.289
38.847
-72.474
-167.069
-245.595
-308.605
-359.556
-397.205
-420.453
-430.286
-426.511
-411.405
-388.108
-358.694
-325.329
-289.326
-251.697
-214.16
-179.062
-148.513
-123.662
-104.752
-91.397
-83.23
-79.851
-80.274
-82.548
-84.447
-84.669
-82.65
-78.51
-72.873
-64.955
-54.33
-43.057
-32.252
-25.985
-28.096
-34.077
-41.464
-43.732
-32.884
-16.576
0.14
10.142
3.146
-11.614
-26.643
-36.233
-31.065
-18.458
-5.383
5.616
8.843
8.608
9.695
10.886
13.331
13.709
7.754
-0.871
-9.948
-16.129
-14.641
-9.395
-3.718
0.206
-1.333
-5.603
-9.803
-13.183
-13.939
-12.947
-11.41
-9.123
-6.282
-2.838
1.413
6.218
11.321
16.662
22.175
27.806
33.536
39.331
45.129
50.872
56.504
61.954
67.184
72.183
76.937
81.447
85.733
89.834
93.824
97.758
101.657
105.519
109.327
113.073
116.762
120.401
123.988
127.508
130.953
134.329
137.643
140.892
144.048
147.041
149.806
152.329
154.566
156.431
157.865
158.804
159.226
159.204
158.771
157.846
156.504
155.047
153.558
151.944
150.253
148.2
146.312
146.509
148.568
150.692
150.18
141.677
125.061
105.857
89.406
83.311
88.71
98.312
106.442
107.169
98.962
87.267
75.597
66.164
59.874
54.549
49.087
43.606
38.027
32.683
27.701
22.793
17.867
12.986
8.155
3.368
-1.355
-5.994
-10.516
-14.863
-19.012
-22.981
-26.775
-30.388
-33.817
-37.059
-40.112
-42.983
-45.673
-48.178
-50.499
-52.637
-54.592
-56.367
-57.968
-59.396
-60.655
-61.751
-62.687
-63.469
-64.103
-64.594
-64.949
-65.175
-65.278
-65.265
-65.145
-64.926
-64.614
-64.22
-63.75
-63.214
-62.621
-61.977
-61.293
-60.576
-59.834
-59.076
-58.309
-57.542
-56.782
-56.036
-55.312
-54.617
-53.958
-53.341
-52.771
-52.254
-51.795
-51.398
-51.067
-50.804
-50.613
-50.495
-50.452
-50.485
-50.594
-50.779
-51.039
-51.372
-51.776
-52.249
-52.788
-53.388
-54.047
-54.76
-55.522
-56.329
-57.176
-58.057
-58.967
-59.901
-60.852
-61.816
-62.785
-63.755
-64.719
-65.673
-66.611
-67.529
-68.421
-69.283
-70.112
-70.905
-71.657
-72.367
-73.032
-73.651
-74.223
-74.746
-75.222
-75.649
-76.03
-76.365
-76.655
-76.904
-77.114
-77.286
-77.425
-77.533
-77.615
-77.673
-77.712
-77.736
-77.749
-77.756
-77.76
-77.766
-77.778
-77.8
-77.836
-77.89
-77.964
-78.063
-78.187
-78.34
-78.523
-78.738
-78.984
-79.264
-79.576
-79.92
-80.295
-80.7
-81.133
-81.592
-82.073
-82.575
-83.093
-83.623
-84.16
-84.701
-85.24
-85.773
-86.293
-86.795
-87.275
-87.725
-88.14
-88.515
-88.842
-89.116
-89.331
-89.48
-89.559
-89.563
-89.487
-89.326
-89.076
-88.736
-88.301
-87.771
-87.143
-86.418
-85.594
-84.673
-83.655
-82.544
-81.341
-80.052
-78.68
-77.236
-75.726
-74.161
-72.551
-70.906
-69.239
-67.561
-65.883
-64.215
-62.566
-60.947
-59.369
-57.845
-56.39
-55.018
-53.74
-52.568
-51.514
-50.588
-49.797
-49.144
-48.629
-48.254
-48.027
-47.966
-48.086
-48.396
-48.898
-49.592
-50.469
-51.516
-52.709
-54.005
-55.362
-56.736
-58.09
-59.398
-60.634
-61.759
-62.724
-63.463
-63.912
-64.028
-63.778
-63.144
-62.138
-60.781
-59.131
-57.289
-55.342
-53.396
-51.564
-49.925
-48.598
-47.721
-47.408
-47.866
-49.336
-51.89
-55.53
-60.11
-65.204
-70.43
-75.465
-79.754
-82.74
-84.178
-83.914
-82.253
-80.295
-79.014
-78.935
-80.694
-83.92
-86.954
-89.636
-91.706
-92.795
-94.913
-95.421
-87.828
-66.223
-22.402
44.989
128.528
220.811
313.155
400.438
483.917
563.1
635.264
696.42
740.884
764.944
767.443
749.053
711.684
656.079
583.384
494.715
389.577
272.986
153.81
40.322
-56.398
-132.161
-191.671
-238.681
-278.562
-313.748
-339.877
-354.589
-357.389
-348.816
-332.479
-311.301
-286.527
-259.117
-229.889
-199.985
-171.074
-144.672
-121.418
-101.411
-84.627
-70.964
-60.192
-51.66
-44.081
-36.226
-27.525
-17.866
-7.472
3.311
14.22
24.745
33.987
41.191
45.993
48.334
48.479
46.814
43.665
39.453
34.725
29.945
25.471
21.574
18.386
15.974
14.385
13.615
13.614
14.345
15.758
17.785
20.356
23.382
26.759
30.401
34.233
38.157
42.068
45.852
49.394
52.623
55.503
58.01
60.134
61.877
63.254
64.302
65.075
65.621
65.984
66.203
66.31
66.35
66.372
66.425
66.562
66.821
67.227
67.803
68.567
69.527
70.689
72.049
73.594
75.317
77.211
79.272
81.494
83.868
86.382
89.024
91.778
94.63
97.563
100.561
103.606
106.68
109.765
112.843
115.898
118.912
121.865
124.738
127.51
130.162
132.674
135.028
137.204
139.186
140.958
142.505
143.815
144.875
145.675
146.207
146.463
146.436
146.121
145.513
144.608
143.405
141.904
140.109
138.023
135.65
132.997
130.071
126.884
123.446
119.767
115.857
111.726
107.389
102.863
98.165
93.315
88.327
83.209
77.98
72.655
67.251
61.785
56.265
50.699
45.109
39.509
33.902
28.305
22.717
17.139
11.606
6.137
0.736
-4.531
-9.574
-14.335
-18.756
-22.823
-26.624
-30.222
-33.578
-36.784
-40.141
-43.742
-47.445
-51.211
-54.538
-57.521
-61.822
-67.447
-72.908
-75.782
-70.844
-57.019
-39.849
-26.443
-26.303
-44.028
-72.637
-101.991
-121.396
-122.684
-109.508
-90.63
-73.208
-64.144
-63.165
-64.737
-66.164
-65.48
-62.632
-60.469
-59.798
-59.882
-60.473
-60.956
-61.017
-61.021
-60.951
-60.425
-59.447
-58.263
-57.004
-55.831
-54.799
-53.757
-52.678
-51.649
-50.681
-49.755
-48.855
-47.935
-46.989
-46.065
-45.185
-44.364
-43.606
-42.899
-42.237
-41.623
-41.055
-40.534
-40.06
-39.629
-39.239
-38.885
-38.565
-38.276
-38.017
-37.781
-37.565
-37.363
-37.173
-36.997
-36.838
-36.696
-36.572
-36.465
-36.375
-36.301
-36.245
-36.205
-36.183
-36.176
-36.185
-36.211
-36.254
-36.316
-36.395
-36.493
-36.609
-36.743
-36.896
-37.068
-37.261
-37.475
-37.709
-37.966
-38.244
-38.544
-38.866
-39.207
-39.567
-39.943
-40.333
-40.735
-41.145
-41.561
-41.978
-42.393
-42.803
-43.204
-43.592
-43.963
-44.314
-44.639
-44.935
-45.198
-45.423
-45.606
-45.744
-45.832
-45.867
-45.845
-45.763
-45.617
-45.404
-45.12
-44.765
-44.334
-43.827
-43.241
-42.577
-41.835
-41.016
-40.122
-39.155
-38.117
-37.013
-35.847
-34.624
-33.347
-32.024
-30.66
-29.261
-27.837
-26.394
-24.94
-23.487
-22.044
-20.624
-19.239
-17.902
-16.626
-15.422
-14.305
-13.285
-12.372
-11.576
-10.904
-10.365
-9.969
-9.725
-9.642
-9.726
-9.983
-10.416
-11.029
-11.821
-12.784
-13.913
-15.2
-16.645
-18.253
-20.03
-21.978
-24.093
-26.368
-28.788
-31.331
-33.968
-36.652
-39.337
-41.976
-44.529
-46.969
-49.267
-51.385
-53.281
-54.895
-56.17
-57.069
-57.553
-57.597
-57.218
-56.448
-55.355
-54.047
-52.606
-51.117
-49.693
-48.426
-47.413
-46.763
-46.55
-46.895
-48.027
-50.069
-52.993
-56.645
-60.621
-64.463
-67.825
-70.245
-71.072
-69.93
-66.893
-62.393
-57.403
-53.093
-50.345
-49.922
-52.779
-58.417
-64.191
-67.527
-66.34
-61.092
-55.769
-51.988
-44.113
-20.714
30.914
118.439
234.031
357.474
469.055
552.052
602.808
630.892
643.445
645.825
638.423
614.138
569.579
505.194
423.587
331.034
233.309
134.433
38.025
-52.443
-133.887
-203.6
-259.322
-300.298
-327.151
-340.651
-342.026
-333.331
-316.355
-293.315
-267.185
-239.867
-212.621
-187.002
-163.846
-143.583
-127.086
-114.337
-104.317
-96.537
-90.355
-84.641
-79.007
-73.087
-66.05
-57.825
-48.866
-39.442
-30.234
-22.152
-15.484
-10.461
-7.446
-6.347
-6.939
-8.978
-11.883
-15.029
-18.056
-20.691
-22.721
-24.07
-24.649
-24.396
-23.371
-21.666
-19.356
-16.505
-13.16
-9.373
-5.231
-0.857
3.62
8.082
12.418
16.547
20.411
23.95
27.13
29.939
32.38
34.469
36.233
37.697
38.888
39.846
40.612
41.238
41.78
42.294
42.839
43.462
44.2
45.083
46.136
47.375
48.813
50.458
52.312
54.375
56.653
59.146
61.853
64.773
67.897
71.217
74.72
78.393
82.224
86.199
90.303
94.52
98.832
103.223
107.673
112.164
116.671
121.17
125.635
130.04
134.358
138.562
142.626
146.523
150.228
153.716
156.967
159.957
162.666
165.077
167.17
168.932
170.347
171.406
172.097
172.413
172.348
171.898
171.062
169.84
168.234
166.248
163.887
161.159
158.074
154.642
150.878
146.796
142.412
137.745
132.815
127.642
122.249
116.658
110.893
104.978
98.936
92.793
86.571
80.296
73.99
67.677
61.378
55.116
48.911
42.782
36.748
30.827
25.034
19.385
13.895
8.577
3.441
-1.499
-6.236
-10.76
-15.064
-19.143
-22.992
-26.608
-29.99
-33.139
-36.054
-38.74
-41.2
-43.44
-45.464
-47.282
-48.9
-50.328
-51.574
-52.649
-53.563
-54.327
-54.952
-55.447
-55.825
-56.094
-56.265
-56.349
-56.354
-56.289
-56.165
-55.99
-55.772
-55.52
-55.241
-54.944
-54.635
-54.321
-54.007
-53.699
-53.4
-53.115
-52.846
-52.596
-52.365
-52.154
-51.963
-51.792
-51.639
-51.503
-51.38
-51.269
-51.166
-51.068
-50.971
-50.871
-50.766
-50.652
-50.526
-50.386
-50.228
-50.05
-49.851
-49.626
-49.376
-49.098
-48.789
-48.45
-48.079
-47.674
-47.237
-46.766
-46.264
-45.73
-45.168
-44.579
-43.965
-43.33
-42.678
-42.012
-41.337
-40.658
-39.98
-39.308
-38.649
-38.008
-37.391
-36.805
-36.254
-35.746
-35.284
-34.874
-34.52
-34.227
-33.999
-33.84
-33.752
-33.739
-33.803
-33.945
-34.168
-34.472
-34.856
-35.321
-35.866
-36.488
-37.185
-37.954
-38.791
-39.692
-40.652
-41.666
-42.729
-43.833
-44.973
-46.142
-47.331
-48.533
-49.741
-50.945
-52.137
-53.31
-54.455
-55.564
-56.629
-57.642
-58.597
-59.486
-60.304
-61.043
-61.698
-62.265
-62.739
-63.115
-63.392
-63.566
-63.635
-63.598
-63.455
-63.206
-62.851
-62.392
-61.831
-61.168
-60.407
-59.551
-58.603
-57.567
-56.446
-55.247
-53.973
-52.63
-51.226
-49.765
-48.255
-46.701
-45.113
-43.496
-41.858
-40.207
-38.549
-36.893
-35.246
-33.615
-32.006
-30.429
-28.891
-27.402
-25.97
-24.605
-23.317
-22.114
-21.005
-19.999
-19.102
-18.319
-17.654
-17.115
-16.705
-16.429
-16.294
-16.305
-16.469
-16.789
-17.266
-17.895
-18.674
-19.604
-20.675
-21.867
-23.17
-24.579
-26.103
-27.772
-29.585
-31.509
-33.559
-35.788
-38.218
-40.867
-43.696
-46.586
-49.482
-52.446
-55.347
-57.82
-59.741
-61.128
-61.87
-62.272
-61.633
-57.979
-51.808
-44.877
-40.24
-43.545
-54.325
-67.17
-76.614
-74.858
-61.842
-45.177
-30.843
-25.303
-29.493
-37.769
-46.485
-52.976
-56.418
-58.78
-60.652
-61.664
-61.737
-60.931
-60.183
-60.749
-63.436
-68.616
-76.366
-86.6
-98.829
-111.453
-121.845
-127.144
-124.584
-112.181
-88.732
-53.136
-4.75
55.655
126.055
203.611
284.69
366.121
445.271
518.805
583.108
635.291
672.85
693.81
697.503
683.052
650.174
600.868
537.563
462.253
375.267
275.766
165.349
50.626
-55.87
-141.352
-199.336
-231.318
-246.498
-254.8
-260.951
-265.469
-266.004
-261.304
-253.137
-244.01
-236.143
-230.34
-226.13
-222.663
-218.837
-213.562
-205.792
-195.016
-181.4
-165.455
-147.917
-129.508
-110.818
-92.523
-75.351
-59.773
-46.076
-34.364
-24.563
-16.622
-10.486
-6.038
-3.132
-1.61
-1.296
-2.029
-3.649
-5.982
-8.879
-12.189
-15.761
-19.454
-23.091
-26.506
-29.555
-32.096
-34.035
-35.315
-35.896
-35.781
-35.007
-33.617
-31.676
-29.257
-26.411
-23.195
-19.669
-15.888
-11.938
-7.908
-3.883
0.041
3.792
7.328
10.617
13.651
16.44
18.999
21.355
23.545
25.596
27.535
29.389
31.178
32.935
34.697
36.503
38.397
40.413
42.572
44.89
47.376
50.028
52.844
55.814
58.921
62.151
65.492
68.933
72.463
76.069
79.737
83.447
87.18
90.918
94.641
98.332
101.972
105.542
109.024
112.402
115.66
118.783
121.751
124.546
127.15
129.546
131.716
133.646
135.318
136.721
137.842
138.671
139.2
139.422
139.332
138.925
138.201
137.158
135.797
134.122
132.137
129.847
127.26
124.385
121.23
117.809
114.134
110.218
106.076
101.724
97.18
92.461
87.586
82.574
77.446
72.221
66.919
61.563
56.172
50.766
45.367
39.992
34.662
29.393
24.204
19.109
14.125
9.264
4.541
-0.033
-4.448
-8.695
-12.764
-16.649
-20.344
-23.844
-27.146
-30.246
-33.144
-35.838
-38.33
-40.621
-42.713
-44.611
-46.319
-47.843
-49.189
-50.364
-51.376
-52.234
-52.945
-53.521
-53.969
-54.3
-54.524
-54.649
-54.686
-54.644
-54.532
-54.358
-54.131
-53.858
-53.545
-53.201
-52.83
-52.439
-52.033
-51.616
-51.194
-50.769
-50.347
-49.928
-49.518
-49.116
-48.727
-48.35
-47.988
-47.64
-47.308
-46.991
-46.689
-46.402
-46.128
-45.866
-45.614
-45.372
-45.137
-44.906
-44.68
-44.454
-44.229
-44.004
-43.776
-43.545
-43.311
-43.073
-42.832
-42.586
-42.334
-42.076
-41.817
-41.559
-41.307
-41.062
-40.819
-40.578
-40.352
-40.135
-39.909
-39.662
-39.372
-39.035
-38.692
-38.355
-37.995
-37.648
-37.378
-37.223
-37.259
-37.505
-37.84
-38.216
-38.715
-39.204
-39.354
-39.143
-38.648
-37.774
-37.03
-35.823
-31.886
-25.755
-19.436
-15.974
-22.421
-39.041
-58.472
-74.124
-75.021
-58.286
-35.053
-13.613
-3.755
-10.353
-23.783
-37.4
-46.595
-47.395
-44.676
-41.907
-39.536
-39.081
-39.32
-39.097
-38.956
-38.859
-38.82
-39.065
-39.465
-39.893
-40.37
-40.871
-41.323
-41.71
-42.068
-42.408
-42.745
-43.106
-43.477
-43.848
-44.232
-44.627
-45.031
-45.441
-45.853
-46.262
-46.669
-47.073
-47.471
-47.861
-48.242
-48.609
-48.962
-49.297
-49.613
-49.907
-50.177
-50.42
-50.636
-50.822
-50.976
-51.099
-51.187
-51.241
-51.258
-51.238
-51.177
-51.076
-50.931
-50.742
-50.507
-50.224
-49.891
-49.506
-49.07
-48.579
-48.034
-47.434
-46.777
-46.064
-45.296
-44.472
-43.595
-42.664
-41.683
-40.654
-39.58
-38.464
-37.309
-36.119
-34.898
-33.651
-32.382
-31.095
-29.797
-28.494
-27.194
-25.907
-24.643
-23.411
-22.224
-21.092
-20.027
-19.04
-18.141
-17.339
-16.643
-16.063
-15.61
-15.297
-15.135
-15.132
-15.299
-15.641
-16.166
-16.877
-17.77
-18.842
-20.09
-21.514
-23.125
-24.931
-26.935
-29.138
-31.534
-34.11
-36.85
-39.729
-42.701
-45.722
-48.748
-51.734
-54.652
-57.466
-60.133
-62.602
-64.803
-66.668
-68.142
-69.176
-69.74
-69.832
-69.46
-68.671
-67.547
-66.157
-64.601
-62.982
-61.373
-59.891
-58.665
-57.811
-57.54
-58.087
-59.549
-61.97
-65.258
-69.044
-72.953
-76.627
-79.489
-80.991
-80.92
-79.142
-75.863
-72.11
-69.016
-67.316
-67.927
-70.584
-73.238
-75.561
-77.554
-79.307
-83.333
-86.565
-81.132
-59.726
-13.2
59.385
149.331
248.199
345.995
437.081
522.817
602.448
673.926
733.95
776.857
799.267
800.371
781.273
744.704
691.74
622.999
538.509
436.708
322.615
205.349
93.793
0.011
-72.289
-128.148
-171.406
-208.263
-240.848
-264.335
-276.666
-277.974
-270.067
-257.991
-245.551
-233.953
-223.628
-214.576
-206.556
-199.298
-192.323
-184.547
-174.804
-162.802
-148.726
-132.966
-116.208
-98.973
-81.667
-65.075
-50.011
-36.748
-25.438
-16.078
-8.169
-2.386
0.565
1.977
2.34
3.88
9.248
15.777
21.708
24.36
20.005
12.075
3.499
-3.675
-6.134
-6.125
-5.948
-6.086
-7.906
-10.509
-12.74
-14.724
-16.281
-17.467
-18.491
-19.203
-19.474
-19.331
-18.79
-17.868
-16.595
-15
-13.102
-10.936
-8.566
-6.037
-3.403
-0.737
1.919
4.545
7.122
9.649
12.124
14.547
16.933
19.307
21.688
24.095
26.539
29.028
31.581
34.225
36.988
39.899
42.977
46.228
49.656
53.256
57.019
60.932
64.975
69.121
73.349
77.638
81.967
86.322
90.68
95.019
99.315
103.544
107.683
111.71
115.603
119.343
122.91
126.286
129.456
132.405
135.119
137.584
139.784
141.705
143.334
144.659
145.67
146.357
146.712
146.729
146.406
145.739
144.73
143.38
141.691
139.668
137.316
134.644
131.658
128.369
124.788
120.927
116.8
112.422
107.808
102.976
97.942
92.725
87.344
81.819
76.171
70.419
64.586
58.694
52.763
46.816
40.875
34.962
29.099
23.305
17.603
12.011
6.548
1.231
-3.921
-8.895
-13.674
-18.246
-22.599
-26.721
-30.603
-34.237
-37.616
-40.733
-43.587
-46.173
-48.49
-50.539
-52.321
-53.838
-55.096
-56.099
-56.853
-57.368
-57.651
-57.714
-57.566
-57.221
-56.69
-55.986
-55.124
-54.116
-52.978
-51.724
-50.369
-48.926
-47.41
-45.835
-44.215
-42.564
-40.893
-39.216
-37.544
-35.888
-34.258
-32.664
-31.116
-29.62
-28.185
-26.818
-25.523
-24.307
-23.173
-22.125
-21.164
-20.293
-19.513
-18.822
-18.222
-17.71
-17.284
-16.944
-16.684
-16.504
-16.398
-16.364
-16.398
-16.494
-16.65
-16.86
-17.119
-17.425
-17.772
-18.157
-18.574
-19.021
-19.492
-19.985
-20.494
-21.016
-21.547
-22.084
-22.622
-23.159
-23.69
-24.214
-24.726
-25.225
-25.707
-26.17
-26.613
-27.033
-27.427
-27.795
-28.134
-28.444
-28.721
-28.966
-29.177
-29.352
-29.491
-29.592
-29.655
-29.678
-29.66
-29.602
-29.501
-29.36
-29.176
-28.952
-28.688
-28.385
-28.044
-27.668
-27.259
-26.818
-26.35
-25.856
-25.34
-24.806
-24.258
-23.699
-23.133
-22.566
-22.001
-21.443
-20.896
-20.364
-19.853
-19.367
-18.91
-18.487
-18.102
-17.76
-17.466
-17.223
-17.035
-16.906
-16.837
-16.832
-16.892
-17.017
-17.208
-17.465
-17.786
-18.171
-18.616
-19.12
-19.678
-20.286
-20.94
-21.633
-22.361
-23.115
-23.89
-24.677
-25.471
-26.265
-27.053
-27.828
-28.581
-29.302
-29.985
-30.628
-31.213
-31.725
-32.151
-32.472
-32.69
-32.817
-32.836
-32.729
-32.528
-32.252
-31.914
-31.543
-31.116
-30.573
-29.939
-29.263
-28.397
-27.203
-25.813
-24.224
-22.411
-20.753
-18.356
-14.351
-10.052
-5.799
-3.785
-6.765
-11.706
-16.438
-17.862
-11.978
-2.412
7.637
15.361
18.001
19.042
19.791
20.707
20.78
14.719
4.379
-6.27
-11.72
-2.846
18.104
43.293
63.87
68.404
55.905
33.467
10.471
-3.49
-4.734
4.261
16.504
26.477
31.224
29.699
25.395
20.646
16.155
13.154
10.617
7.711
4.782
1.642
-1.598
-4.671
-7.755
-10.994
-14.364
-17.9
-21.619
-25.478
-29.43
-33.431
-37.407
-41.282
-45.021
-48.594
-51.953
-55.056
-57.839
-60.222
-62.139
-63.539
-64.376
-64.628
-64.289
-63.368
-61.909
-59.991
-57.716
-55.219
-52.642
-50.129
-47.845
-45.927
-44.588
-44.118
-44.694
-46.378
-49.048
-52.318
-55.826
-59.311
-62.363
-64.467
-65.267
-64.582
-62.864
-61.232
-60.625
-61.746
-65.087
-70.821
-78.993
-89.241
-99.83
-107.913
-110.566
-104.811
-88.352
-59.602
-16.771
41.256
113.679
198.303
291.883
390.062
488.857
584.394
671.67
745.586
801.978
837.513
850.079
840.002
808.633
756.244
684.155
593.474
483.81
360.988
234.723
114.132
11.049
-70.241
-133.922
-183.393
-223.976
-257.799
-281.339
-293.177
-293.854
-285.253
-271.297
-254.961
-237.49
-219.393
-201.022
-183.094
-165.982
-149.933
-135.316
-121.982
-109.954
-99.554
-90.563
-82.361
-74.691
-67.27
-59.686
-52.043
-44.468
-36.957
-29.952
-24.104
-19.727
-17.067
-16.355
-17.449
-20.129
-24.168
-29.067
-34.275
-39.429
-44.216
-48.36
-51.724
-54.19
-55.685
-56.261
-55.998
-54.946
-53.163
-50.702
-47.629
-44.057
-40.11
-35.898
-31.525
-27.085
-22.678
-18.421
-14.415
-10.724
-7.378
-4.384
-1.745
0.538
2.474
4.091
5.431
6.542
7.465
8.236
8.895
9.485
10.056
10.662
11.347
12.138
13.06
14.128
15.357
16.762
18.348
20.113
22.053
24.167
26.453
28.914
31.546
34.34
37.286
40.371
43.585
46.915
50.349
53.869
57.46
61.106
64.789
68.495
72.205
75.899
79.555
83.152
86.668
90.08
93.367
96.507
99.478
102.26
104.834
107.183
109.289
111.137
112.712
114
114.99
115.671
116.035
116.074
115.783
115.159
114.201
112.911
111.29
109.343
107.077
104.499
101.62
98.451
95.004
91.293
87.335
83.144
78.739
74.139
69.361
64.425
59.352
54.163
48.877
43.516
38.101
32.653
27.191
21.736
16.308
10.927
5.612
0.381
-4.749
-9.76
-14.636
-19.364
-23.928
-28.318
-32.521
-36.528
-40.33
-43.92
-47.292
-50.44
-53.361
-56.052
-58.513
-60.742
-62.741
-64.511
-66.056
-67.379
-68.485
-69.38
-70.07
-70.563
-70.867
-70.99
-70.943
-70.735
-70.378
-69.883
-69.261
-68.525
-67.687
-66.759
-65.754
-64.684
-63.562
-62.398
-61.206
-59.996
-58.78
-57.567
-56.369
-55.195
-54.053
-52.953
-51.903
-50.91
-49.98
-49.121
-48.337
-47.635
-47.017
-46.489
-46.053
-45.711
-45.465
-45.315
-45.262
-45.304
-45.44
-45.667
-45.982
-46.382
-46.862
-47.417
-48.042
-48.731
-49.478
-50.278
-51.122
-52.005
-52.92
-53.859
-54.816
-55.784
-56.756
-57.726
-58.686
-59.63
-60.552
-61.445
-62.304
-63.123
-63.896
-64.618
-65.283
-65.888
-66.429
-66.902
-67.303
-67.632
-67.886
-68.063
-68.165
-68.19
-68.139
-68.015
-67.818
-67.551
-67.217
-66.819
-66.361
-65.847
-65.282
-64.67
-64.016
-63.326
-62.603
-61.855
-61.085
-60.3
-59.504
-58.705
-57.907
-57.117
-56.339
-55.581
-54.85
-54.15
-53.484
-52.857
-52.273
-51.738
-51.258
-50.834
-50.463
-50.157
-49.927
-49.778
-49.723
-49.753
-49.848
-50.024
-50.291
-50.616
-50.968
-51.326
-51.654
-51.975
-52.339
-52.711
-53.035
-53.444
-54.097
-54.891
-55.83
-56.94
-57.864
-59.542
-62.89
-66.584
-70.222
-71.379
-67.159
-60.756
-54.295
-50.947
-55.068
-62.795
-70.85
-76.987
-77.498
-75.027
-72.255
-69.776
-69.224
-69.647
-69.823
-69.982
-69.969
-69.864
-69.916
-69.963
-69.875
-69.695
-69.434
-69.078
-68.629
-68.1
-67.496
-66.843
-66.17
-65.469
-64.732
-63.967
-63.175
-62.359
-61.527
-60.677
-59.809
-58.927
-58.034
-57.133
-56.225
-55.311
-54.393
-53.47
-52.543
-51.61
-50.67
-49.722
-48.764
-47.792
-46.804
-45.797
-44.77
-43.72
-42.647
-41.549
-40.425
-39.274
-38.095
-36.888
-35.652
-34.386
-33.093
-31.77
-30.421
-29.048
-27.653
-26.243
-24.823
-23.398
-21.975
-20.564
-19.174
-17.819
-16.511
-15.26
-14.078
-12.978
-11.976
-11.085
-10.319
-9.68
-9.177
-8.827
-8.636
-8.601
-8.719
-8.977
-9.367
-9.906
-10.589
-11.388
-12.328
-13.469
-14.853
-16.527
-18.501
-20.711
-23.14
-25.85
-28.734
-31.461
-33.912
-36.138
-38.092
-40.064
-41.543
-40.759
-37.923
-34.571
-33.149
-38.52
-50.574
-64.248
-74.667
-74.982
-64.614
-50.582
-38.405
-33.638
-37.558
-45.242
-53.324
-59.627
-63.134
-65.006
-65.459
-64.053
-60.673
-55.349
-48.817
-41.777
-34.859
-29.251
-26.115
-26.562
-31.537
-40.94
-53.997
-70.244
-88.878
-108.552
-127.629
-143.534
-153.383
-155.061
-146.67
-126.26
-92.4
-43.741
20.37
98.719
189.082
288.711
393.913
500.706
604.813
700.732
782.942
847.165
889.895
908.704
902.333
869.787
811.22
730.044
631.93
522.607
407.403
288.291
165.374
42.563
-73.321
-171.502
-240.019
-274.604
-277.499
-258.109
-231.746
-208.459
-194.425
-190.375
-189.203
-188.3
-186.109
-182.826
-183.76
-186.614
-188.046
-184.767
-170.982
-149.874
-125.627
-101.209
-81.321
-64.433
-48.643
-34.07
-19.585
-6.346
4.392
12.946
19.237
23.444
25.984
26.878
26.206
24.242
21.207
17.293
12.719
7.666
2.299
-3.191
-8.608
-13.782
-18.583
-22.854
-26.413
-29.134
-30.93
-31.777
-31.77
-30.992
-29.44
-27.277
-24.862
-22.324
-19.649
-16.937
-13.967
-11.331
-10.762
-12.016
-13.653
-13.272
-6.223
7.265
22.464
34.71
37.375
29.955
18.805
8.842
5.341
9.335
16.132
22.841
27.535
29.615
31.043
32.744
34.668
36.903
39.169
41.388
43.82
46.535
49.474
52.63
56.004
59.575
63.324
67.215
71.189
75.215
79.295
83.417
87.56
91.707
95.835
99.927
103.97
107.947
111.838
115.624
119.285
122.801
126.151
129.317
132.279
135.018
137.516
139.756
141.723
143.403
144.782
145.851
146.6
147.021
147.106
146.852
146.255
145.315
144.032
142.407
140.444
138.148
135.527
132.588
129.343
125.803
121.981
117.894
113.557
108.99
104.21
99.238
94.096
88.805
83.388
77.868
72.269
66.615
60.929
55.237
49.561
43.925
38.351
32.862
27.479
22.222
17.109
12.16
7.392
2.819
-1.543
-5.682
-9.586
-13.244
-16.648
-19.792
-22.67
-25.278
-27.616
-29.683
-31.481
-33.015
-34.289
-35.31
-36.086
-36.628
-36.946
-37.052
-36.959
-36.683
-36.237
-35.639
-34.903
-34.048
-33.089
-32.044
-30.929
-29.761
-28.556
-27.33
-26.098
-24.876
-23.676
-22.514
-21.4
-20.348
-19.367
-18.468
-17.66
-16.946
-16.333
-15.82
-15.412
-15.118
-14.937
-14.869
-14.922
-15.097
-15.395
-15.829
-16.386
-17.029
-17.738
-18.493
-19.246
-19.987
-20.706
-21.351
-21.943
-22.582
-23.324
-24.202
-25.363
-26.89
-28.629
-30.618
-32.821
-34.604
-36.558
-39.476
-42.236
-44.799
-44.374
-36.471
-23.274
-7.994
2.004
-3.954
-25.08
-54.742
-81.496
-90.785
-80.137
-56.436
-30.837
-15.062
-12.818
-19.395
-27.353
-32.481
-33.488
-33.718
-37.903
-44.169
-50.563
-54.061
-50.562
-43.603
-36.383
-30.958
-30.598
-32.994
-35.763
-38.35
-39.27
-39.301
-39.479
-39.6
-39.822
-40.076
-40.14
-40.156
-40.238
-40.353
-40.497
-40.68
-40.894
-41.127
-41.372
-41.607
-41.805
-41.976
-42.127
-42.252
-42.35
-42.421
-42.461
-42.472
-42.457
-42.414
-42.343
-42.244
-42.118
-41.966
-41.791
-41.594
-41.378
-41.144
-40.896
-40.636
-40.367
-40.091
-39.813
-39.535
-39.259
-38.991
-38.732
-38.485
-38.253
-38.039
-37.845
-37.673
-37.524
-37.401
-37.303
-37.233
-37.189
-37.174
-37.186
-37.225
-37.291
-37.382
-37.498
-37.636
-37.795
-37.972
-38.164
-38.37
-38.586
-38.808
-39.035
-39.262
-39.486
-39.703
-39.91
-40.101
-40.274
-40.424
-40.547
-40.639
-40.697
-40.717
-40.695
-40.63
-40.519
-40.358
-40.145
-39.879
-39.557
-39.177
-38.738
-38.239
-37.677
-37.053
-36.366
-35.615
-34.8
-33.923
-32.983
-31.981
-30.919
-29.797
-28.618
-27.383
-26.094
-24.754
-23.367
-21.936
-20.465
-18.959
-17.422
-15.859
-14.277
-12.679
-11.074
-9.465
-7.859
-6.263
-4.684
-3.129
-1.607
-0.125
1.306
2.677
3.975
5.187
6.301
7.306
8.189
8.939
9.543
9.991
10.273
10.379
10.301
10.028
9.55
8.857
7.941
6.798
5.427
3.829
2.004
-0.044
-2.307
-4.782
-7.463
-10.351
-13.445
-16.742
-20.238
-23.922
-27.775
-31.769
-35.874
-40.047
-44.244
-48.429
-52.556
-56.589
-60.486
-64.191
-67.656
-70.829
-73.658
-76.115
-78.147
-79.688
-80.722
-81.258
-81.342
-81.089
-80.54
-79.666
-78.605
-77.597
-76.906
-76.868
-77.588
-78.951
-81.099
-84.287
-88.386
-92.923
-97.08
-99.773
-100.579
-99.664
-96.824
-91.817
-84.945
-77.165
-70.3
-66.576
-67.103
-71.807
-80.656
-93.332
-108.729
-124.652
-137.41
-142.531
-136.429
-116.948
-82.309
-31.153
36.817
120.404
216.492
320.23
426.387
530.5
627.924
713.502
782.566
831.201
856.592
858.134
836.396
791.624
725.182
640.036
539.786
429.121
313.415
196.691
82.611
-24.029
-119.155
-199.759
-263.458
-309.796
-339.692
-353.506
-352.104
-338.17
-314.731
-285.081
-252.824
-220.253
-188.955
-161.152
-138.643
-121.869
-110.639
-103.958
-100.133
-98.102
-96.948
-95.125
-91.377
-85.139
-76.256
-65.269
-53.223
-40.859
-28.932
-18.489
-10.226
-4.502
-1.477
-0.892
-2.279
-5.239
-9.261
-13.746
-18.304
-22.65
-26.551
-29.881
-32.506
-34.307
-35.27
-35.428
-34.813
-33.448
-31.357
-28.58
-25.204
-21.343
-17.113
-12.611
-7.909
-3.084
1.77
6.538
11.101
15.379
19.329
22.924
26.152
29.002
31.477
33.604
35.43
37
38.358
39.535
40.558
41.459
42.28
43.067
43.87
44.727
45.663
46.702
47.861
49.156
50.597
52.187
53.916
55.782
57.783
59.919
62.193
64.6
67.133
69.787
72.55
75.414
78.368
81.399
84.494
87.64
90.823
94.028
97.242
100.45
103.635
106.778
109.861
112.864
115.768
118.555
121.205
123.699
126.022
128.156
130.087
131.8
133.284
134.525
135.513
136.238
136.692
136.869
136.761
136.367
135.682
134.707
133.442
131.889
130.054
127.94
125.557
122.912
120.015
116.878
113.513
109.935
106.158
102.197
98.069
93.79
89.379
84.854
80.231
75.53
70.768
65.963
61.132
56.292
51.461
46.654
41.887
37.176
32.535
27.978
23.519
19.169
14.941
10.845
6.889
3.083
-0.566
-4.054
-7.375
-10.526
-13.504
-16.31
-18.941
-21.401
-23.691
-25.814
-27.775
-29.577
-31.227
-32.731
-34.096
-35.328
-36.436
-37.427
-38.31
-39.093
-39.785
-40.393
-40.927
-41.396
-41.808
-42.171
-42.496
-42.788
-43.058
-43.314
-43.561
-43.805
-44.05
-44.298
-44.555
-44.832
-45.129
-45.444
-45.79
-46.17
-46.593
-47.077
-47.608
-48.151
-48.704
-49.266
-49.797
-50.294
-50.74
-51.07
-51.325
-51.613
-51.948
-52.321
-52.876
-53.697
-54.655
-55.834
-57.186
-58.058
-59.327
-62.006
-64.729
-67.392
-67.02
-58.871
-46.479
-33.7
-26.418
-34.207
-53.078
-74.483
-91.003
-91.569
-78.089
-60.27
-44.144
-37.136
-39.534
-44.893
-50.174
-53.073
-52.921
-52.09
-51.437
-50.751
-50.161
-49.366
-48.259
-47.136
-46.104
-45.126
-44.235
-43.482
-42.846
-42.305
-41.846
-41.429
-41.031
-40.673
-40.355
-40.065
-39.815
-39.622
-39.475
-39.366
-39.331
-39.389
-39.556
-39.862
-40.278
-40.754
-41.313
-42.003
-42.689
-43.214
-43.667
-44.033
-44.281
-44.737
-44.505
-42.712
-40.593
-38.521
-38.766
-44.051
-51.354
-58.659
-62.969
-60.169
-53.896
-47.232
-42.29
-42.554
-45.53
-48.692
-51.465
-52.3
-52.093
-51.981
-51.751
-51.579
-51.384
-50.926
-50.405
-49.964
-49.57
-49.264
-49.051
-48.853
-48.673
-48.545
-48.291
-47.759
-47.104
-46.308
-45.297
-44.532
-43.256
-40.508
-37.56
-34.825
-34.309
-39.596
-48.434
-57.644
-63.85
-60.787
-49.629
-36.283
-24.744
-21.312
-27.249
-36.636
-46.057
-51.998
-52.142
-49.954
-47.543
-45.571
-45.377
-45.894
-46.208
-46.64
-47.006
-47.362
-47.93
-48.558
-49.118
-49.635
-50.087
-50.426
-50.66
-50.801
-50.842
-50.799
-50.692
-50.502
-50.22
-49.848
-49.379
-48.811
-48.141
-47.365
-46.48
-45.485
-44.384
-43.178
-41.869
-40.462
-38.961
-37.369
-35.694
-33.942
-32.12
-30.236
-28.299
-26.319
-24.306
-22.272
-20.23
-18.192
-16.173
-14.186
-12.246
-10.367
-8.564
-6.854
-5.254
-3.783
-2.458
-1.295
-0.309
0.487
1.08
1.457
1.612
1.537
1.228
0.679
-0.116
-1.163
-2.459
-3.993
-5.751
-7.713
-9.864
-12.196
-14.7
-17.362
-20.172
-23.118
-26.193
-29.389
-32.691
-36.056
-39.432
-42.769
-46.026
-49.193
-52.27
-55.249
-58.103
-60.772
-63.193
-65.301
-67.049
-68.376
-69.185
-69.464
-69.302
-68.897
-68.567
-68.607
-69.188
-70.4
-72.315
-74.707
-77.17
-79.276
-80.347
-79.824
-77.375
-72.735
-65.901
-57.487
-48.376
-39.345
-31.423
-25.42
-22.112
-22.52
-27.074
-35.561
-47.519
-62.315
-79.209
-96.543
-111.049
-119.525
-120.226
-114.632
-106.323
-95.595
-77.742
-42.739
19.581
111.436
226.439
350.954
470.791
577.911
669.463
745.922
807.322
851.01
873.126
870.657
842.711
789.996
714.844
620.927
512.318
394.068
271.821
150.301
33.958
-72.61
-165.743
-242.728
-301.88
-343.362
-368.52
-378.572
-375.113
-360.695
-338.22
-310.745
-281.062
-250.928
-221.429
-194.016
-170.32
-151.067
-136.14
-124.85
-116.232
-109.69
-104.898
-100.944
-96.278
-89.887
-81.499
-71.389
-60.143
-48.024
-35.299
-22.785
-11.559
-2.635
4.248
10.899
17.36
22.322
23.309
15.577
-0.12
-18.202
-33.217
-37.637
-30.853
-19.765
-9.666
-6.291
-10.68
-17.587
-23.79
-27.136
-26.953
-25.411
-23.552
-21.359
-18.978
-16.153
-12.861
-9.457
-6.074
-2.714
0.566
3.695
6.607
9.257
11.652
13.839
15.856
17.702
19.391
20.958
22.444
23.892
25.333
26.793
28.285
29.837
31.481
33.249
35.183
37.312
39.65
42.206
44.983
47.98
51.194
54.612
58.216
61.985
65.905
69.961
74.141
78.43
82.807
87.25
91.738
96.246
100.755
105.242
109.682
114.055
118.338
122.51
126.554
130.449
134.173
137.707
141.031
144.123
146.968
149.548
151.846
153.847
155.541
156.915
157.963
158.676
159.051
159.083
158.771
158.117
157.121
155.789
154.124
152.134
149.827
147.212
144.3
141.102
137.631
133.901
129.926
125.722
121.305
116.693
111.903
106.954
101.865
96.655
91.343
85.949
80.493
74.993
69.469
63.941
58.425
52.941
47.505
42.133
36.841
31.643
26.552
21.581
16.741
12.043
7.495
3.106
-1.117
-5.166
-9.035
-12.719
-16.213
-19.515
-22.62
-25.528
-28.238
-30.749
-33.062
-35.18
-37.105
-38.839
-40.388
-41.756
-42.948
-43.971
-44.831
-45.536
-46.093
-46.511
-46.799
-46.963
-47.014
-46.959
-46.806
-46.563
-46.237
-45.837
-45.368
-44.84
-44.257
-43.628
-42.959
-42.258
-41.531
-40.785
-40.026
-39.26
-38.493
-37.731
-36.979
-36.241
-35.523
-34.828
-34.16
-33.523
-32.922
-32.358
-31.83
-31.336
-30.875
-30.447
-30.056
-29.7
-29.369
-29.067
-28.808
-28.606
-28.473
-28.409
-28.387
-28.404
-28.485
-28.609
-28.715
-28.759
-28.689
-28.498
-28.26
-27.991
-27.61
-27.2
-27.044
-27.194
-27.566
-28.194
-28.762
-29.868
-33.279
-38.559
-44.103
-47.183
-42.746
-31.248
-17.726
-7.246
-7
-17.24
-31.212
-43.707
-49.038
-46.374
-40.778
-35.309
-32.112
-31.768
-32.205
-32.524
-32.784
-32.921
-33.25
-33.84
-34.415
-34.895
-35.33
-35.712
-36.03
-36.296
-36.524
-36.741
-36.995
-37.301
-37.635
-37.993
-38.375
-38.78
-39.21
-39.661
-40.127
-40.603
-41.093
-41.595
-42.108
-42.632
-43.164
-43.703
-44.248
-44.798
-45.351
-45.905
-46.46
-47.014
-47.565
-48.111
-48.649
-49.178
-49.695
-50.198
-50.684
-51.151
-51.597
-52.02
-52.418
-52.791
-53.136
-53.453
-53.742
-54.001
-54.231
-54.431
-54.601
-54.741
-54.85
-54.929
-54.977
-54.995
-54.983
-54.939
-54.864
-54.756
-54.616
-54.443
-54.235
-53.991
-53.712
-53.397
-53.045
-52.656
-52.23
-51.766
-51.265
-50.725
-50.147
-49.529
-48.872
-48.173
-47.433
-46.651
-45.827
-44.96
-44.051
-43.1
-42.108
-41.076
-40.005
-38.898
-37.755
-36.581
-35.379
-34.152
-32.906
-31.646
-30.379
-29.114
-27.86
-26.628
-25.427
-24.269
-23.167
-22.131
-21.173
-20.302
-19.529
-18.862
-18.311
-17.887
-17.602
-17.468
-17.495
-17.693
-18.071
-18.638
-19.399
-20.352
-21.497
-22.83
-24.353
-26.075
-28.003
-30.14
-32.486
-35.038
-37.785
-40.711
-43.783
-46.955
-50.176
-53.398
-56.574
-59.67
-62.649
-65.466
-68.072
-70.4
-72.393
-74.002
-75.184
-75.9
-76.135
-75.912
-75.293
-74.389
-73.308
-72.129
-70.948
-69.865
-69
-68.492
-68.467
-69.036
-70.349
-72.624
-75.975
-80.353
-85.533
-91.057
-96.436
-101.235
-104.928
-106.829
-106.532
-104.154
-100.195
-95.586
-91.348
-88.147
-86.656
-87.801
-91.077
-94.19
-94.599
-89.783
-80.009
-68.007
-54.632
-36.867
-5.819
48.578
132.913
247.261
379.694
513.543
630.914
714.801
761.761
778.264
775.153
766.236
754.128
730.083
684.036
607.324
501.818
380.112
255.018
137.157
30.936
-64.849
-150.341
-225.376
-288.496
-337.174
-371.645
-392.772
-401.536
-400.056
-389.78
-372.173
-349.573
-323.686
-295.267
-265.328
-234.822
-204.884
-177.427
-153.55
-133.235
-116.452
-103.306
-93.672
-87.338
-83.368
-79.852
-75.593
-70.271
-63.779
-56.263
-47.908
-38.81
-29.587
-21.471
-15.212
-11.031
-8.922
-8.532
-9.561
-11.874
-15.108
-18.664
-22.107
-25.164
-27.674
-29.672
-31.144
-31.981
-32.151
-31.681
-30.61
-29.014
-26.951
-24.437
-21.515
-18.238
-14.661
-10.862
-6.912
-2.855
1.252
5.357
9.401
13.302
17.002
20.474
23.71
26.723
29.531
32.148
34.597
36.915
39.134
41.287
43.401
45.493
47.584
49.701
51.875
54.148
56.549
59.094
61.793
64.65
67.664
70.835
74.156
77.607
81.176
84.849
88.618
92.474
96.407
100.402
104.442
108.511
112.589
116.662
120.71
124.717
128.664
132.535
136.314
139.986
143.536
146.948
150.205
153.29
156.185
158.875
161.345
163.579
165.562
167.282
168.726
169.886
170.751
171.313
171.565
171.5
171.116
170.407
169.372
168.01
166.321
164.306
161.968
159.312
156.344
153.07
149.498
145.639
141.502
137.1
132.445
127.551
122.432
117.106
111.587
105.893
100.042
94.053
87.945
81.738
75.451
69.105
62.72
56.316
49.912
43.529
37.186
30.903
24.698
18.589
12.594
6.731
1.015
-4.539
-9.915
-15.1
-20.082
-24.849
-29.391
-33.699
-37.766
-41.584
-45.148
-48.455
-51.501
-54.286
-56.809
-59.071
-61.075
-62.825
-64.326
-65.584
-66.605
-67.399
-67.974
-68.339
-68.506
-68.485
-68.288
-67.926
-67.413
-66.76
-65.981
-65.089
-64.096
-63.016
-61.861
-60.645
-59.379
-58.077
-56.749
-55.409
-54.066
-52.732
-51.416
-50.129
-48.879
-47.675
-46.523
-45.43
-44.402
-43.443
-42.558
-41.748
-41.017
-40.365
-39.795
-39.304
-38.893
-38.561
-38.305
-38.125
-38.015
-37.972
-37.995
-38.08
-38.224
-38.425
-38.675
-38.969
-39.306
-39.684
-40.09
-40.513
-40.941
-41.362
-41.776
-42.195
-42.602
-42.977
-43.348
-43.732
-44.143
-44.605
-45.094
-45.56
-46.026
-46.539
-46.977
-47.195
-47.281
-47.226
-47.004
-46.925
-46.162
-43.911
-41.326
-38.759
-38.327
-42.565
-48.675
-54.793
-58.142
-54.906
-48.468
-41.698
-36.563
-36.31
-38.626
-41.167
-43.416
-43.946
-43.594
-43.434
-43.269
-43.24
-43.28
-43.177
-43.076
-43.094
-43.196
-43.377
-43.65
-44.015
-44.462
-44.986
-45.567
-46.177
-46.825
-47.517
-48.247
-49.011
-49.805
-50.623
-51.464
-52.325
-53.201
-54.083
-54.968
-55.848
-56.718
-57.572
-58.402
-59.202
-59.965
-60.683
-61.35
-61.958
-62.5
-62.969
-63.359
-63.664
-63.879
-63.998
-64.018
-63.934
-63.742
-63.441
-63.033
-62.515
-61.89
-61.157
-60.313
-59.365
-58.319
-57.169
-55.911
-54.543
-53.061
-51.477
-49.809
-48.05
-46.193
-44.274
-42.319
-40.354
-38.414
-36.482
-34.523
-32.57
-30.677
-28.735
-26.61
-24.397
-22.096
-19.691
-17.496
-14.697
-10.497
-6.055
-1.727
0.369
-2.3
-6.952
-11.737
-13.894
-9.628
-2.316
5.173
10.873
11.542
9.481
7.022
4.675
3.858
3.736
3.243
2.58
1.613
0.413
-0.807
-2.184
-3.822
-5.669
-7.702
-9.92
-12.314
-14.867
-17.565
-20.374
-23.257
-26.213
-29.247
-32.343
-35.477
-38.612
-41.695
-44.684
-47.554
-50.282
-52.865
-55.284
-57.491
-59.434
-61.053
-62.286
-63.111
-63.49
-63.347
-62.697
-61.647
-60.413
-59.377
-58.904
-59.222
-60.486
-62.766
-65.905
-69.643
-73.487
-76.586
-78.064
-77.14
-73.38
-66.82
-57.962
-47.562
-36.635
-26.599
-19.191
-16.369
-19.452
-28.932
-44.501
-65.06
-89.299
-115.387
-140.353
-160.436
-172.311
-172.78
-159.222
-130.303
-84.345
-21.223
55.935
144.865
243.835
351.184
467.996
589.474
703.89
799.511
863.293
890.754
887.792
860.356
815.447
755.694
678.382
584.145
475.377
356.81
236.028
118.416
8.17
-90.711
-175.971
-246.052
-299.735
-337.238
-359.751
-368.303
-365.23
-354.458
-338.221
-317.823
-293.509
-262.58
-226.463
-190.878
-161.416
-145.338
-142.968
-146.759
-150.197
-146.492
-133.693
-117.246
-100.592
-84.531
-69.718
-52.618
-30.897
-8.817
11.123
25.409
29.742
27.897
23.027
17.34
14.789
13.701
12.116
9.83
5.574
0.314
-4.637
-9.292
-13.413
-17.015
-20.269
-22.918
-24.707
-25.641
-25.788
-25.07
-23.421
-21.038
-18.002
-14.398
-10.663
-5.977
0.455
7.315
14.153
18.61
17.875
14.897
11.636
11.065
17.305
26.721
36.244
43.781
45.863
45.035
43.874
42.977
43.918
45.821
47.554
49.37
51.154
53.023
55.239
57.664
60.185
62.845
65.653
68.588
71.645
74.815
78.086
81.468
84.976
88.59
92.287
96.055
99.875
103.728
107.597
111.462
115.301
119.097
122.831
126.487
130.047
133.497
136.82
139.998
143.014
145.851
148.491
150.92
153.121
155.08
156.783
158.218
159.374
160.243
160.817
161.088
161.052
160.705
160.044
159.068
157.779
156.177
154.266
152.051
149.538
146.733
143.645
140.284
136.66
132.785
128.672
124.334
119.785
115.041
110.118
105.03
99.796
94.432
88.956
83.385
77.738
72.032
66.286
60.516
54.741
48.977
43.241
37.55
31.919
26.362
20.894
15.53
10.281
5.16
0.179
-4.652
-9.323
-13.823
-18.147
-22.285
-26.231
-29.98
-33.527
-36.868
-40.001
-42.923
-45.633
-48.132
-50.42
-52.498
-54.369
-56.038
-57.507
-58.782
-59.868
-60.773
-61.502
-62.063
-62.463
-62.711
-62.813
-62.78
-62.618
-62.336
-61.944
-61.45
-60.862
-60.19
-59.442
-58.626
-57.751
-56.826
-55.857
-54.855
-53.824
-52.775
-51.713
-50.645
-49.579
-48.52
-47.473
-46.445
-45.439
-44.459
-43.51
-42.594
-41.713
-40.87
-40.067
-39.304
-38.584
-37.907
-37.274
-36.684
-36.138
-35.636
-35.177
-34.76
-34.385
-34.052
-33.758
-33.503
-33.287
-33.107
-32.963
-32.852
-32.774
-32.726
-32.707
-32.714
-32.746
-32.799
-32.874
-32.966
-33.076
-33.201
-33.339
-33.489
-33.65
-33.821
-33.999
-34.184
-34.374
-34.568
-34.766
-34.966
-35.167
-35.37
-35.572
-35.774
-35.975
-36.173
-36.369
-36.561
-36.748
-36.93
-37.107
-37.277
-37.44
-37.597
-37.747
-37.89
-38.028
-38.159
-38.284
-38.404
-38.52
-38.632
-38.741
-38.847
-38.953
-39.058
-39.165
-39.274
-39.386
-39.504
-39.627
-39.757
-39.894
-40.039
-40.194
-40.359
-40.534
-40.721
-40.919
-41.131
-41.356
-41.595
-41.848
-42.114
-42.395
-42.688
-42.994
-43.312
-43.641
-43.979
-44.324
-44.675
-45.028
-45.382
-45.734
-46.078
-46.414
-46.735
-47.04
-47.323
-47.581
-47.81
-48.006
-48.165
-48.283
-48.357
-48.381
-48.352
-48.267
-48.121
-47.912
-47.636
-47.29
-46.871
-46.378
-45.808
-45.16
-44.433
-43.624
-42.735
-41.764
-40.714
-39.585
-38.38
-37.101
-35.754
-34.344
-32.875
-31.354
-29.787
-28.182
-26.547
-24.889
-23.218
-21.541
-19.87
-18.215
-16.591
-15.013
-13.494
-12.049
-10.695
-9.446
-8.319
-7.325
-6.477
-5.783
-5.255
-4.903
-4.741
-4.779
-5.028
-5.496
-6.189
-7.112
-8.271
-9.663
-11.28
-13.114
-15.159
-17.416
-19.898
-22.611
-25.556
-28.73
-32.125
-35.726
-39.517
-43.464
-47.515
-51.618
-55.716
-59.761
-63.717
-67.538
-71.17
-74.541
-77.562
-80.157
-82.263
-83.833
-84.84
-85.281
-85.169
-84.554
-83.516
-82.157
-80.611
-79.018
-77.508
-76.221
-75.282
-74.9
-75.387
-76.955
-79.667
-83.388
-87.752
-92.429
-97.147
-101.469
-104.8
-106.665
-106.878
-105.909
-104.72
-104.156
-105.081
-108.205
-113.977
-121.968
-130.224
-135.684
-135.949
-132.293
-127.704
-123.954
-118.441
-98.929
-51.406
31.734
149.921
287.512
423.71
544.087
638.785
709.591
763.376
802.77
830.926
845.043
840.659
816.651
769.043
698.469
606.09
492.334
364.265
227.99
93.086
-29.27
-133.43
-214.408
-273.505
-314.643
-340.282
-354.416
-357.643
-351.376
-338.877
-322.273
-304.947
-288.518
-272.556
-256.979
-240.896
-222.913
-202.516
-179.26
-153.247
-126.381
-100.534
-77.003
-57.26
-42.333
-32.529
-28.026
-28.294
-31.525
-36.061
-40.855
-44.93
-47.541
-49.449
-51.373
-52.548
-53.645
-52.998
-48.166
-42.306
-37.195
-35.585
-41.401
-50.576
-59.502
-65.784
-65.819
-62.114
-57.357
-52.218
-48.31
-44.878
-40.923
-36.793
-32.438
-27.981
-23.68
-19.444
-15.246
-11.236
-7.497
-4.046
-0.891
1.968
4.537
6.809
8.797
10.562
12.16
13.625
14.991
16.275
17.508
18.732
19.995
21.347
22.829
24.468
26.284
28.294
30.511
32.941
35.584
38.427
41.463
44.686
48.091
51.674
55.425
59.332
63.379
67.549
71.824
76.183
80.607
85.071
89.554
94.032
98.483
102.883
107.208
111.435
115.535
119.484
123.256
126.826
130.171
133.265
136.087
138.617
140.835
142.726
144.275
145.468
146.295
146.748
146.821
146.51
145.815
144.735
143.276
141.441
139.24
136.682
133.779
130.545
126.996
123.152
119.031
114.656
110.048
105.233
100.235
95.081
89.795
84.404
78.936
73.415
67.868
62.321
56.8
51.327
45.927
40.622
35.432
30.377
25.474
20.74
16.188
11.831
7.68
3.744
0.029
-3.459
-6.717
-9.741
-12.534
-15.096
-17.43
-19.544
-21.443
-23.136
-24.633
-25.946
-27.085
-28.065
-28.899
-29.6
-30.184
-30.664
-31.057
-31.377
-31.639
-31.858
-32.049
-32.224
-32.397
-32.58
-32.784
-33.019
-33.295
-33.618
-33.996
-34.433
-34.936
-35.506
-36.147
-36.859
-37.641
-38.493
-39.412
-40.394
-41.434
-42.527
-43.666
-44.843
-46.052
-47.283
-48.53
-49.782
-51.032
-52.271
-53.49
-54.68
-55.833
-56.942
-57.998
-58.996
-59.927
-60.789
-61.575
-62.282
-62.909
-63.451
-63.91
-64.285
-64.576
-64.785
-64.914
-64.966
-64.946
-64.857
-64.706
-64.499
-64.242
-63.942
-63.607
-63.244
-62.861
-62.465
-62.065
-61.667
-61.28
-60.909
-60.563
-60.246
-59.966
-59.726
-59.533
-59.389
-59.299
-59.263
-59.284
-59.363
-59.499
-59.691
-59.938
-60.237
-60.586
-60.98
-61.416
-61.886
-62.385
-62.913
-63.465
-64.038
-64.623
-65.211
-65.796
-66.385
-66.963
-67.506
-67.992
-68.399
-68.72
-68.984
-69.189
-69.297
-69.331
-69.36
-69.432
-69.609
-69.893
-70.189
-70.478
-70.858
-71.219
-71.213
-70.786
-70.037
-68.921
-67.841
-66.021
-61.307
-54.316
-46.974
-42.689
-47.647
-61.073
-76.868
-88.817
-88.109
-74.736
-56.924
-40.992
-33.935
-36.54
-42.63
-48.555
-51.659
-51.331
-50.109
-49.04
-48.066
-47.259
-46.228
-44.904
-43.624
-42.477
-41.405
-40.418
-39.527
-38.716
-37.969
-37.251
-36.499
-35.697
-34.867
-34.016
-33.137
-32.228
-31.286
-30.31
-29.308
-28.279
-27.221
-26.133
-25.014
-23.866
-22.691
-21.491
-20.268
-19.022
-17.759
-16.481
-15.193
-13.901
-12.609
-11.326
-10.063
-8.829
-7.635
-6.492
-5.411
-4.402
-3.479
-2.657
-1.949
-1.366
-0.918
-0.619
-0.481
-0.517
-0.736
-1.146
-1.746
-2.54
-3.53
-4.719
-6.11
-7.7
-9.479
-11.441
-13.582
-15.9
-18.395
-21.06
-23.879
-26.835
-29.908
-33.079
-36.326
-39.617
-42.916
-46.176
-49.345
-52.386
-55.264
-57.959
-60.457
-62.713
-64.67
-66.263
-67.428
-68.154
-68.479
-68.413
-67.939
-67.111
-66.052
-65.068
-64.637
-65.034
-66.285
-68.344
-71.152
-74.677
-78.833
-83.043
-86.142
-87.236
-85.983
-82.497
-77.246
-70.502
-62.447
-53.966
-46.95
-43.286
-44.168
-49.908
-59.745
-72.829
-88.685
-106.132
-122.433
-134.44
-138.393
-129.869
-107.671
-72.046
-23.505
32.989
95.877
169.161
254.98
358.893
481.042
606.414
719.38
805.643
856.559
881.656
894.68
899.626
891.527
853.837
767.302
631.547
465.758
298.023
156.585
51.765
-26.401
-95.653
-168.329
-241.97
-304.924
-341.509
-345.564
-327.57
-299.276
-273.983
-259.964
-250.858
-241.488
-227.521
-204.709
-177.72
-150.435
-124.541
-102.689
-83.835
-67.076
-53.487
-43.405
-37.109
-34.411
-33.714
-33.426
-32.868
-31.584
-29.253
-25.753
-21.02
-15.329
-9.589
-4.841
-1.593
0.018
0.091
-1.116
-3.417
-6.61
-10.255
-13.789
-16.832
-19.169
-20.712
-21.519
-21.611
-20.973
-19.658
-17.756
-15.35
-12.531
-9.37
-5.903
-2.182
1.735
5.795
9.912
14.009
18.014
21.849
25.467
28.841
31.943
34.768
37.326
39.627
41.7
43.583
45.304
46.89
48.368
49.757
51.09
52.403
53.729
55.109
56.573
58.142
59.833
61.659
63.624
65.732
67.979
70.353
72.848
75.457
78.173
80.992
83.907
86.906
89.978
93.108
96.281
99.484
102.7
105.914
109.109
112.269
115.378
118.423
121.388
124.255
127.007
129.626
132.095
134.398
136.517
138.438
140.146
141.626
142.868
143.86
144.595
145.064
145.26
145.178
144.814
144.165
143.231
142.012
140.509
138.724
136.663
134.33
131.733
128.881
125.782
122.448
118.891
115.124
111.161
107.017
102.707
98.248
93.657
88.95
84.144
79.258
74.309
69.315
64.292
59.257
54.227
49.217
44.242
39.317
34.456
29.673
24.979
20.386
15.906
11.549
7.325
3.241
-0.693
-4.473
-8.092
-11.546
-14.831
-17.945
-20.887
-23.655
-26.252
-28.677
-30.933
-33.024
-34.954
-36.726
-38.346
-39.82
-41.154
-42.354
-43.426
-44.377
-45.215
-45.946
-46.576
-47.114
-47.566
-47.939
-48.24
-48.475
-48.653
-48.779
-48.86
-48.903
-48.912
-48.893
-48.852
-48.793
-48.721
-48.638
-48.55
-48.457
-48.364
-48.272
-48.183
-48.097
-48.017
-47.942
-47.873
-47.81
-47.752
-47.701
-47.655
-47.614
-47.578
-47.546
-47.518
-47.494
-47.472
-47.453
-47.434
-47.415
-47.396
-47.374
-47.349
-47.32
-47.286
-47.246
-47.2
-47.146
-47.085
-47.017
-46.94
-46.856
-46.764
-46.665
-46.559
-46.447
-46.33
-46.208
-46.082
-45.955
-45.825
-45.695
-45.565
-45.436
-45.309
-45.184
-45.063
-44.946
-44.835
-44.73
-44.633
-44.545
-44.467
-44.402
-44.351
-44.315
-44.295
-44.294
-44.311
-44.35
-44.41
-44.493
-44.6
-44.732
-44.889
-45.072
-45.28
-45.515
-45.775
-46.061
-46.371
-46.701
-47.054
-47.43
-47.832
-48.26
-48.713
-49.186
-49.679
-50.201
-50.746
-51.294
-51.831
-52.339
-52.817
-53.288
-53.753
-54.181
-54.591
-55.039
-55.569
-56.228
-57.018
-57.855
-58.719
-59.687
-60.666
-61.355
-61.699
-61.778
-61.549
-61.342
-60.518
-57.237
-51.975
-46.381
-43.305
-47.991
-59.895
-73.805
-84.45
-84.36
-73.362
-58.454
-45.028
-38.997
-41.153
-46.243
-51.12
-53.546
-52.951
-51.486
-50.073
-48.655
-47.303
-45.691
-43.757
-41.794
-39.888
-37.995
-36.131
-34.314
-32.54
-30.803
-29.084
-27.341
-25.57
-23.805
-22.066
-20.361
-18.705
-17.109
-15.589
-14.166
-12.855
-11.665
-10.605
-9.687
-8.923
-8.326
-7.91
-7.685
-7.663
-7.853
-8.263
-8.901
-9.769
-10.866
-12.189
-13.733
-15.498
-17.494
-19.728
-22.2
-24.912
-27.856
-31.02
-34.387
-37.929
-41.603
-45.361
-49.156
-52.939
-56.677
-60.331
-63.855
-67.195
-70.277
-73.027
-75.387
-77.301
-78.73
-79.664
-80.103
-80.084
-79.689
-78.987
-78.066
-77.037
-75.991
-75.054
-74.368
-74.05
-74.291
-75.337
-77.336
-80.354
-84.263
-88.664
-93.147
-97.328
-100.68
-102.649
-102.806
-100.912
-97.411
-93.373
-89.84
-87.763
-87.838
-90.451
-95.894
-103.949
-112.989
-120.253
-122.637
-116.851
-100.359
-71.233
-27.344
32.586
107.859
196.204
294.001
396.454
499.251
598.066
687.316
761.683
817.059
850.176
859.466
845.003
806.669
745.236
663.567
565.302
454.872
337.693
218.502
101.443
-8.502
-106.99
-190.827
-257.346
-305.854
-337.543
-353.75
-356.29
-348.113
-331.998
-311.205
-289.564
-269.1
-250.447
-234.145
-220.081
-207.788
-197.323
-187.717
-176.867
-164.006
-149.18
-132.264
-114.819
-98.111
-80.925
-63.675
-45.578
-24.839
-4.787
12.493
24.43
27.176
24.015
18.114
12.012
9.487
8.618
7.295
5.084
0.703
-4.722
-9.878
-14.81
-19.245
-23.172
-26.704
-29.551
-31.507
-32.58
-32.803
-32.233
-30.957
-29.059
-26.625
-23.762
-20.578
-17.143
-13.531
-9.81
-6.046
-2.311
1.316
4.753
7.943
10.856
13.492
15.871
18.007
19.934
21.702
23.366
24.983
26.588
28.19
29.808
31.498
33.275
35.125
37.05
39.035
41.095
43.312
45.707
48.206
50.885
53.998
57.579
61.531
65.875
70.301
75.354
82.679
91.857
101.354
108.595
108.813
102.392
94.037
88.476
92.432
106.151
123.268
138.867
147.595
148.619
146.672
144.608
144.417
146.633
149.295
151.529
153.379
154.767
155.976
157.06
157.752
157.969
157.751
157.091
155.978
154.424
152.447
150.076
147.367
144.342
140.993
137.327
133.361
129.111
124.596
119.834
114.839
109.631
104.235
98.674
92.973
87.155
81.243
75.262
69.235
63.187
57.141
51.12
45.146
39.241
33.424
27.715
22.131
16.688
11.4
6.279
1.337
-3.416
-7.973
-12.327
-16.471
-20.402
-24.116
-27.61
-30.884
-33.937
-36.771
-39.388
-41.791
-43.984
-45.973
-47.764
-49.363
-50.78
-52.021
-53.096
-54.014
-54.786
-55.42
-55.929
-56.322
-56.61
-56.803
-56.912
-56.944
-56.91
-56.817
-56.673
-56.484
-56.256
-55.995
-55.705
-55.392
-55.06
-54.713
-54.354
-53.986
-53.612
-53.235
-52.857
-52.48
-52.105
-51.733
-51.366
-51.004
-50.649
-50.301
-49.96
-49.625
-49.297
-48.975
-48.657
-48.343
-48.031
-47.721
-47.412
-47.103
-46.794
-46.485
-46.177
-45.869
-45.563
-45.26
-44.962
-44.668
-44.381
-44.103
-43.834
-43.578
-43.335
-43.106
-42.893
-42.698
-42.521
-42.363
-42.224
-42.102
-41.997
-41.911
-41.849
-41.814
-41.806
-41.824
-41.866
-41.941
-42.051
-42.182
-42.313
-42.422
-42.5
-42.565
-42.634
-42.695
-42.753
-42.858
-43.088
-43.518
-44.182
-45.034
-46.009
-47.134
-48.361
-49.422
-50.105
-50.379
-50.282
-50.086
-49.308
-46.372
-40.611
-33.065
-27.628
-30.043
-42.846
-63.151
-82.513
-91.162
-84.935
-67.21
-47.304
-34.542
-31.834
-36.259
-42.995
-47.736
-51.189
-56.716
-63.416
-70.342
-74.463
-71.596
-65.083
-58.007
-52.684
-52.579
-55.226
-58.166
-60.852
-61.765
-61.741
-61.844
-61.817
-61.801
-61.737
-61.404
-60.945
-60.476
-59.955
-59.379
-58.765
-58.109
-57.4
-56.632
-55.784
-54.832
-53.79
-52.671
-51.473
-50.2
-48.856
-47.444
-45.973
-44.451
-42.883
-41.276
-39.638
-37.981
-36.317
-34.659
-33.019
-31.413
-29.854
-28.357
-26.938
-25.606
-24.374
-23.254
-22.258
-21.402
-20.698
-20.16
-19.801
-19.631
-19.659
-19.894
-20.341
-20.997
-21.859
-22.926
-24.198
-25.686
-27.402
-29.347
-31.521
-33.92
-36.529
-39.329
-42.29
-45.361
-48.492
-51.633
-54.738
-57.774
-60.7
-63.47
-66.03
-68.312
-70.252
-71.797
-72.889
-73.496
-73.643
-73.361
-72.725
-71.837
-70.756
-69.578
-68.463
-67.495
-66.737
-66.283
-66.185
-66.612
-67.888
-70.163
-73.36
-77.419
-82.246
-87.439
-92.487
-96.88
-99.643
-101.107
-103.294
-106.166
-108.859
-109.172
-101.857
-88.125
-74.606
-67.538
-75.129
-96.059
-119.25
-135.12
-133.559
-110.815
-70.931
-16.158
51.504
130.555
220.963
320.003
422.074
520.795
610.972
688.312
750.752
798.969
829.192
836.527
817.257
764.359
679.819
571.632
446.463
318.087
194.758
79.166
-23.324
-114.77
-196.169
-265.61
-324.498
-370.534
-402.045
-419.965
-424.306
-416.916
-400.357
-376.556
-347.718
-315.547
-281.325
-246.396
-212.329
-181.109
-153.987
-131.274
-112.904
-98.38
-87.197
-79.012
-72.836
-67.001
-60.476
-52.892
-44.242
-35.021
-25.646
-16.299
-7.578
-0.47
4.433
6.936
7.123
5.46
2.367
-1.88
-6.858
-12.001
-16.854
-21.085
-24.478
-26.982
-28.579
-29.233
-28.964
-27.843
-25.948
-23.372
-20.213
-16.551
-12.473
-8.072
-3.426
1.382
6.252
11.088
15.797
20.282
24.485
28.376
31.928
35.141
38.033
40.626
42.961
45.088
47.049
48.88
50.616
52.284
53.922
55.568
57.261
59.044
60.946
62.989
65.19
67.558
70.097
72.805
75.676
78.695
81.851
85.136
88.541
92.058
95.679
99.39
103.178
107.028
110.924
114.852
118.794
122.734
126.655
130.54
134.375
138.143
141.829
145.416
148.885
152.219
155.401
158.412
161.238
163.86
166.264
168.435
170.361
172.028
173.427
174.548
175.38
175.918
176.154
176.083
175.702
175.007
173.997
172.672
171.033
169.081
166.821
164.257
161.397
158.247
154.818
151.119
147.162
142.959
138.524
133.87
129.014
123.97
118.755
113.386
107.879
102.253
96.525
90.713
84.836
78.911
72.957
66.991
61.032
55.095
49.199
43.36
37.594
31.918
26.347
20.894
15.576
10.404
5.391
0.549
-4.112
-8.583
-12.855
-16.923
-20.779
-24.419
-27.84
-31.039
-34.015
-36.767
-39.296
-41.603
-43.692
-45.566
-47.229
-48.687
-49.946
-51.012
-51.894
-52.598
-53.133
-53.508
-53.732
-53.816
-53.768
-53.598
-53.319
-52.939
-52.469
-51.92
-51.303
-50.627
-49.902
-49.138
-48.344
-47.528
-46.699
-45.864
-45.031
-44.206
-43.395
-42.604
-41.837
-41.1
-40.397
-39.729
-39.1
-38.512
-37.966
-37.464
-37.006
-36.592
-36.223
-35.897
-35.615
-35.374
-35.174
-35.013
-34.888
-34.798
-34.741
-34.714
-34.715
-34.741
-34.791
-34.861
-34.95
-35.056
-35.176
-35.31
-35.454
-35.607
-35.768
-35.934
-36.105
-36.28
-36.458
-36.637
-36.819
-37.003
-37.188
-37.376
-37.566
-37.759
-37.955
-38.155
-38.36
-38.569
-38.784
-39.005
-39.234
-39.47
-39.715
-39.968
-40.23
-40.501
-40.78
-41.067
-41.362
-41.664
-41.972
-42.286
-42.605
-42.928
-43.255
-43.584
-43.914
-44.244
-44.572
-44.897
-45.216
-45.527
-45.828
-46.116
-46.389
-46.645
-46.882
-47.096
-47.284
-47.445
-47.575
-47.671
-47.731
-47.751
-47.73
-47.666
-47.556
-47.399
-47.194
-46.94
-46.636
-46.282
-45.875
-45.417
-44.905
-44.339
-43.72
-43.046
-42.318
-41.536
-40.703
-39.82
-38.888
-37.909
-36.885
-35.819
-34.714
-33.573
-32.4
-31.2
-29.978
-28.74
-27.493
-26.245
-25.007
-23.787
-22.593
-21.434
-20.321
-19.267
-18.286
-17.387
-16.58
-15.875
-15.281
-14.809
-14.47
-14.272
-14.217
-14.309
-14.555
-14.961
-15.539
-16.29
-17.205
-18.276
-19.491
-20.843
-22.34
-23.983
-25.764
-27.678
-29.716
-31.873
-34.154
-36.543
-39.01
-41.514
-43.997
-46.423
-48.779
-51.062
-53.287
-55.434
-57.439
-59.238
-60.76
-61.96
-62.852
-63.404
-63.535
-63.272
-62.716
-62.116
-61.923
-62.373
-63.438
-65.081
-67.188
-69.621
-72.388
-75.071
-76.773
-77.004
-75.58
-72.606
-68.689
-64.193
-59.078
-53.928
-49.871
-47.79
-48.667
-52.858
-59.828
-69.414
-81.624
-95.819
-110.935
-125.393
-136.709
-142.769
-141.902
-131.967
-111.097
-77.708
-30.453
30.702
104.282
188.164
279.242
373.444
466.557
553.544
628.89
687.964
726.977
743.153
735.456
703.977
649.74
575.545
485.427
383.84
275.917
166.761
60.667
-38.338
-127.021
-203.481
-266.525
-315.606
-351.217
-374.481
-386.671
-389.378
-383.772
-370.625
-351.185
-326.82
-298.595
-267.606
-235.021
-201.893
-170.123
-140.952
-113.707
-89.156
-68.809
-54.956
-52.077
-59.077
-69.656
-77.436
-74.573
-60.319
-41.331
-23.024
-11.221
-7.353
-7.377
-9.029
-10.552
-11.356
-13.164
-16.442
-20.764
-25.744
-30.448
-34.303
-37.277
-39.285
-40.303
-40.411
-39.643
-38.054
-35.746
-32.791
-29.255
-25.232
-20.812
-16.086
-11.162
-6.152
-1.192
3.579
8.063
12.202
15.962
19.339
22.328
24.928
27.169
29.087
30.725
32.127
33.328
34.362
35.273
36.111
36.936
37.807
38.77
39.855
41.085
42.477
44.046
45.804
47.749
49.876
52.18
54.659
57.313
60.142
63.144
66.307
69.621
73.075
76.656
80.352
84.148
88.03
91.981
95.984
100.023
104.084
108.145
112.188
116.189
120.125
123.973
127.71
131.312
134.754
138.015
141.072
143.904
146.493
148.821
150.869
152.623
154.067
155.19
155.981
156.428
156.526
156.267
155.649
154.668
153.326
151.623
149.564
147.155
144.403
141.318
137.911
134.196
130.186
125.898
121.349
116.558
111.544
106.329
100.934
95.381
89.694
83.894
78.006
72.051
66.052
60.033
54.013
48.015
42.059
36.164
30.35
24.635
19.035
13.567
8.245
3.082
-1.909
-6.718
-11.334
-15.751
-19.961
-23.959
-27.742
-31.305
-34.649
-37.773
-40.677
-43.365
-45.84
-48.106
-50.169
-52.034
-53.71
-55.203
-56.523
-57.677
-58.675
-59.526
-60.239
-60.825
-61.292
-61.65
-61.909
-62.078
-62.165
-62.18
-62.13
-62.024
-61.869
-61.672
-61.439
-61.176
-60.889
-60.582
-60.26
-59.927
-59.585
-59.239
-58.891
-58.542
-58.196
-57.851
-57.511
-57.175
-56.845
-56.519
-56.198
-55.882
-55.571
-55.263
-54.959
-54.659
-54.36
-54.064
-53.77
-53.477
-53.184
-52.892
-52.601
-52.309
-52.018
-51.728
-51.439
-51.152
-50.868
-50.587
-50.31
-50.04
-49.776
-49.52
-49.27
-49.027
-48.795
-48.578
-48.382
-48.207
-48.051
-47.915
-47.806
-47.728
-47.668
-47.603
-47.512
-47.387
-47.247
-47.109
-46.961
-46.806
-46.695
-46.709
-46.927
-47.381
-48.021
-48.792
-49.728
-50.789
-51.715
-52.282
-52.444
-52.251
-51.987
-51.148
-48.117
-42.182
-34.371
-28.606
-30.719
-43.301
-63.376
-82.575
-91.222
-84.942
-67.168
-47.32
-34.448
-32.431
-39.167
-48.561
-55.922
-59.698
-60.602
-60.701
-61.007
-61.408
-61.726
-61.751
-61.561
-61.416
-61.379
-61.414
-61.525
-61.715
-61.964
-62.235
-62.471
-62.626
-62.697
-62.7
-62.641
-62.514
-62.315
-62.04
-61.693
-61.277
-60.79
-60.225
-59.58
-58.854
-58.045
-57.155
-56.184
-55.134
-54.006
-52.803
-51.529
-50.189
-48.787
-47.329
-45.823
-44.276
-42.695
-41.089
-39.468
-37.844
-36.228
-34.634
-33.075
-31.564
-30.117
-28.747
-27.468
-26.291
-25.229
-24.293
-23.493
-22.842
-22.353
-22.038
-21.906
-21.969
-22.233
-22.707
-23.393
-24.291
-25.396
-26.704
-28.214
-29.932
-31.864
-34.012
-36.374
-38.946
-41.715
-44.665
-47.771
-50.99
-54.277
-57.587
-60.872
-64.098
-67.227
-70.214
-73.01
-75.547
-77.757
-79.58
-80.962
-81.867
-82.287
-82.226
-81.721
-80.844
-79.661
-78.267
-76.772
-75.259
-73.829
-72.604
-71.694
-71.307
-71.699
-73.008
-75.292
-78.49
-82.327
-86.472
-90.578
-94.076
-96.337
-97.024
-95.956
-93.279
-89.779
-86.518
-84.528
-84.911
-87.563
-90.671
-92.815
-93.465
-94.658
-100.23
-110.128
-118.238
-111.93
-77.426
-8.588
89.69
203.061
316.1
419.072
509.793
591.147
663.835
725.137
770.543
794.777
795.905
774.54
731.115
667.191
585.479
489.231
383.034
272.083
160.432
52.169
-47.766
-135.153
-206.782
-260.923
-297.919
-319.155
-326.371
-322.349
-310.593
-294.831
-277.806
-260.105
-242.869
-227.527
-216.109
-212.234
-214.053
-215.722
-211.276
-193.249
-162.259
-125.89
-90.714
-64.616
-48.705
-37.484
-29.175
-21.822
-16.614
-18.818
-26.361
-34.89
-40.38
-36.048
-23.161
-8.451
3.808
7.239
0.271
-11.053
-23.16
-32.148
-34.893
-34.563
-33.186
-31.411
-30.781
-30.162
-28.532
-26.276
-23.307
-19.846
-16.283
-12.55
-8.567
-4.411
-0.113
4.287
8.674
12.936
16.985
20.747
24.182
27.29
30.08
32.555
34.737
36.664
38.383
39.938
41.362
42.679
43.905
45.074
46.227
47.408
48.663
50.023
51.508
53.136
54.922
56.874
58.998
61.289
63.735
66.326
69.058
71.924
74.923
78.048
81.284
84.611
88.025
91.517
95.077
98.698
102.353
106.003
109.644
113.274
116.839
120.294
123.599
126.701
129.606
132.35
134.884
137.135
139.228
141.313
143.277
145.114
146.844
148.095
149.831
152.988
156.207
159.073
159.096
153.301
144.977
136.317
130.588
132.28
137.429
142.676
145.724
142.772
136.556
129.846
123.27
118.524
114.647
110.398
106.033
101.409
96.626
91.956
87.25
82.391
77.441
72.427
67.35
62.23
57.092
51.959
46.87
41.869
36.96
32.145
27.443
22.866
18.427
14.139
10.011
6.049
2.263
-1.337
-4.744
-7.953
-10.96
-13.763
-16.358
-18.747
-20.929
-22.907
-24.682
-26.259
-27.641
-28.833
-29.842
-30.672
-31.333
-31.83
-32.172
-32.367
-32.425
-32.355
-32.167
-31.871
-31.476
-30.994
-30.434
-29.807
-29.123
-28.394
-27.628
-26.835
-26.026
-25.209
-24.393
-23.586
-22.795
-22.028
-21.289
-20.585
-19.92
-19.299
-18.724
-18.199
-17.726
-17.307
-16.942
-16.632
-16.377
-16.176
-16.029
-15.933
-15.886
-15.886
-15.929
-16.012
-16.132
-16.283
-16.462
-16.665
-16.886
-17.121
-17.365
-17.614
-17.864
-18.11
-18.348
-18.575
-18.788
-18.983
-19.158
-19.311
-19.439
-19.543
-19.621
-19.673
-19.699
-19.699
-19.674
-19.627
-19.557
-19.467
-19.36
-19.237
-19.103
-18.959
-18.81
-18.66
-18.513
-18.373
-18.244
-18.131
-18.038
-17.97
-17.931
-17.925
-17.956
-18.027
-18.143
-18.305
-18.517
-18.782
-19.101
-19.476
-19.907
-20.395
-20.939
-21.539
-22.193
-22.9
-23.659
-24.466
-25.321
-26.219
-27.158
-28.135
-29.146
-30.188
-31.255
-32.345
-33.451
-34.57
-35.696
-36.826
-37.955
-39.077
-40.188
-41.284
-42.359
-43.409
-44.43
-45.416
-46.363
-47.266
-48.124
-48.931
-49.685
-50.385
-51.028
-51.613
-52.138
-52.603
-53.007
-53.349
-53.627
-53.842
-53.992
-54.079
-54.101
-54.059
-53.954
-53.785
-53.554
-53.259
-52.902
-52.483
-52.001
-51.457
-50.851
-50.186
-49.462
-48.683
-47.85
-46.968
-46.038
-45.063
-44.047
-42.993
-41.904
-40.783
-39.634
-38.462
-37.271
-36.068
-34.859
-33.651
-32.454
-31.276
-30.125
-29.013
-27.951
-26.954
-26.036
-25.21
-24.487
-23.879
-23.399
-23.058
-22.87
-22.842
-22.98
-23.292
-23.786
-24.471
-25.358
-26.444
-27.72
-29.174
-30.793
-32.574
-34.524
-36.644
-38.929
-41.377
-43.981
-46.739
-49.651
-52.697
-55.832
-59.001
-62.151
-65.25
-68.294
-71.294
-74.243
-77.098
-79.784
-82.22
-84.328
-86.082
-87.444
-88.322
-88.723
-88.744
-88.579
-88.619
-89.22
-90.454
-92.358
-94.942
-97.891
-100.974
-103.963
-106.077
-106.673
-105.578
-102.542
-97.727
-91.991
-85.781
-79.434
-74.082
-70.608
-69.677
-72.425
-79.066
-88.834
-101.423
-116.331
-132.268
-148.014
-161.701
-170.359
-171.766
-164.272
-145.876
-115.053
-70.723
-12.196
59.946
143.764
236.69
335.613
435.856
531.401
617.52
690.501
749.058
795.248
826.807
838.522
823.943
774.06
688.617
574.9
444.145
313.199
193.438
90.432
5.249
-67.384
-131.215
-188.294
-238.102
-276.829
-302.99
-316.608
-319.451
-315.462
-307.1
-295.595
-282.044
-266.749
-249.952
-232.337
-214.498
-196.654
-179.194
-162.823
-147.886
-134.609
-123.306
-113.741
-105.226
-97.429
-89.962
-82.183
-73.955
-65.288
-56.137
-46.965
-38.502
-31.136
-25.184
-20.953
-18.375
-17.305
-17.598
-18.836
-20.557
-22.49
-24.414
-26.156
-27.658
-28.851
-29.666
-30.118
-30.215
-29.915
-29.192
-28.028
-26.425
-24.436
-22.121
-19.535
-16.72
-13.712
-10.546
-7.265
-3.911
-0.513
2.902
6.303
9.639
12.84
15.858
18.669
21.273
23.689
25.932
28.021
29.979
31.837
33.626
35.372
37.096
38.808
40.529
42.282
44.1
46.022
48.077
50.281
52.645
55.173
57.865
60.721
63.732
66.878
70.146
73.522
76.997
80.561
84.202
87.903
91.646
95.412
99.181
102.934
106.652
110.315
113.902
117.395
120.777
124.032
127.143
130.094
132.865
135.44
137.803
139.94
141.834
143.473
144.845
145.941
146.751
147.271
147.495
147.42
147.044
146.368
145.393
144.121
142.556
140.703
138.568
136.16
133.485
130.556
127.381
123.975
120.348
116.516
112.493
108.295
103.938
99.438
94.812
90.077
85.252
80.353
75.397
70.403
65.387
60.367
55.357
50.374
45.433
40.546
35.728
30.991
26.347
21.806
17.379
13.075
8.903
4.871
0.986
-2.745
-6.317
-9.725
-12.965
-16.034
-18.93
-21.652
-24.199
-26.572
-28.772
-30.802
-32.663
-34.36
-35.897
-37.279
-38.51
-39.596
-40.544
-41.36
-42.05
-42.621
-43.08
-43.434
-43.69
-43.855
-43.936
-43.941
-43.875
-43.748
-43.565
-43.335
-43.063
-42.759
-42.427
-42.076
-41.711
-41.339
-40.966
-40.596
-40.235
-39.889
-39.56
-39.253
-38.973
-38.72
-38.5
-38.313
-38.162
-38.048
-37.972
-37.936
-37.939
-37.982
-38.065
-38.188
-38.349
-38.548
-38.783
-39.053
-39.355
-39.689
-40.049
-40.435
-40.842
-41.268
-41.708
-42.159
-42.617
-43.079
-43.541
-43.999
-44.45
-44.89
-45.316
-45.725
-46.114
-46.48
-46.82
-47.132
-47.414
-47.663
-47.879
-48.059
-48.203
-48.309
-48.377
-48.407
-48.398
-48.35
-48.265
-48.143
-47.986
-47.797
-47.577
-47.329
-47.058
-46.765
-46.456
-46.134
-45.803
-45.467
-45.13
-44.797
-44.472
-44.159
-43.862
-43.585
-43.33
-43.103
-42.905
-42.741
-42.612
-42.522
-42.472
-42.465
-42.503
-42.587
-42.719
-42.9
-43.13
-43.41
-43.738
-44.114
-44.537
-45.004
-45.512
-46.059
-46.639
-47.249
-47.884
-48.539
-49.206
-49.881
-50.557
-51.228
-51.888
-52.529
-53.146
-53.732
-54.281
-54.787
-55.244
-55.646
-55.987
-56.262
-56.464
-56.588
-56.629
-56.583
-56.444
-56.207
-55.87
-55.428
-54.878
-54.219
-53.447
-52.563
-51.565
-50.456
-49.236
-47.909
-46.479
-44.949
-43.326
-41.615
-39.826
-37.963
-36.037
-34.055
-32.028
-29.964
-27.873
-25.768
-23.659
-21.562
-19.49
-17.46
-15.486
-13.586
-11.775
-10.072
-8.491
-7.044
-5.746
-4.608
-3.645
-2.87
-2.298
-1.938
-1.801
-1.895
-2.226
-2.799
-3.613
-4.662
-5.94
-7.442
-9.167
-11.126
-13.325
-15.763
-18.438
-21.344
-24.465
-27.786
-31.281
-34.904
-38.612
-42.356
-46.092
-49.787
-53.398
-56.872
-60.148
-63.142
-65.778
-67.994
-69.735
-70.968
-71.679
-71.87
-71.572
-70.842
-69.761
-68.432
-66.971
-65.505
-64.19
-63.153
-62.578
-62.737
-63.794
-65.832
-68.787
-72.287
-75.925
-79.428
-82.37
-84.234
-84.767
-83.814
-81.681
-79.507
-78.384
-79
-82.002
-87.901
-96.613
-107.717
-120.189
-130.232
-133.778
-129.083
-113.425
-87.65
-54.514
-9.448
50.478
128.868
232.163
352.187
476.332
592.241
681.931
742.576
781.217
803.242
818.964
827.302
816.455
778.669
706.457
602.598
480.894
353.115
230.577
118.871
16.916
-74.551
-154.758
-222.083
-273.322
-308.374
-328.822
-336.317
-333.42
-322.176
-304.279
-282.131
-257.796
-232.18
-205.983
-179.868
-154.632
-131.764
-112.201
-95.843
-82.5
-72.229
-64.981
-60.65
-58.509
-56.9
-54.756
-51.824
-48.032
-43.511
-38.396
-32.687
-26.862
-21.975
-18.67
-17.131
-17.314
-18.837
-21.367
-24.737
-28.584
-32.356
-35.629
-38.099
-39.616
-40.249
-40.059
-39.07
-37.346
-34.966
-32.019
-28.621
-24.868
-20.833
-16.587
-12.194
-7.72
-3.254
1.106
5.261
9.142
12.718
15.977
18.913
21.524
23.811
25.796
27.52
29.026
30.352
31.531
32.588
33.556
34.477
35.398
36.367
37.42
38.58
39.865
41.292
42.877
44.637
46.585
48.722
51.044
53.545
56.216
59.041
62.004
65.082
68.244
71.468
74.737
78.045
81.401
84.813
88.279
91.787
95.312
98.83
102.336
105.824
109.292
112.755
116.22
119.701
123.236
126.84
130.501
134.186
137.825
141.33
144.642
147.715
150.515
153.022
155.193
156.987
158.372
159.301
159.727
159.595
158.816
157.327
155.114
152.191
148.624
144.507
139.908
134.884
129.49
123.765
117.762
111.533
105.11
98.534
91.861
85.155
78.515
72.027
65.734
59.659
53.793
48.097
42.555
37.158
31.891
26.753
21.744
16.867
12.143
7.596
3.234
-0.945
-4.96
-8.829
-12.555
-16.128
-19.531
-22.736
-25.725
-28.483
-30.99
-33.237
-35.221
-36.942
-38.414
-39.657
-40.685
-41.507
-42.133
-42.57
-42.828
-42.924
-42.871
-42.687
-42.389
-41.994
-41.522
-40.992
-40.419
-39.818
-39.2
-38.575
-37.953
-37.343
-36.756
-36.199
-35.681
-35.209
-34.791
-34.435
-34.145
-33.925
-33.779
-33.707
-33.711
-33.789
-33.939
-34.159
-34.446
-34.794
-35.2
-35.658
-36.162
-36.706
-37.284
-37.889
-38.514
-39.153
-39.799
-40.444
-41.083
-41.708
-42.314
-42.894
-43.443
-43.957
-44.431
-44.862
-45.245
-45.579
-45.861
-46.089
-46.26
-46.376
-46.436
-46.44
-46.39
-46.287
-46.135
-45.936
-45.694
-45.413
-45.098
-44.752
-44.381
-43.99
-43.584
-43.167
-42.744
-42.321
-41.902
-41.492
-41.095
-40.714
-40.355
-40.023
-39.723
-39.458
-39.229
-39.037
-38.888
-38.787
-38.727
-38.7
-38.702
-38.723
-38.771
-38.862
-38.98
-39.11
-39.283
-39.521
-39.839
-40.265
-40.771
-41.304
-41.889
-42.572
-43.22
-43.677
-44.033
-44.276
-44.374
-44.656
-44.228
-42.223
-39.877
-37.563
-37.554
-42.571
-49.603
-56.639
-60.693
-57.657
-51.166
-44.301
-39.174
-39.274
-42.111
-45.161
-47.866
-48.687
-48.524
-48.53
-48.489
-48.551
-48.643
-48.536
-48.385
-48.314
-48.286
-48.293
-48.351
-48.458
-48.605
-48.789
-48.986
-49.17
-49.349
-49.533
-49.716
-49.894
-50.064
-50.22
-50.36
-50.484
-50.583
-50.652
-50.685
-50.675
-50.617
-50.505
-50.333
-50.094
-49.783
-49.394
-48.921
-48.361
-47.708
-46.96
-46.114
-45.169
-44.123
-42.978
-41.735
-40.396
-38.964
-37.444
-35.842
-34.164
-32.416
-30.609
-28.753
-26.86
-24.946
-23.025
-21.114
-19.231
-17.395
-15.624
-13.937
-12.35
-10.881
-9.544
-8.357
-7.338
-6.506
-5.879
-5.472
-5.3
-5.376
-5.712
-6.314
-7.183
-8.318
-9.716
-11.379
-13.316
-15.536
-18.044
-20.839
-23.918
-27.267
-30.868
-34.69
-38.689
-42.817
-47.026
-51.268
-55.503
-59.689
-63.778
-67.713
-71.422
-74.828
-77.858
-80.453
-82.586
-84.251
-85.456
-86.238
-86.646
-86.718
-86.553
-86.217
-85.721
-85.158
-84.632
-84.242
-84.25
-84.96
-86.46
-88.909
-92.493
-96.788
-101.147
-105.213
-108.145
-109.942
-112.14
-114.332
-115.353
-113.416
-104.534
-89.45
-73.77
-64.948
-71.37
-94.667
-127.822
-158.563
-174.684
-168.794
-139.673
-92.217
-30.544
42.807
125.189
216.928
316.055
418.182
519.764
615.044
698.307
765.557
813.148
838.647
841.35
821.274
778.32
713.65
629.706
529.363
417.768
300.883
182.361
66.438
-43.984
-147.176
-236.844
-308.531
-358.887
-385.079
-392.128
-384.952
-368.194
-347.893
-324.719
-299.342
-272.871
-244.57
-215.976
-188.846
-163.891
-142.156
-123.561
-107.333
-93.669
-82.989
-75.338
-70.502
-67.399
-64.596
-61.501
-58.08
-54.236
-49.886
-44.975
-39.55
-34.301
-30.262
-27.931
-27.374
-28.383
-30.575
-33.695
-37.543
-41.7
-45.581
-48.693
-50.725
-51.733
-51.974
-51.42
-50.085
-48.046
-45.084
-42.189
-40.338
-38.435
-36.185
-31.435
-21.619
-9.774
2.014
10.704
12.216
10.045
7.177
5.659
8.883
14.419
19.83
24.613
27.313
28.842
30.353
31.658
32.936
34.158
35.153
36.124
37.23
38.458
39.82
41.346
43.048
44.93
46.986
49.189
51.51
53.957
56.541
59.26
62.114
65.094
68.192
71.394
74.693
78.074
81.523
85.031
88.583
92.153
95.732
99.327
102.934
106.555
110.17
113.731
117.214
120.63
123.937
127.048
129.893
132.395
134.533
136.378
137.937
139.104
139.965
140.839
141.779
142.68
143.577
144.098
144.929
148.117
153.16
158.194
160.062
152.909
137.251
118.934
103.835
100.292
108.63
121.024
131.444
133.312
125.663
114.38
103.027
94.107
88.315
83.269
77.938
72.412
66.632
60.983
55.562
50.067
44.424
38.706
32.924
27.081
21.209
15.342
9.526
3.835
-1.697
-7.079
-12.305
-17.355
-22.218
-26.876
-31.319
-35.544
-39.542
-43.301
-46.81
-50.064
-53.055
-55.782
-58.241
-60.432
-62.355
-64.011
-65.404
-66.537
-67.417
-68.049
-68.443
-68.607
-68.55
-68.285
-67.823
-67.178
-66.362
-65.39
-64.277
-63.037
-61.687
-60.24
-58.714
-57.123
-55.484
-53.813
-52.124
-50.435
-48.76
-47.114
-45.513
-43.969
-42.495
-41.105
-39.809
-38.617
-37.538
-36.581
-35.751
-35.054
-34.495
-34.077
-33.8
-33.666
-33.674
-33.821
-34.105
-34.521
-35.064
-35.729
-36.51
-37.398
-38.387
-39.468
-40.632
-41.87
-43.173
-44.53
-45.93
-47.363
-48.818
-50.283
-51.747
-53.199
-54.629
-56.026
-57.381
-58.683
-59.923
-61.095
-62.189
-63.2
-64.121
-64.948
-65.677
-66.305
-66.831
-67.253
-67.572
-67.787
-67.901
-67.915
-67.831
-67.653
-67.383
-67.027
-66.587
-66.07
-65.48
-64.823
-64.106
-63.336
-62.519
-61.662
-60.773
-59.859
-58.928
-57.988
-57.046
-56.109
-55.184
-54.28
-53.402
-52.557
-51.75
-50.988
-50.273
-49.611
-49.004
-48.455
-47.967
-47.54
-47.178
-46.88
-46.647
-46.481
-46.38
-46.346
-46.376
-46.47
-46.627
-46.845
-47.12
-47.45
-47.833
-48.264
-48.74
-49.256
-49.809
-50.393
-51.004
-51.636
-52.283
-52.939
-53.599
-54.257
-54.907
-55.544
-56.162
-56.757
-57.324
-57.858
-58.354
-58.81
-59.219
-59.577
-59.88
-60.123
-60.301
-60.41
-60.447
-60.407
-60.289
-60.088
-59.803
-59.431
-58.971
-58.421
-57.78
-57.048
-56.224
-55.309
-54.305
-53.213
-52.036
-50.777
-49.439
-48.027
-46.545
-44.997
-43.388
-41.723
-40.008
-38.248
-36.451
-34.623
-32.773
-30.91
-29.048
-27.198
-25.374
-23.589
-21.857
-20.194
-18.612
-17.126
-15.745
-14.48
-13.34
-12.336
-11.481
-10.786
-10.261
-9.917
-9.76
-9.799
-10.039
-10.482
-11.124
-11.96
-12.987
-14.205
-15.627
-17.262
-19.115
-21.186
-23.473
-25.96
-28.631
-31.454
-34.379
-37.355
-40.33
-43.255
-46.098
-48.822
-51.382
-53.727
-55.788
-57.497
-58.805
-59.66
-60.03
-59.924
-59.368
-58.43
-57.223
-55.838
-54.382
-52.996
-51.795
-50.913
-50.482
-50.584
-51.382
-53.133
-55.981
-59.95
-64.88
-70.34
-75.917
-81.295
-85.962
-89.268
-90.753
-90.26
-88.215
-85.546
-83.196
-81.942
-82.508
-85.8
-91.484
-97.319
-100.56
-98.263
-90.7
-82.135
-74.214
-64.304
-42.971
4.583
85.767
198.303
330.107
461.663
579.48
677.122
753.137
810.721
850.008
868.237
863.238
832.966
777.459
699.579
603.253
492.914
374.01
252.233
132.429
19.279
-82.928
-171.331
-243.782
-298.818
-337.038
-360.339
-370.563
-370.143
-361.446
-345.969
-325.728
-303.011
-278.768
-253.244
-226.884
-199.831
-172.825
-147.57
-124.81
-104.464
-86.958
-72.697
-61.758
-54.259
-49.398
-45.367
-41.179
-36.582
-31.292
-25.356
-18.897
-11.875
-4.866
0.985
5.082
7.264
7.562
6.356
3.933
0.421
-3.781
-8.09
-12.113
-15.581
-18.369
-20.515
-21.976
-22.676
-22.62
-21.867
-20.514
-18.641
-16.301
-13.568
-10.519
-7.23
-3.801
-0.284
3.314
6.912
10.411
13.881
17.388
20.789
24.065
27.231
29.991
33.197
37.676
42.299
46.754
48.949
46.375
41.876
37.343
35.589
40.479
48.646
57.254
64.359
66.722
66.68
66.597
66.997
69.317
72.71
76.084
79.626
83.184
86.816
90.728
94.764
98.792
102.83
106.864
110.86
114.803
118.68
122.473
126.184
129.818
133.348
136.748
140.006
143.105
146.027
148.758
151.281
153.576
155.631
157.435
158.974
160.238
161.219
161.909
162.302
162.393
162.18
161.661
160.836
159.708
158.278
156.553
154.536
152.236
149.661
146.821
143.727
140.391
136.826
133.046
129.067
124.904
120.571
116.087
111.466
106.727
101.887
96.961
91.969
86.928
81.854
76.767
71.684
66.621
61.595
56.622
51.718
46.898
42.176
37.565
33.079
28.729
24.526
20.481
16.603
12.9
9.378
6.044
2.902
-0.044
-2.791
-5.337
-7.683
-9.827
-11.771
-13.517
-15.067
-16.425
-17.594
-18.58
-19.389
-20.028
-20.502
-20.821
-20.993
-21.027
-20.932
-20.717
-20.393
-19.97
-19.457
-18.867
-18.208
-17.49
-16.725
-15.922
-15.089
-14.237
-13.373
-12.506
-11.642
-10.789
-9.952
-9.137
-8.349
-7.594
-6.873
-6.192
-5.553
-4.958
-4.408
-3.905
-3.449
-3.038
-2.674
-2.353
-2.073
-1.834
-1.631
-1.462
-1.322
-1.209
-1.117
-1.044
-0.984
-0.933
-0.886
-0.841
-0.791
-0.735
-0.668
-0.587
-0.489
-0.372
-0.233
-0.07
0.117
0.332
0.574
0.844
1.143
1.47
1.825
2.205
2.611
3.04
3.491
3.959
4.445
4.943
5.451
5.967
6.485
7.004
7.518
8.025
8.521
9.002
9.465
9.906
10.325
10.716
11.079
11.41
11.709
11.972
12.199
12.389
12.54
12.651
12.723
12.755
12.748
12.703
12.62
12.502
12.349
12.165
11.95
11.709
11.442
11.154
10.848
10.526
10.192
9.851
9.505
9.157
8.812
8.472
8.141
7.822
7.516
7.227
6.958
6.711
6.488
6.293
6.128
5.995
5.898
5.838
5.818
5.839
5.903
6.011
6.163
6.363
6.608
6.902
7.243
7.632
8.069
8.556
9.09
9.672
10.3
10.975
11.695
12.459
13.267
14.117
15.011
15.946
16.922
17.94
18.996
20.091
21.222
22.386
23.581
24.802
26.047
27.31
28.589
29.879
31.176
32.475
33.771
35.059
36.333
37.587
38.814
40.004
41.148
42.236
43.259
44.21
45.076
45.847
46.51
47.055
47.474
47.76
47.906
47.9
47.734
47.398
46.892
46.213
45.362
44.336
43.13
41.746
40.194
38.489
36.645
34.671
32.559
30.308
27.922
25.412
22.794
20.081
17.284
14.423
11.539
8.68
5.908
3.279
0.823
-1.439
-3.495
-5.325
-6.864
-8.033
-8.756
-8.984
-8.707
-7.955
-6.722
-4.971
-2.761
-0.291
2.076
3.959
5.162
5.736
5.806
5.248
3.883
1.817
-0.421
-1.966
-2.113
-0.809
1.558
4.978
9.685
15.611
22.111
27.618
30.357
29.475
24.971
16.912
5.328
-9.47
-26.339
-42.536
-54.431
-58.731
-52.77
-34.546
-2.22
45.946
110.419
189.651
280.795
379.993
482.687
584.893
681.088
763.606
827.716
870.671
891.803
896.125
884.371
851.415
793.454
702.366
575.247
422.929
258.134
99.455
-32.87
-132.601
-199.298
-239.181
-266.229
-287.203
-304.209
-316.62
-319.432
-311.691
-295.935
-275.246
-253.315
-231.603
-209.829
-188.098
-166.544
-145.5
-125.443
-106.225
-87.936
-71.004
-55.758
-42.199
-29.79
-17.936
-6.234
5.328
16.628
27.592
38.109
47.889
56.295
62.806
67.11
69.153
69.17
67.447
64.273
60.03
55.218
50.258
45.493
41.189
37.457
34.404
32.143
30.715
30.116
30.327
31.293
32.953
35.255
38.115
41.436
45.132
49.114
53.302
57.623
61.992
66.327
70.551
74.58
78.353
81.838
85.017
87.898
90.503
92.857
95
96.979
98.833
100.605
102.328
104.029
105.741
107.499
109.342
111.314
113.449
115.768
118.287
121.011
123.941
127.074
130.4
133.9
137.557
141.356
145.281
149.32
153.457
157.671
161.939
166.237
170.541
174.827
179.07
183.245
187.329
191.296
195.124
198.794
202.283
205.569
208.63
211.443
213.988
216.244
218.194
219.817
221.098
222.021
222.574
222.747
222.529
221.915
220.899
219.479
217.653
215.426
212.799
209.779
206.375
202.596
198.454
193.964
189.141
184.003
178.568
172.858
166.892
160.693
154.285
147.688
140.928
134.028
127.011
119.9
112.721
105.495
98.246
90.998
83.773
76.592
69.476
62.446
55.521
48.717
42.053
35.544
29.202
23.042
17.074
11.308
5.752
0.412
-4.707
-9.601
-14.268
-18.709
-22.924
-26.915
-30.686
-34.241
-37.585
-40.723
-43.662
-46.408
-48.97
-51.355
-53.571
-55.627
-57.533
-59.297
-60.929
-62.439
-63.837
-65.132
-66.333
-67.451
-68.495
-69.473
-70.394
-71.267
-72.098
-72.896
-73.667
-74.416
-75.149
-75.871
-76.586
-77.296
-78.005
-78.715
-79.428
-80.146
-80.869
-81.601
-82.34
-83.089
-83.848
-84.617
-85.398
-86.189
-86.993
-87.809
-88.637
-89.477
-90.331
-91.197
-92.077
-92.97
-93.877
-94.798
-95.733
-96.683
-97.648
-98.628
-99.626
-100.641
-101.676
-102.731
-103.809
-104.911
-106.038
-107.193
-108.377
-109.591
-110.838
-112.118
-113.433
-114.784
-116.171
-117.597
-119.06
-120.562
-122.104
-123.684
-125.303
-126.96
-128.655
-130.387
-132.154
-133.957
-135.794
-137.664
-139.565
-141.496
-143.456
-145.442
-147.452
-149.483
-151.534
-153.601
-155.682
-157.774
-159.874
-161.979
-164.087
-166.195
-168.302
-170.403
-172.497
-174.58
-176.652
-178.708
-180.748
-182.768
-184.766
-186.742
-188.693
-190.619
-192.516
-194.385
-196.222
-198.026
-199.797
-201.531
-203.227
-204.884
-206.501
-208.076
-209.609
-211.1
-212.547
-213.95
-215.308
-216.621
-217.887
-219.105
-220.273
-221.391
-222.457
-223.47
-224.429
-225.334
-226.183
-226.976
-227.711
-228.387
-229.004
-229.559
-230.053
-230.483
-230.849
-231.152
-231.393
-231.571
-231.688
-231.746
-231.747
-231.693
-231.587
-231.43
-231.225
-230.977
-230.69
-230.368
-230.018
-229.645
-229.257
-228.866
-228.48
-228.112
-227.772
-227.474
-227.23
-227.052
-226.954
-226.946
-227.039
-227.245
-227.575
-228.042
-228.658
-229.437
-230.39
-231.529
-232.864
-234.403
-236.151
-238.109
-240.276
-242.65
-245.234
-248.037
-251.066
-254.323
-257.811
-261.524
-265.453
-269.578
-273.868
-278.274
-282.748
-287.24
-291.706
-296.112
-300.419
-304.586
-308.567
-312.301
-315.731
-318.808
-321.49
-323.74
-325.55
-326.943
-327.978
-328.76
-329.392
-329.962
-330.56
-331.272
-332.195
-333.439
-335.128
-337.383
-340.355
-344.236
-349.136
-355.059
-361.849
-369.109
-376.337
-383.01
-388.529
-392.282
-393.841
-393.01
-390.147
-386.215
-382.316
-379.69
-378.596
-378.211
-378.135
-377.506
-377.438
-381.434
-389.119
-397.484
-398.404
-377.661
-327.675
-247.927
-145.248
-35.008
71.77
169.588
256.202
333.181
398.987
449.449
480.656
488.78
472.767
433.567
372.506
292.372
196.701
89.222
-25.379
-142.4
-257.974
-368.23
-469.394
-558.501
-633.106
-691.574
-733.845
-760.649
-772.7
-771.157
-757.784
-734.805
-705.062
-671.358
-635.567
-599.152
-563.815
-531.442
-503.624
-481.074
-463.475
-450.055
-440.34
-433.899
-429.916
-426.946
-423.303
-418.039
-411.048
-402.667
-393.263
-383.141
-372.709
-362.803
-354.564
-348.657
-345.215
-344.063
-344.819
-347.173
-350.899
-355.589
-360.657
-365.665
-370.333
-374.507
-378.186
-381.323
-383.807
-385.603
-386.714
-387.161
-387.047
-386.447
-385.4
-383.974
-382.204
-380.098
-377.762
-375.318
-372.697
-369.813
-366.812
-363.745
-360.67
-357.957
-354.794
-350.368
-345.825
-341.495
-339.498
-342.366
-347.225
-352.148
-354.283
-349.736
-341.907
-333.669
-326.981
-325.093
-325.618
-326.15
-326.15
-324.16
-321.026
-317.833
-314.384
-310.832
-307.127
-303.073
-298.832
-294.536
-290.163
-285.72
-281.245
-276.756
-272.271
-267.807
-263.368
-258.95
-254.589
-250.314
-246.145
-242.102
-238.201
-234.46
-230.9
-227.543
-224.406
-221.504
-218.852
-216.465
-214.356
-212.538
-211.019
-209.807
-208.908
-208.326
-208.062
-208.119
-208.495
-209.188
-210.194
-211.507
-213.121
-215.029
-217.221
-219.687
-222.414
-225.392
-228.606
-232.041
-235.682
-239.513
-243.515
-247.672
-251.965
-256.375
-260.884
-265.472
-270.119
-274.806
-279.514
-284.224
-288.917
-293.575
-298.179
-302.712
-307.158
-311.502
-315.727
-319.82
-323.767
-327.556
-331.174
-334.611
-337.857
-340.903
-343.74
-346.36
-348.758
-350.927
-352.863
-354.561
-356.02
-357.237
-358.211
-358.942
-359.432
-359.681
-359.693
-359.472
-359.022
-358.348
-357.456
-356.352
-355.043
-353.538
-351.845
-349.971
-347.925
-345.717
-343.356
-340.851
-338.212
-335.448
-332.569
-329.584
-326.503
-323.335
-320.09
-316.776
-313.404
-309.981
-306.517
-303.021
-299.5
-295.963
-292.416
-288.868
-285.324
-281.792
-278.276
-274.781
-271.312
-267.874
-264.469
-261.101
-257.771
-254.481
-251.232
-248.026
-244.862
-241.74
-238.659
-235.617
-232.615
-229.649
-226.717
-223.816
-220.944
-218.098
-215.272
-212.464
-209.67
-206.884
-204.102
-201.318
-198.526
-195.722
-192.903
-190.063
-187.199
-184.304
-181.37
-178.396
-175.383
-172.318
-169.191
-165.992
-162.709
-159.349
-155.925
-152.421
-148.825
-145.166
-141.465
-137.741
-134.022
-130.287
-126.489
-122.656
-118.838
-114.915
-110.746
-106.42
-101.933
-97.262
-92.722
-87.48
-80.728
-73.632
-66.552
-61.629
-61.424
-63.112
-64.814
-63.725
-55.992
-45.032
-33.743
-24.109
-19.412
-17.312
-15.437
-13.262
-9.343
-4.519
0.127
4.803
9.37
13.902
18.62
23.383
28.08
32.752
37.412
42.049
46.673
51.298
55.932
60.605
65.346
70.152
75.022
79.969
85
90.125
95.352
100.683
106.126
111.694
117.387
123.205
129.149
135.215
141.417
147.776
154.282
160.926
167.74
174.75
181.972
189.435
197.113
204.957
212.99
221.254
229.621
237.939
246.289
254.654
262.997
271.622
279.673
286.319
292.714
299.198
307.906
321.393
336.795
352.195
364.749
370.561
373.051
375.117
378.739
387.198
398.121
409.105
419.604
428.151
435.58
442.968
450.101
457.118
463.949
470.373
476.534
482.534
488.324
493.893
499.252
504.401
509.347
514.1
518.668
523.074
527.38
531.649
535.933
540.274
544.718
549.321
554.147
559.282
564.814
570.807
577.328
584.435
592.144
600.454
609.335
618.705
628.489
638.601
648.912
659.296
669.619
679.737
689.534
698.823
707.329
714.855
721.324
726.878
731.891
736.694
741.571
746.952
753.374
761.333
771.109
782.189
793.579
804.606
814.471
822.475
828.377
831.582
832.982
836.267
843.754
856.695
875.264
896.11
921.618
959.901
1018.194
1104.299
1216.445
1342.99
1472.925
1595.131
1703.769
1798.678
1877.811
1938.986
1979.441
1995.549
1986.41
1952.555
1895.712
1819.93
1729.86
1630.673
1527.757
1425.296
1327.129
1236.89
1157.1
1089.185
1033.084
