Name,John Breau
Date of Birth,"Dec 20, 1971"
Recorded Date,2023-05-15 07:25:16 -0500
Classification,Inconclusive
Symptoms,
Software Version,1.90
Device,"Watch6,3"
Sample Rate,512 hertz


Lead,Lead I
Unit,µV

-8.999
-8.217
-11.475
-18.249
-27.183
-36.591
-45.461
-53.34
-60.075
-65.739
-70.355
-73.935
-76.765
-79.235
-81.485
-83.454
-84.933
-85.646
-85.464
-84.372
-82.327
-79.278
-75.247
-70.325
-64.675
-58.473
-51.85
-44.898
-37.787
-30.824
-24.345
-18.74
-14.347
-11.388
-10.109
-10.618
-12.913
-16.868
-22.04
-27.831
-33.69
-39.046
-43.363
-46.543
-48.512
-49.394
-50.102
-51.376
-53.999
-58.161
-62.462
-65.449
-65.862
-64.899
-66.373
-71.102
-76.155
-72.244
-44.545
15.266
106.54
220.857
341.323
453.307
550.018
626.783
683.026
721.901
742.451
744.449
729.722
695.96
643.002
573.941
491.11
399.045
304.029
209.907
118.547
33.461
-44.077
-113.891
-171.439
-214.472
-241.026
-247.577
-237.119
-214.193
-183.355
-150.614
-117.617
-84.998
-54.317
-27.218
-7.32
3.244
4.765
-1.748
-14.331
-31.347
-51.85
-73.998
-95.149
-113.485
-128.084
-138.758
-146.017
-150.245
-151.513
-150.349
-147.932
-145.177
-142.654
-140.647
-138.96
-137.377
-135.84
-134.146
-131.932
-128.989
-125.211
-120.58
-115.301
-109.593
-103.651
-97.743
-92.079
-86.788
-81.98
-77.714
-74
-70.856
-68.278
-66.202
-64.577
-63.36
-62.504
-62.005
-61.864
-62.103
-62.775
-63.938
-65.665
-67.989
-70.889
-74.344
-78.344
-82.898
-88.042
-93.862
-100.475
-108.017
-116.653
-126.472
-137.484
-149.589
-162.568
-176.137
-189.949
-203.721
-217.237
-230.3
-242.732
-254.344
-264.943
-274.284
-282.086
-288.01
-291.66
-292.725
-290.992
-286.401
-279.041
-269.115
-256.937
-242.777
-226.853
-209.358
-190.441
-170.245
-148.912
-126.611
-103.529
-79.931
-56.157
-32.501
-9.207
13.589
35.857
57.654
79.12
100.367
121.473
142.48
163.37
184.104
204.622
224.858
244.737
264.231
283.356
302.122
320.532
338.535
356.032
372.885
388.907
403.933
417.819
430.453
441.767
451.722
460.299
467.511
473.396
477.968
481.227
483.164
483.747
482.978
480.895
477.555
473.058
467.492
460.917
453.399
444.996
435.715
425.547
414.425
402.222
388.876
374.376
358.74
342.032
324.28
305.499
285.737
265.049
243.505
221.202
198.178
174.488
150.354
125.964
101.531
77.281
53.178
29.197
5.439
-18.117
-41.451
-64.198
-85.833
-105.533
-122.145
-135.028
-143.927
-148.607
-149.45
-147.561
-144.705
-143.505
-146.599
-155.483
-170.894
-193.276
-222.385
-257.529
-297.291
-339.378
-381.882
-424.004
-465.766
-507.473
-549.279
-590.835
-631.723
-671.452
-708.853
-742.302
-769.667
-788.793
-798.34
-797.861
-787.567
-768.644
-743.037
-712.616
-679.36
-645.012
-610.661
-577.068
-544.641
-513.015
-481.344
-449.001
-415.525
-380.866
-345.337
-309.203
-272.744
-236.364
-200.601
-165.896
-132.537
-100.567
-69.826
-40.115
-11.225
16.942
44.453
71.357
97.667
123.425
148.618
173.157
196.928
219.819
241.727
262.569
282.245
300.585
317.404
332.517
345.728
356.912
365.985
372.862
377.491
379.836
379.871
377.616
373.122
366.431
357.59
346.656
333.685
318.752
301.952
283.374
263.116
241.277
217.942
193.203
167.169
139.953
111.673
82.441
52.351
21.483
-10.079
-42.226
-74.846
-107.811
-140.953
-174.088
-206.994
-239.401
-271.054
-301.742
-331.244
-359.389
-386.165
-411.502
-435.326
-457.618
-478.158
-496.731
-513.391
-528.147
-540.703
-550.997
-558.999
-564.591
-568.338
-570.715
-571.469
-570.54
-568.272
-564.736
-560.414
-556.121
-551.667
-547.203
-543.711
-541.578
-540.907
-541.803
-543.181
-543.354
-541.139
-534.623
-521.725
-501.224
-471.85
-432.666
-383.942
-326.489
-261.624
-191.472
-117.557
-40.958
36.827
114.319
190.027
262.554
331.302
395.892
455.139
507.963
553.725
592.246
624.325
650.786
671.908
688.18
700.449
709.249
714.948
717.524
716.29
710.908
701.531
688.309
671.544
651.818
629.767
606.246
582.154
557.869
533.446
508.78
483.793
458.638
433.304
407.397
380.666
353.255
325.468
297.969
270.958
243.643
215.54
186.797
157.523
127.605
96.28
61.844
23.139
-19.703
-66.573
-117.598
-172.895
-231.474
-289.881
-343.281
-387.84
-423.125
-450.897
-471.941
-483.14
-475.681
-441.333
-375.342
-278.051
-160.407
-35.362
83.409
180.147
249.261
291.152
310.636
319.593
324.651
326.637
323.723
311.401
288.898
259.374
227.04
195.994
168.217
144.67
126.82
115.881
113.071
119.52
135.432
160.659
194.99
237.838
287.848
343.208
401.808
460.672
517.046
569.393
616.865
659.01
695.958
727.744
754.263
776.64
796.401
814.101
829.786
843.108
853.373
860.453
864.763
866.06
863.697
857.36
846.859
832.34
814.282
792.965
768.503
741.237
711.701
680.443
648.07
615.143
582.115
549.388
517.288
485.985
455.544
426.023
397.459
369.817
343.024
316.943
291.379
266.261
241.591
217.343
193.496
169.988
146.711
123.645
100.848
78.366
56.255
34.571
13.359
-7.266
-27.132
-46.066
-63.885
-80.462
-95.725
-109.607
-122.058
-133.044
-142.538
-150.549
-157.121
-162.282
-166.056
-168.468
-169.54
-169.318
-167.874
-165.282
-161.621
-156.97
-151.401
-144.992
-137.823
-129.968
-121.497
-112.476
-102.965
-93.033
-82.756
-72.209
-61.476
-50.637
-39.77
-28.955
-18.27
-7.788
2.423
12.3
21.789
30.836
39.389
47.4
54.82
61.606
67.713
73.099
77.72
81.539
84.526
86.651
87.892
88.233
87.663
86.173
83.768
80.453
76.236
71.128
65.136
58.267
50.534
41.949
32.524
22.273
11.207
-0.66
-13.294
-26.667
-40.751
-55.522
-70.98
-87.112
-103.875
-121.228
-139.114
-157.448
-176.143
-195.082
-214.094
-233.018
-251.701
-269.996
-287.827
-305.125
-321.817
-337.84
-353.118
-367.607
-381.305
-394.206
-406.311
-417.675
-428.389
-438.629
-448.644
-458.577
-468.608
-478.924
-489.487
-500.185
-510.725
-520.565
-529.404
-537.169
-543.524
-548.117
-551.03
-552.231
-552.016
-551.38
-549.51
-545.117
-538.789
-530.088
-520.363
-511.491
-499.46
-480.703
-451.563
-408.187
-354.367
-293.867
-229.716
-166.342
-103.332
-40.992
19.043
76.835
130.439
177.999
219.45
254.737
284.79
311.563
336.301
359.736
382.859
406.59
431.377
457.407
484.265
510.848
536.478
560.864
583.582
604.265
622.663
638.561
652.08
663.67
673.515
681.6
687.875
692.169
694.413
694.637
692.795
688.804
682.643
674.337
663.989
651.778
637.841
622.276
605.179
586.633
566.75
545.659
523.481
500.335
476.333
451.581
426.184
400.247
373.863
347.118
320.088
292.837
265.438
237.969
210.508
183.135
155.925
128.942
102.252
75.914
49.981
24.5
-0.489
-24.955
-48.867
-72.198
-94.926
-117.031
-138.499
-159.316
-179.473
-198.962
-217.78
-235.923
-253.39
-270.181
-286.295
-301.735
-316.503
-330.601
-344.03
-356.794
-368.895
-380.336
-391.12
-401.252
-410.736
-419.574
-427.769
-435.325
-442.243
-448.527
-454.177
-459.192
-463.571
-467.311
-470.41
-472.868
-474.681
-475.85
-476.374
-476.258
-475.506
-474.126
-472.128
-469.523
-466.325
-462.549
-458.213
-453.338
-447.945
-442.061
-435.71
-428.925
-421.737
-414.181
-406.295
-398.116
-389.684
-381.04
-372.227
-363.288
-354.266
-345.203
-336.147
-327.144
-318.246
-309.497
-300.944
-292.628
-284.592
-276.869
-269.491
-262.482
-255.856
-249.632
-243.824
-238.447
-233.511
-229.026
-224.997
-221.427
-218.328
-215.705
-213.561
-211.895
-210.704
-209.981
-209.723
-209.917
-210.533
-211.528
-212.844
-214.421
-216.202
-218.107
-220.051
-221.939
-223.639
-225.029
-225.988
-226.357
-225.997
-224.811
-222.704
-219.658
-215.74
-210.986
-205.525
-199.591
-193.23
-186.413
-179.06
-170.874
-161.663
-151.454
-140.073
-127.238
-113.27
-98.878
-85.058
-73.346
-64.944
-60.318
-60.129
-65.311
-74.728
-86.289
-98.39
-107.484
-112.32
-113.013
-104.593
-82.89
-44.268
14.462
88.024
169.542
253.361
333.168
406.335
469.587
518.573
550.454
562.648
554.358
525.641
476.763
410.046
329.506
239.889
146.435
53.342
-35.886
-117.015
-186.247
-241.086
-280.658
-305.888
-318.542
-320.143
-312.627
-298.851
-281.883
-264.714
-249.311
-236.189
-225.355
-216.833
-210.3
-205.122
-200.348
-194.64
-187.259
-178.281
-168.07
-157.156
-146.061
-135.165
-124.954
-116.05
-108.734
-102.988
-98.612
-95.166
-92.274
-89.646
-86.93
-83.852
-80.255
-75.995
-70.993
-65.248
-58.74
-51.478
-43.522
-34.9
-25.664
-15.904
-5.72
4.743
15.328
25.883
36.246
46.291
55.933
65.094
73.721
81.782
89.247
96.107
102.373
108.043
113.112
117.583
121.459
124.756
127.504
129.735
131.486
132.79
133.679
134.182
134.325
134.135
133.635
132.847
131.79
130.489
128.974
127.278
125.437
123.483
121.451
119.371
117.278
115.2
113.164
111.194
109.31
107.531
105.875
104.358
102.993
101.794
100.767
99.921
99.258
98.782
98.491
98.381
98.446
98.678
99.065
99.599
100.266
101.054
101.947
102.93
103.987
105.101
106.255
107.429
108.605
109.764
110.888
111.959
112.959
113.874
114.688
115.389
115.965
116.407
116.708
116.859
116.856
116.696
116.377
115.899
115.262
114.471
113.528
112.441
111.214
109.857
108.377
106.782
105.082
103.286
101.402
99.441
97.41
95.319
93.175
90.987
88.761
86.503
84.218
81.911
79.584
77.238
74.874
72.49
70.084
67.65
65.184
62.678
60.124
57.512
54.829
52.064
49.203
46.231
43.133
39.893
36.494
32.92
29.155
25.184
20.989
16.558
11.876
6.93
1.709
-3.797
-9.597
-15.698
-22.105
-28.821
-35.848
-43.185
-50.828
-58.774
-67.014
-75.539
-84.338
-93.397
-102.7
-112.23
-121.966
-131.886
-141.968
-152.184
-162.51
-172.916
-183.373
-193.851
-204.319
-214.748
-225.104
-235.358
-245.478
-255.434
-265.197
-274.738
-284.029
-293.043
-301.757
-310.146
-318.19
-325.867
-333.159
-340.051
-346.529
-352.578
-358.19
-363.354
-368.064
-372.315
-376.104
-379.429
-382.29
-384.689
-386.63
-388.117
-389.156
-389.755
-389.922
-389.666
-388.996
-387.924
-386.46
-384.615
-382.402
-379.831
-376.914
-373.663
-370.09
-366.207
-362.024
-357.553
-352.805
-347.791
-342.522
-337.008
-331.261
-325.291
-319.111
-312.732
-306.166
-299.426
-292.525
-285.478
-278.299
-271.003
-263.607
-256.127
-248.581
-240.988
-233.368
-225.742
-218.132
-210.56
-203.05
-195.625
-188.312
-181.134
-174.118
-167.288
-160.672
-154.295
-148.181
-142.356
-136.844
-131.667
-126.846
-122.402
-118.351
-114.709
-111.487
-108.695
-106.338
-104.42
-102.941
-101.898
-101.282
-101.085
-101.291
-101.883
-102.84
-104.136
-105.744
-107.63
-109.76
-112.094
-114.591
-117.21
-119.903
-122.625
-125.327
-127.958
-130.47
-132.811
-134.93
-136.775
-138.296
-139.445
-140.176
-140.446
-140.214
-139.447
-138.112
-136.185
-133.646
-130.478
-126.672
-122.221
-117.125
-111.387
-105.018
-98.034
-90.455
-82.308
-73.625
-64.445
-54.811
-44.771
-34.378
-23.683
-12.744
-1.618
9.634
20.955
32.28
43.547
54.693
65.649
76.35
86.735
96.743
106.323
115.429
124.02
132.066
139.547
146.445
152.746
158.441
163.52
167.974
171.799
174.994
177.561
179.511
180.857
181.618
181.82
181.493
180.67
179.392
177.704
175.658
173.316
170.737
167.983
165.137
162.292
159.548
157.02
154.821
153.05
151.834
151.311
151.577
152.711
154.751
157.632
161.281
165.634
170.544
175.871
181.608
187.749
194.369
201.747
210.085
219.525
230.342
242.563
255.723
269.279
282.513
294.215
303.395
309.385
311.109
309.007
305.583
301.984
299.238
297.744
295.02
293.755
301.219
323.586
367.588
432.035
507.35
584.881
656.221
716.746
766.381
803.931
828.243
838.29
832.675
811.178
773.974
722.485
659.877
589.716
515.934
441.807
369.495
301.967
242.892
195.152
160.922
140.987
134.468
140.562
158.796
187.424
223.843
265.456
309.217
352.812
395.176
434.978
470.49
500.884
525.766
544.749
558.348
567.156
571.311
571.6
569.388
565.568
561.043
556.913
553.566
551.176
550.018
549.771
549.784
549.727
549.229
547.844
545.532
542.327
538.245
533.618
528.853
524.138
519.606
515.328
511.205
507.155
503.116
498.919
494.388
489.451
484.09
478.35
472.325
466.082
459.668
453.153
446.612
440.108
433.7
427.436
421.355
415.51
409.962
404.77
399.992
395.671
391.839
388.518
385.721
383.459
381.735
380.549
379.895
379.767
380.161
381.069
382.485
384.398
386.796
389.661
392.975
396.713
400.844
405.337
410.154
415.257
420.604
426.152
431.858
437.682
443.584
449.525
455.468
461.376
467.215
472.96
478.585
484.069
489.393
494.543
499.502
504.262
508.811
513.136
517.227
521.075
524.673
528.021
531.117
533.965
536.576
538.957
541.114
543.054
544.776
546.274
547.572
548.696
549.689
550.617
551.526
552.452
553.44
554.516
555.679
556.9
558.086
559.114
559.889
560.336
560.415
560.078
559.199
557.622
555.155
551.61
546.893
540.877
533.359
524.242
513.557
501.579
488.926
476.061
463.122
450.195
437.277
424.32
411.437
398.219
383.65
367.185
348.667
328.271
306.796
284.759
262.106
239.565
218.496
199.823
184.687
173.55
165.594
160.523
157.27
152.664
143.688
126.915
100.855
67.895
27.711
-22.551
-90.38
-188.943
-324.922
-499.082
-705.087
-926.086
-1146.844
-1353.266
-1534.107
-1688.213
-1818.225
-1930.716
-2033.273
-2128.067
-2214.254
-2289.044
-2350.808
-2401.463
-2444.469
-2483.061
-2518.541
-2550.416
-2577.771
-2599.576
-2614.8
-2622.348
-2620.872
-2609.615
-2588.703
-2558.545
-2519.739
-2472.979
-2418.888
-2358.321
-2292.412
-2222.005
-2147.685
-2069.993
-1989.22
-1905.681
-1819.855
-1732.087
-1642.681
-1552.055
-1460.644
-1369.065
-1278.156
-1188.664
-1101.289
-1016.718
-935.505
-858.224
-785.346
-717.121
-653.751
-595.387
-542.121
-494.078
-451.35
-413.888
-381.537
-353.985
-330.731
-311.275
-295.058
-281.453
-269.837
-259.532
-249.995
-240.891
-231.972
-223.06
-213.986
-204.566
-194.654
-184.209
-173.239
-161.815
-150.077
-138.159
-126.266
-114.665
-103.657
-93.587
-84.686
-77.049
-70.698
-65.602
-61.716
-58.995
-57.354
-56.649
-56.752
-57.538
-58.888
-60.706
-62.854
-65.167
-67.463
-69.546
-71.274
-72.563
-73.354
-73.618
-73.343
-72.525
-71.192
-69.397
-67.175
-64.55
-61.533
-58.126
-54.341
-50.204
-45.74
-40.973
-35.927
-30.612
-25.045
-19.237
-13.196
-6.923
-0.415
6.34
13.348
20.61
28.129
35.904
43.935
52.225
60.772
69.573
78.625
87.928
97.48
107.283
117.336
127.637
138.184
148.971
159.992
171.234
182.682
194.314
206.105
218.022
230.027
242.079
254.14
266.165
278.111
289.937
301.6
313.059
324.28
335.222
345.84
356.091
365.924
375.29
384.143
392.434
400.122
407.168
413.535
419.195
424.132
428.324
431.752
434.385
436.174
437.092
437.132
436.291
434.581
432.035
428.691
424.617
419.93
414.74
409.16
403.301
397.226
390.996
384.678
378.356
372.124
366.048
360.154
354.443
348.945
343.7
338.731
333.99
329.29
324.42
319.162
313.337
306.826
299.47
291.205
282.096
272.399
262.632
253.376
245.124
238.331
233.52
230.914
230.301
231.082
232.072
232.094
230.509
226.777
220.216
210.795
199.637
188.907
182.061
182.795
193.541
216.324
253.585
306.85
376.069
459.674
553.61
652.548
752.353
848.895
936.786
1010.981
1066.87
1100.367
1110.139
1096.577
1059.464
999.599
919.689
823.159
715.016
601.389
486.942
375.764
272.712
181.828
106.16
47.953
7.13
-17.751
-27.704
-24.067
-9.098
14.438
43.01
73.146
103.012
131.367
156.624
177.04
190.836
197.361
197.57
192.82
183.782
170.945
154.963
137.214
120.145
105.449
93.562
84.535
78.319
74.947
74.671
77.17
81.118
85.509
89.875
93.963
97.962
102.053
106.142
110.341
115.064
120.549
126.917
134.187
142.085
150.334
158.74
167.058
175.109
182.808
190.073
196.872
203.22
209.11
214.556
219.589
224.2
228.369
232.08
235.308
238.064
240.384
242.3
243.851
245.071
245.987
246.635
247.057
247.285
247.35
247.278
247.098
246.848
246.574
246.32
246.134
246.057
246.13
246.393
246.887
247.643
248.689
250.045
251.726
253.744
256.107
258.816
261.871
265.263
268.983
273.015
277.34
281.934
286.769
291.811
297.023
302.365
307.792
313.256
318.708
324.095
329.367
334.47
339.351
343.955
348.229
352.12
355.575
358.544
360.98
362.836
364.069
364.642
364.52
363.675
362.081
359.717
356.569
352.624
347.876
342.322
335.963
328.806
320.86
312.14
302.663
292.452
281.531
269.932
257.684
244.824
231.39
217.421
202.96
188.051
172.739
157.071
141.095
124.86
108.414
91.806
75.086
58.3
41.497
24.723
8.023
-8.559
-24.98
-41.201
-57.182
-72.884
-88.273
-103.313
-117.972
-132.219
-146.024
-159.36
-172.201
-184.523
-196.304
-207.523
-218.164
-228.209
-237.645
-246.461
-254.645
-262.193
-269.097
-275.357
-280.973
-285.947
-290.285
-293.995
-297.088
-299.577
-301.476
-302.805
-303.583
-303.832
-303.578
-302.846
-301.667
-300.074
-298.1
-295.782
-293.162
-290.279
-287.177
-283.901
-280.497
-277.013
-273.498
-270.002
-266.574
-263.266
-260.128
-257.21
-254.563
-252.233
-250.265
-248.703
-247.587
-246.953
-246.835
-247.26
-248.254
-249.837
-252.028
-254.841
-258.287
-262.371
-267.094
-272.455
-278.445
-285.051
-292.255
-300.033
-308.355
-317.191
-326.504
-336.253
-346.397
-356.888
-367.676
-378.711
-389.937
-401.298
-412.735
-424.188
-435.596
-446.901
-458.049
-468.985
-479.661
-490.03
-500.052
-509.695
-518.93
-527.732
-536.074
-543.939
-551.308
-558.166
-564.503
-570.305
-575.563
-580.281
-584.469
-588.148
-591.347
-594.1
-596.446
-598.433
-600.109
-601.521
-602.719
-603.741
-604.621
-605.404
-606.145
-606.904
-607.764
-608.781
-609.989
-611.43
-613.115
-615.032
-617.149
-619.379
-621.623
-623.827
-625.956
-628.011
-630.041
-632.074
-634.147
-636.312
-638.564
-640.907
-643.364
-645.909
-648.544
-651.331
-654.361
-657.816
-661.923
-666.776
-672.404
-678.775
-685.719
-693.059
-700.56
-707.882
-714.766
-720.992
-726.336
-730.672
-733.865
-735.686
-735.889
-734.145
-730.045
-723.351
-713.914
-701.639
-686.623
-669.023
-649.091
-627.26
-603.903
-579.309
-553.758
-527.432
-500.501
-473.231
-445.894
-418.798
-392.346
-366.841
-342.523
-319.629
-298.252
-278.413
-260.061
-242.992
-227.036
-212.118
-198.186
-185.255
-173.373
-162.533
-152.741
-144.016
-136.313
-129.606
-123.89
-119.127
-115.344
-112.608
-111.014
-110.72
-111.865
-114.52
-118.719
-124.458
-131.691
-140.371
-150.434
-161.758
-174.224
-187.695
-202.011
-217.039
-232.646
-248.695
-265.042
-281.521
-297.967
-314.299
-330.534
-346.64
-362.475
-377.761
-392.135
-405.393
-417.527
-428.51
-438.182
-446.556
-454.103
-461.824
-471.077
-482.907
-497.959
-516.87
-540.216
-568.31
-599.772
-631.075
-659.579
-683.653
-703.375
-721.202
-734.288
-735.885
-720.404
-681.607
-621.478
-549.874
-474.992
-406.094
-348.626
-301.577
-265.099
-238.924
-222.671
-218.277
-226.292
-244.975
-271.385
-301.442
-331.13
-357.688
-378.62
-390.868
-391.314
-377.532
-348.751
-305.892
-250.502
-183.807
-107.17
-22.558
67.136
158.412
248.923
337.435
422.867
503.912
578.701
645.323
703.033
752.101
792.477
824.181
847.53
863.176
872.919
878.726
881.611
882.104
880.556
876.967
871.354
863.524
852.574
837.909
819.648
798.108
773.95
747.898
720.397
692.036
663.592
635.559
608.161
581.441
555.211
529.359
503.914
478.784
453.814
428.788
403.398
377.439
350.752
323.15
294.473
264.562
233.294
200.657
166.736
131.634
95.501
58.456
20.582
-17.933
-56.86
-95.931
-134.831
-173.302
-211.093
-247.882
-283.312
-317.06
-348.819
-378.358
-405.503
-430.064
-451.931
-471.031
-487.316
-500.894
-511.937
-520.663
-527.363
-532.281
-535.663
-537.866
-539.295
-540.308
-541.287
-542.619
-544.707
-548.045
-553.026
-559.942
-568.988
-580.237
-593.729
-609.288
-626.487
-644.746
-663.288
-681.319
-698.226
-713.331
-725.75
-734.797
-739.929
-741.049
-738.901
-734.048
-726.476
-716.034
-702.302
-684.619
-662.344
-633.677
-595.347
-544.225
-477.714
-393.967
-292.436
-172.949
-35.239
119.516
288.588
468.649
655.721
846.153
1037.346
1226.491
1409.82
1583.813
1745.37
1891.84
2021.816
2134.253
2227.778
2301.752
2357.252
2396.275
2421.506
2436.245
2443.11
2444.528
2443.469
2442.33
2442.071
2442.806
2443.822
2443.509
2440.621
2433.816
2420.975
2400.48
2371.646
2334.367
2289.385
2237.95
2180.992
2119.588
2055.298
1989.291
1922.287
1854.656
1786.11
1716.177
1644.567
1570.886
1494.64
1415.475
1333.074
1247.175
1157.746
1064.85
968.576
869.285
767.515
663.965
559.634
455.53
352.589
251.864
154.45
61.064
-28.094
-113.244
-194.903
-273.321
-347.495
-416.552
-480.912
-539.888
-593.736
-641.974
-679.348
-702.424
-707.422
-690.062
-653.161
-599.604
-532.704
-458.63
-379.114
-295.299
-209.942
-124.725
-42.642
33.219
101.991
163.952
219.773
270.164
315.81
357.523
396.167
432.779
467.883
501.299
532.721
561.758
587.77
609.926
627.544
640.002
646.908
648.316
644.457
635.775
623.093
607.397
589.408
569.665
548.521
526.101
502.575
478.059
452.491
425.79
397.9
368.826
338.697
307.684
275.853
243.158
209.405
174.318
137.727
99.489
59.44
17.407
-26.829
-73.422
-122.379
-173.621
-227.076
-282.687
-340.385
-400.132
-461.846
-525.251
-589.922
-655.293
-720.618
-785.141
-848.106
-908.514
-965.352
-1018.03
-1066.353
-1110.614
-1151.346
-1188.702
-1222.59
-1253.041
-1279.803
-1301.908
-1317.572
-1324.113
-1318.85
-1299.938
-1266.112
-1216.34
-1150.006
-1067.589
-971.15
-864.097
-750.09
-632.546
-514.678
-399.941
-292.24
-194.518
-108.041
-32.983
31.089
85.086
130.103
168.078
202.049
234.335
266.174
298.332
331.045
364.268
397.975
431.477
463.408
493.052
520.26
545.159
568.217
589.761
609.956
629.199
648.067
666.831
685.49
703.798
721.296
737.662
752.648
765.966
777.255
786.103
792.176
795.252
795.226
792.031
785.584
775.81
762.682
746.259
726.654
704.013
678.473
650.139
619.15
585.667
549.892
512.066
472.391
431.032
388.145
343.883
298.415
251.923
204.564
156.462
107.737
58.523
8.978
-40.696
-90.267
-139.506
-188.234
-236.297
-283.581
-329.968
-375.24
-419.256
-462.026
-503.519
-543.666
-582.231
-618.614
-652.283
-683.159
-711.163
-736.148
-758.306
-777.81
-795.25
-812.231
-829.455
-846.125
-861.845
-876.673
-892.56
-913.108
-938.281
-962.599
-976.632
-971.539
-943.785
-896.578
-836.435
-766.295
-687.748
-602.717
-515.773
-438.078
-378.048
-338.042
-314.297
-296.038
-275.211
-248.473
-215.878
-181.153
-145.655
-107.872
-65.096
-13.689
47.812
118.786
197.917
283.267
373.121
465.748
558.756
649.937
737.884
821.785
901.417
976.838
1048.02
1115.239
1179.131
1240.054
1297.901
1352.19
1402.214
1447.344
1487.1
1520.968
1548.305
1568.614
1581.669
1587.498
1586.318
1578.401
1564.048
1543.618
1517.678
1486.941
1452.091
1413.82
1372.678
1329.08
1283.449
1236.164
1187.539
1137.843
1087.259
1035.871
983.782
931.105
877.879
824.12
769.734
714.514
658.313
601.026
542.604
483.092
422.553
361.066
298.778
235.894
172.638
109.271
46.035
-16.864
-79.189
-140.692
-201.092
-260.075
-317.375
-372.776
-426.088
-477.153
-525.828
-571.973
-615.487
-656.31
-694.379
-729.637
-762.02
-791.45
-817.872
-841.262
-861.615
-878.932
-893.207
-904.414
-912.526
-917.545
-919.506
-918.457
-914.447
-907.538
-897.822
-885.445
-870.608
-853.515
-834.328
-813.161
-790.091
-765.218
-738.648
-710.496
-680.877
-649.835
-617.401
-583.634
-548.626
-512.457
-475.163
-436.686
-396.871
-355.625
-312.973
-269.049
-224.071
-178.248
-131.818
-85.071
-38.371
7.801
52.99
96.837
139.051
179.345
217.367
252.649
284.631
312.873
337.089
357.123
372.911
384.399
391.618
394.722
394.02
389.956
382.911
373.153
360.882
346.305
329.7
311.452
292.003
271.686
250.75
229.388
207.76
186.036
164.313
142.573
120.677
98.41
75.649
52.374
28.625
4.442
-20.162
-45.218
-70.75
-96.705
-123.009
-149.593
-176.385
-203.324
-230.301
-257.133
-283.583
-309.403
-334.401
-358.457
-381.466
-403.315
-423.876
-442.993
-460.549
-476.501
-490.809
-503.44
-514.375
-523.531
-530.9
-536.593
-540.613
-542.886
-543.244
-541.283
-536.722
-529.67
-520.27
-508.712
-495.558
-481.351
-466.812
-453.224
-441.463
-431.577
-423.374
-416.177
-408.676
-399.895
-388.742
-373.459
-352.973
-327.171
-296.326
-261.595
-224.798
-187.179
-149.949
-114.752
-82.568
-53.773
-28.467
-5.922
15.005
34.935
54.366
73.894
93.71
113.872
134.37
154.773
174.522
193.32
210.962
227.311
242.381
256.13
268.49
279.493
289.175
297.533
304.55
310.173
314.328
316.986
318.147
317.822
316.04
312.821
308.187
302.166
294.791
286.101
276.141
264.959
252.605
239.135
224.608
209.088
192.641
175.328
157.209
138.341
118.778
98.579
77.803
56.508
34.754
12.598
-9.901
-32.688
-55.707
-78.904
-102.223
-125.612
-149.018
-172.389
-195.673
-218.82
-241.779
-264.504
-286.947
-309.064
-330.812
-352.148
-373.032
-393.421
-413.275
-432.554
-451.218
-469.229
-486.549
-503.143
-518.977
-534.019
-548.24
-561.612
-574.108
-585.699
-596.361
-606.069
-614.801
-622.54
-629.266
-634.969
-639.644
-643.29
-645.917
-647.535
-648.158
-647.802
-646.487
-644.235
-641.065
-637.001
-632.06
-626.268
-619.657
-612.265
-604.136
-595.315
-585.855
-575.811
-565.242
-554.208
-542.77
-530.981
-518.889
-506.557
-494.049
-481.442
-468.833
-456.3
-443.908
-431.728
-419.819
-408.221
-396.961
-386.031
-375.389
-364.995
-354.805
-344.78
-334.898
-325.128
-315.452
-305.855
-296.307
-286.83
-277.476
-268.283
-259.301
-250.587
-242.214
-234.322
-227.145
-220.906
-215.835
-212.177
-210.182
-210.16
-212.264
-216.475
-222.632
-230.267
-238.85
-247.963
-257.009
-265.255
-272.407
-278.437
-283.553
-288.883
-295.574
-304.231
-315.88
-330.508
-346.155
-361.002
-372.719
-380.752
-388.253
-396.31
-402.657
-398.363
-368.125
-301.452
-195.928
-61.659
79.793
208.127
308.281
374.69
412.707
429.993
432.177
421.441
394.666
347.38
279.203
192.882
93.855
-10.354
-114.479
-214.956
-307.848
-390.016
-459.061
-512.837
-551.092
-575.474
-587.174
-587.465
-578.559
-562.66
-542.677
-522.308
-504.031
-488.737
-477.235
-470.065
-467.343
-469.343
-475.122
-482.275
-488.761
-493.502
-495.944
-496.109
-493.906
-488.531
-479.701
-468.102
-454.514
-439.61
-423.807
-406.781
-388.173
-368.423
-348.112
-327.623
-307.346
-286.947
-265.46
-242.537
-218.236
-192.227
-164.109
-133.3
-98.863
-60.957
-20.914
20.322
62.177
104.062
145.657
186.362
225.065
261.496
296.287
329.848
362.482
394.347
425.225
455.126
484.4
513.034
540.684
567.094
591.985
615.207
636.846
656.891
675.231
691.832
706.685
719.785
731.174
740.859
748.799
754.983
759.416
762.117
763.138
762.527
760.329
756.593
751.367
744.702
736.656
727.29
716.67
704.861
691.931
677.949
662.986
647.112
630.4
612.914
594.713
575.853
556.388
536.375
515.865
494.91
473.557
451.851
429.835
407.549
385.032
362.32
339.445
316.435
293.32
270.126
246.879
223.605
200.327
177.067
153.843
130.675
107.58
84.57
61.653
38.833
16.113
-6.494
-28.981
-51.334
-73.538
-95.574
-117.417
-139.033
-160.399
-181.497
-202.316
-222.854
-243.106
-263.068
-282.739
-302.117
-321.198
-339.979
-358.446
-376.577
-394.367
-411.823
-428.967
-445.843
-462.465
-478.817
-494.874
-510.604
-525.942
-540.806
-555.077
-568.598
-581.253
-592.969
-603.693
-613.394
-622.04
-629.598
-636.047
-641.397
-645.672
-648.91
-651.187
-652.608
-653.252
-653.163
-652.35
-650.762
-648.354
-645.131
-640.998
-635.883
-630.013
-623.875
-618.316
-614.417
-612.84
-613.814
-617.449
-623.418
-630.729
-637.819
-642.222
-641.121
-632.643
-615.712
-589.795
-555.26
-513.093
-464.927
-413.456
-361.494
-310.968
-263.203
-218.891
-178.003
-140.377
-105.487
-72.261
-39.909
-8.04
23.557
54.723
85.139
114.617
142.838
169.43
194.334
217.554
239.111
259.134
277.652
294.662
310.237
324.445
337.318
348.874
359.086
367.919
375.386
381.469
386.125
389.274
390.762
390.492
388.428
384.558
378.917
371.55
362.503
351.854
339.717
326.19
311.37
295.345
278.183
259.975
240.823
220.838
200.148
178.87
157.112
134.982
112.581
90.003
67.337
44.66
22.034
-0.472
-22.782
-44.822
-66.514
-87.78
-108.553
-128.758
-148.321
-167.181
-185.283
-202.582
-219.041
-234.626
-249.302
-263.043
-275.827
-287.633
-298.433
-308.2
-316.897
-324.497
-330.982
-336.337
-340.549
-343.608
-345.499
-346.217
-345.769
-344.151
-341.354
-337.35
-332.083
-325.538
-317.733
-308.705
-298.523
-287.248
-274.925
-261.632
-247.476
-232.519
-216.805
-200.317
-182.971
-164.738
-145.633
-125.713
-105.104
-83.868
-62.001
-39.502
-16.349
7.484
31.99
57.241
83.392
110.467
138.393
166.964
195.805
224.638
253.281
281.575
309.438
336.735
363.244
388.792
413.233
436.387
458.088
478.068
495.918
511.414
524.491
535.236
543.952
550.835
555.953
559.383
561.168
561.382
560.158
557.567
553.607
548.356
541.931
534.559
526.611
518.31
509.744
500.884
491.568
481.731
471.44
460.784
449.865
438.784
427.616
416.505
405.631
395.052
384.728
374.442
363.835
352.755
341.22
329.418
317.796
306.733
296.405
287.07
278.951
271.857
265.431
258.736
250.085
238.117
221.707
200.734
176.598
150.548
123.779
95.408
62.142
23.897
-15.808
-48.038
-58.335
-38.342
11.624
84.653
165.934
242.369
307.892
357.88
391.194
410.737
416.44
408.997
390.332
357.844
311.23
253.279
186.53
116.266
47.1
-18.997
-79.465
-131.168
-171.61
-198.616
-211.407
-211.137
-198.892
-175.553
-143.164
-104.601
-63.159
-22.393
15.489
49.69
79.413
104.214
124.428
140.798
154.76
168.053
181.37
194.654
207.738
220.2
231.681
241.892
250.159
255.738
258.434
258.458
256.378
252.949
248.585
243.498
237.9
231.979
225.975
220.101
214.395
208.836
203.477
198.412
193.856
190.067
187.076
184.761
182.871
181.061
179.133
176.991
174.532
171.682
168.376
164.567
160.309
155.705
150.783
145.528
139.863
133.656
126.88
119.583
111.851
103.825
95.611
87.278
78.919
70.635
62.492
54.538
46.781
39.187
31.762
24.538
17.557
10.881
4.554
-1.394
-6.935
-12.046
-16.711
-20.914
-24.651
-27.93
-30.751
-33.106
-34.986
-36.369
-37.245
-37.61
-37.461
-36.8
-35.635
-33.976
-31.843
-29.262
-26.26
-22.866
-19.109
-15.019
-10.628
-5.972
-1.087
3.99
9.219
14.559
19.967
25.4
30.812
36.161
41.402
46.494
51.399
56.08
60.502
64.635
68.452
71.925
75.032
77.754
80.076
81.983
83.468
84.525
85.154
85.357
85.145
84.529
83.525
82.153
80.434
78.393
76.057
73.454
70.616
67.574
64.362
61.015
57.567
54.056
50.515
46.979
43.482
40.054
36.725
33.522
30.469
27.587
24.895
22.408
20.137
18.091
16.274
14.686
13.325
12.184
11.252
10.517
9.961
9.564
9.305
9.159
9.099
9.097
9.124
9.151
9.146
9.079
8.919
8.638
8.206
7.597
6.786
5.751
4.472
2.933
1.121
-0.975
-3.359
-6.034
-8.997
-12.241
-15.756
-19.527
-23.534
-27.754
-32.161
-36.722
-41.404
-46.171
-50.982
-55.795
-60.567
-65.252
-69.805
-74.179
-78.327
-82.204
-85.763
-88.963
-91.76
-94.115
-95.991
-97.355
-98.177
-98.431
-98.094
-97.149
-95.584
-93.391
-90.566
-87.112
-83.036
-78.351
-73.073
-67.226
-60.837
-53.937
-46.565
-38.759
-30.564
-22.028
-13.201
-4.136
5.111
14.485
23.928
33.381
42.787
52.088
61.228
70.151
78.804
87.137
95.102
102.652
109.748
116.352
122.429
127.952
132.893
137.235
140.96
144.058
146.522
148.352
149.55
150.124
150.085
149.451
148.242
146.482
144.2
141.426
138.197
134.549
130.521
126.157
121.499
116.591
111.478
106.206
100.82
95.363
89.881
84.414
79.005
73.691
68.51
63.496
58.682
54.095
49.764
45.711
41.957
38.52
35.414
32.65
30.239
28.188
26.5
25.177
24.217
23.615
23.364
23.456
23.876
24.607
25.63
26.925
28.471
30.242
32.215
34.362
36.658
39.076
41.59
44.174
46.801
49.442
52.072
54.665
57.196
59.641
61.977
64.181
66.234
68.121
69.827
71.338
72.639
73.715
74.552
75.145
75.484
75.567
75.391
74.961
74.289
73.398
72.307
71.037
69.608
68.04
66.35
64.555
62.667
60.694
58.646
56.531
54.355
52.131
49.862
47.554
45.218
42.862
40.498
38.149
35.834
33.574
31.417
29.42
27.645
26.17
25.067
24.397
24.256
24.757
25.97
27.946
30.68
34.117
38.224
42.953
48.168
53.653
59.232
64.81
70.428
76.286
82.525
89.21
96.489
104.574
113.392
122.59
131.546
138.974
143.597
144.5
140.41
131.074
118.024
102.636
86.81
71.259
53.869
35.265
19.389
13.619
28.224
67.929
131.001
211.597
301.281
393.108
480.625
554.186
601.962
615.638
592.586
538.713
466.469
384.586
298.052
207.854
111.113
8.97
-94.935
-196.396
-289.094
-368.791
-433.765
-482.499
-515.114
-532.849
-536.397
-527.384
-508.65
-482.718
-452.035
-419.15
-385.672
-352.817
-322.104
-294.122
-268.762
-246.156
-226.308
-209.241
-195.132
-183.548
-173.532
-164.678
-156.911
-150.082
-143.992
-138.077
-131.802
-125.314
-119.201
-113.786
-109.069
-104.821
-100.813
-97.12
-93.857
-90.865
-87.737
-84.117
-79.846
-74.963
-69.616
-63.889
-57.814
-51.448
-44.935
-38.442
-32.131
-26.139
-20.509
-15.242
-10.35
-5.834
-1.698
2.06
5.483
8.641
11.591
14.38
17.046
19.613
22.125
24.637
27.2
29.864
32.662
35.614
38.743
42.073
45.623
49.407
53.429
57.679
62.157
66.866
71.806
76.979
82.383
88.007
93.844
99.887
106.123
112.535
119.102
125.8
132.604
139.489
146.429
153.395
160.359
167.291
174.163
180.944
187.605
194.114
200.441
206.554
212.425
218.026
223.331
228.314
232.95
237.219
241.098
244.57
247.617
250.223
252.373
254.054
255.257
255.972
256.194
255.916
255.136
253.855
252.076
249.802
247.04
243.799
240.088
235.92
231.308
226.267
220.811
214.958
208.727
202.135
195.203
187.952
180.403
172.576
164.493
156.175
147.644
138.918
130.021
120.97
111.785
102.487
93.093
83.623
74.094
64.523
54.926
45.321
35.722
26.144
16.601
7.105
-2.33
-11.692
-20.971
-30.155
-39.234
-48.197
-57.036
-65.74
-74.302
-82.713
-90.965
-99.049
-106.957
-114.682
-122.215
-129.548
-136.672
-143.579
-150.26
-156.706
-162.908
-168.857
-174.543
-179.958
-185.093
-189.94
-194.488
-198.731
-202.661
-206.269
-209.549
-212.494
-215.098
-217.357
-219.265
-220.82
-222.02
-222.862
-223.346
-223.474
-223.246
-222.665
-221.735
-220.462
-218.851
-216.91
-214.649
-212.076
-209.205
-206.047
-202.616
-198.926
-194.994
-190.836
-186.468
-181.91
-177.179
-172.295
-167.276
-162.142
-156.913
-151.608
-146.247
-140.849
-135.432
-130.014
-124.613
-119.246
-113.928
-108.674
-103.5
-98.418
-93.441
-88.581
-83.848
-79.253
-74.804
-70.51
-66.377
-62.412
-58.621
-55.007
-51.576
-48.331
-45.274
-42.409
-39.737
-37.259
-34.977
-32.891
-31.002
-29.31
-27.814
-26.514
-25.411
-24.503
-23.791
-23.273
-22.95
-22.822
-22.887
-23.146
-23.597
-24.241
-25.075
-26.099
-27.313
-28.712
-30.297
-32.062
-34.004
-36.119
-38.4
-40.841
-43.433
-46.165
-49.028
-52.01
-55.098
-58.278
-61.535
-64.853
-68.215
-71.604
-75.002
-78.391
-81.75
-85.06
-88.302
-91.455
-94.5
-97.417
-100.187
-102.79
-105.208
-107.423
-109.418
-111.177
-112.683
-113.922
-114.88
-115.548
-115.915
-115.976
-115.726
-115.165
-114.297
-113.128
-111.668
-109.929
-107.924
-105.67
-103.19
-100.504
-97.636
-94.613
-91.462
-88.215
-84.904
-81.562
-78.225
-74.926
-71.701
-68.585
-65.615
-62.825
-60.245
-57.91
-55.85
-54.101
-52.694
-51.66
-51.022
-50.803
-51.023
-51.697
-52.831
-54.425
-56.467
-58.946
-61.852
-65.174
-68.894
-72.992
-77.444
-82.229
-87.335
-92.744
-98.438
-104.394
-110.585
-116.99
-123.595
-130.379
-137.307
-144.335
-151.404
-158.452
-165.436
-172.289
-178.929
-185.265
-191.175
-196.539
-201.256
-205.189
-208.205
-210.211
-211.132
-210.95
-209.732
-207.531
-204.453
-200.707
-196.393
-191.552
-186.135
-179.9
-172.689
-164.506
-155.281
-144.86
-133.341
-121.113
-109.046
-98.553
-90.717
-86.149
-85.295
-88.549
-96.131
-107.438
-120.569
-132.519
-140.297
-141.558
-134.547
-117.454
-88.046
-45.28
9.953
75.159
146.672
221.035
295.491
366.374
428.432
476.881
508.045
519.482
510.799
481.84
431.789
361.499
274.097
173.644
65.209
-45.986
-156.146
-261.327
-356.544
-437.749
-502.163
-548.185
-576.292
-587.969
-584.273
-566.656
-537.68
-500.372
-458.111
-414.083
-370.233
-327.863
-288.579
-254.229
-226.214
-204.991
-190.151
-180.81
-176.253
-175.94
-178.871
-183.339
-187.692
-190.927
-192.583
-192.656
-191.258
-188.378
-184.342
-179.962
-175.896
-172.477
-169.791
-167.65
-165.861
-164.339
-162.859
-161.035
-158.628
-155.552
-151.854
-147.721
-143.305
-138.71
-134.076
-129.583
-125.401
-121.632
-118.314
-115.425
-112.938
-110.844
-109.139
-107.8
-106.772
-106.009
-105.468
-105.12
-104.949
-104.923
-104.996
-105.124
-105.265
-105.382
-105.453
-105.452
-105.349
-105.122
-104.747
-104.205
-103.49
-102.584
-101.47
-100.128
-98.54
-96.688
-94.561
-92.147
-89.432
-86.41
-83.076
-79.433
-75.485
-71.238
-66.701
-61.882
-56.796
-51.457
-45.882
-40.088
-34.094
-27.923
-21.598
-15.147
-8.598
-1.98
4.678
11.346
17.992
24.584
31.089
37.477
43.714
49.77
55.612
61.209
66.53
71.547
76.229
80.552
84.488
88.015
91.112
93.759
95.941
97.644
98.855
99.563
99.763
99.448
98.615
97.262
95.392
93.006
90.11
86.713
82.823
78.452
73.614
68.322
62.593
56.445
49.894
42.961
35.665
28.028
20.071
11.817
3.288
-5.492
-14.5
-23.712
-33.105
-42.653
-52.334
-62.123
-71.995
-81.928
-91.897
-101.877
-111.846
-121.778
-131.649
-141.436
-151.115
-160.661
-170.05
-179.259
-188.264
-197.041
-205.566
-213.815
-221.765
-229.391
-236.67
-243.578
-250.092
-256.187
-261.842
-267.033
-271.74
-275.94
-279.614
-282.742
-285.306
-287.287
-288.671
-289.443
-289.59
-289.101
-287.966
-286.18
-283.736
-280.635
-276.874
-272.459
-267.394
-261.689
-255.355
-248.409
-240.867
-232.752
-224.087
-214.899
-205.218
-195.078
-184.512
-173.56
-162.259
-150.653
-138.785
-126.7
-114.443
-102.058
-89.593
-77.095
-64.611
-52.188
-39.873
-27.712
-15.75
-4.033
7.394
18.489
29.212
39.524
49.388
58.771
67.643
75.975
83.746
90.934
97.522
103.496
108.843
113.557
117.632
121.067
123.86
126.012
127.529
128.419
128.692
128.358
127.423
125.895
123.785
121.104
117.864
114.077
109.751
104.901
99.549
93.721
87.444
80.742
73.637
66.152
58.309
50.13
41.624
32.796
23.646
14.172
4.382
-5.707
-16.085
-26.743
-37.681
-48.913
-60.436
-72.226
-84.263
-96.52
-108.95
-121.489
-134.039
-146.457
-158.618
-170.394
-181.669
-192.359
-202.368
-211.602
-219.981
-227.392
-233.738
-238.993
-243.16
-246.282
-248.49
-249.915
-250.71
-251.156
-251.529
-251.979
-252.546
-253.078
-253.267
-252.905
-251.914
-250.175
-247.597
-244.307
-240.607
-237.13
-234.697
-233.668
-233.926
-235.155
-236.62
-237.037
-234.725
-227.315
-212.228
-187.816
-153.095
-107.475
-51.258
14.555
88.223
166.844
247.37
327.649
405.993
481.154
552.493
619.487
682.151
741.327
797.689
851.461
902.564
950.447
994.478
1034.294
1069.502
1099.697
1124.781
1144.772
1159.895
1170.669
1177.669
1181.509
1182.755
1181.827
1179.051
1174.712
1169.115
1162.589
1155.411
1147.722
1139.612
1131.128
1122.286
1113.13
1103.62
1093.597
1082.759
1070.698
1056.988
1041.2
1022.954
1001.853
977.652
950.381
920.339
888.104
854.229
819.065
783.01
746.646
710.196
673.357
635.389
594.987
551.337
504.337
453.67
399.104
340.899
280.793
222.548
169.612
124.433
87.772
58.63
40.285
38.048
55.443
96.596
158.368
233.384
316.761
398.937
470.547
523.261
546.571
536.792
497.231
434.816
358.321
274.071
184.423
89.38
-9.461
-108.985
-205.204
-292.45
-366.158
-423.838
-463.321
-483.643
-485.598
-469.615
-436.305
-387.372
-324.525
-250.055
-167.475
-79.982
10.606
102.558
193.923
282.536
365.389
440.103
506.064
563.427
611.927
651.139
681.036
702.352
717.282
728.363
736.817
742.887
746.625
748.02
747.183
744.191
738.227
728.04
713.164
693.779
670.608
644.854
617.411
588.881
560.035
531.649
504.282
478.34
453.909
430.781
408.78
387.743
367.548
348.154
329.435
311.19
293.148
274.943
256.332
237.2
217.46
197.073
176.022
154.301
132.01
109.357
86.529
63.697
40.998
18.521
-3.589
-25.147
-45.951
-65.779
-84.462
-101.895
-117.976
-132.621
-145.774
-157.393
-167.481
-176.089
-183.252
-188.994
-193.339
-196.308
-197.938
-198.29
-197.424
-195.403
-192.293
-188.159
-183.07
-177.103
-170.333
-162.832
-154.674
-145.93
-136.679
-127.009
-117.009
-106.772
-96.39
-85.957
-75.564
-65.308
-55.276
-45.555
-36.226
-27.368
-19.056
-11.362
-4.352
1.911
7.371
11.975
15.676
18.433
20.21
20.98
20.717
19.403
17.026
13.58
9.066
3.491
-3.133
-10.787
-19.447
-29.081
-39.653
-51.121
-63.438
-76.554
-90.413
-104.955
-120.116
-135.831
-152.029
-168.641
-185.595
-202.817
-220.234
-237.77
-255.353
-272.908
-290.361
-307.642
-324.679
-341.403
-357.748
-373.648
-389.043
-403.875
-418.089
-431.634
-444.463
-456.535
-467.812
-478.26
-487.852
-496.566
-504.385
-511.296
-517.292
-522.374
-526.545
-529.814
-532.196
-533.71
-534.381
-534.237
-533.31
-531.638
-529.259
-526.22
-522.565
-518.344
-513.61
-508.415
-502.815
-496.868
-490.629
-484.158
-477.512
-470.748
-463.924
-457.095
-450.315
-443.635
-437.106
-430.773
-424.681
-418.869
-413.374
-408.227
-403.458
-399.09
-395.142
-391.63
-388.564
-385.948
-383.785
-382.07
-380.795
-379.948
-379.512
-379.467
-379.789
-380.451
-381.421
-382.668
-384.154
-385.842
-387.693
-389.665
-391.717
-393.805
-395.887
-397.921
-399.865
-401.678
-403.322
-404.76
-405.956
-406.878
-407.498
-407.788
-407.725
-407.29
-406.468
-405.248
-403.621
-401.584
-399.14
-396.291
-393.049
-389.424
-385.435
-381.1
-376.443
-371.489
-366.269
-360.813
-355.154
-349.328
-343.372
-337.322
-331.218
-325.098
-319
-312.961
-307.017
-301.203
-295.554
-290.1
-284.871
-279.895
-275.195
-270.794
-266.711
-262.96
-259.553
-256.498
-253.798
-251.454
-249.463
-247.817
-246.506
-245.517
-244.833
-244.435
-244.302
-244.41
-244.733
-245.24
-245.903
-246.69
-247.568
-248.505
-249.469
-250.427
-251.35
-252.206
-252.97
-253.615
-254.114
-254.443
-254.58
-254.506
-254.2
-253.645
-252.828
-251.736
-250.362
-248.703
-246.757
-244.526
-242.015
-239.229
-236.179
-232.874
-229.326
-225.549
-221.557
-217.365
-212.995
-208.466
-203.804
-199.031
-194.172
-189.252
-184.293
-179.318
-174.348
-169.399
-164.487
-159.63
-154.846
-150.151
-145.563
-141.1
-136.781
-132.629
-128.661
-124.891
-121.329
-117.981
-114.849
-111.932
-109.227
-106.722
-104.406
-102.272
-100.317
-98.54
-96.942
-95.514
-94.252
-93.147
-92.191
-91.378
-90.691
-90.103
-89.592
-89.149
-88.777
-88.51
-88.371
-88.362
-88.475
-88.704
-89.029
-89.419
-89.807
-90.066
-90.065
-89.71
-88.952
-87.793
-86.239
-84.282
-81.905
-79.072
-75.776
-72.024
-67.789
-63.026
-57.723
-51.95
-45.902
-39.934
-34.406
-29.628
-25.891
-23.315
-21.865
-21.355
-21.386
-21.531
-21.453
-20.802
-19.162
-16.46
-13.07
-9.725
-7.577
-7.521
-9.799
-14.59
-22.272
-32.735
-44.966
-56.986
-65.643
-67.718
-61.082
-43.937
-14.218
29.623
87.987
159.811
241.976
330.183
420.689
509.814
593.003
665.543
723.131
762.016
780.136
777.085
752.381
706.14
640.199
557.465
461.852
358.542
252.503
148.084
50.477
-35.466
-106.154
-158.833
-192.323
-207.185
-204.523
-185.888
-154.392
-113.791
-68.087
-21.422
23.053
62.981
96.357
121.661
138.452
147.312
149.802
148.022
143.822
138.935
134.773
132.483
132.844
135.977
141.41
148.318
155.75
162.764
168.819
173.615
177.021
179.144
180.159
180.355
180.181
180.121
180.446
181.266
182.571
184.257
186.274
188.575
191.044
193.519
195.849
197.901
199.571
200.823
201.631
201.965
201.809
201.159
200.032
198.474
196.543
194.281
191.711
188.86
185.754
182.434
178.95
175.354
171.7
168.037
164.415
160.883
157.487
154.268
151.261
148.492
145.98
143.749
141.827
140.24
139.017
138.183
137.756
137.755
138.195
139.086
140.431
142.227
144.466
147.135
150.222
153.708
157.576
161.801
166.359
171.22
176.355
181.73
187.31
193.056
198.927
204.882
210.877
216.869
222.815
228.673
234.398
239.949
245.284
250.365
255.152
259.609
263.699
267.39
270.651
273.454
275.774
277.589
278.883
279.641
279.852
279.51
278.611
277.155
275.145
272.586
269.486
265.858
261.713
257.07
251.945
246.361
240.339
233.906
227.086
219.908
212.399
204.588
196.505
188.18
179.642
170.92
162.044
153.041
143.94
134.767
125.548
116.308
107.069
97.853
88.681
79.57
70.538
61.598
52.766
44.053
35.47
27.027
18.731
10.59
2.61
-5.204
-12.848
-20.319
-27.615
-34.734
-41.674
-48.434
-55.014
-61.412
-67.629
-73.661
-79.509
-85.171
-90.643
-95.923
-101.007
-105.891
-110.571
-115.041
-119.294
-123.322
-127.12
-130.677
-133.986
-137.036
-139.818
-142.322
-144.539
-146.459
-148.072
-149.368
-150.34
-150.979
-151.276
-151.226
-150.822
-150.058
-148.932
-147.44
-145.58
-143.354
-140.762
-137.808
-134.497
-130.836
-126.833
-122.499
-117.845
-112.886
-107.638
-102.118
-96.345
-90.341
-84.126
-77.726
-71.163
-64.465
-57.656
-50.765
-43.818
-36.841
-29.863
-22.911
-16.01
-9.187
-2.468
4.124
10.565
16.831
22.904
28.762
34.388
39.767
44.883
49.726
54.285
58.551
62.518
66.184
69.545
72.603
75.36
77.821
79.992
81.883
83.504
84.867
85.984
86.87
87.54
88.01
88.294
88.409
88.37
88.193
87.894
87.486
86.986
86.406
85.759
85.057
84.309
83.525
82.711
81.872
81.013
80.137
79.243
78.334
77.409
76.464
75.496
74.5
73.469
72.394
71.268
70.077
68.812
67.461
66.013
64.459
62.787
60.991
59.063
56.999
54.793
52.443
49.946
47.301
44.508
41.569
38.488
35.273
31.932
28.478
24.926
21.294
17.601
13.867
10.113
6.359
2.624
-1.068
-4.695
-8.236
-11.666
-14.96
-18.091
-21.033
-23.758
-26.244
-28.471
-30.419
-32.076
-33.43
-34.477
-35.219
-35.656
-35.788
-35.618
-35.149
-34.382
-33.321
-31.969
-30.327
-28.408
-26.233
-23.825
-21.217
-18.442
-15.531
-12.52
-9.445
-6.33
-3.202
-0.081
3.025
6.092
9.083
11.954
14.633
17.064
19.218
21.063
22.57
23.751
24.624
25.254
25.764
26.233
26.7
27.19
27.677
28.139
28.593
29.044
29.502
30.009
30.579
31.264
32.18
33.344
34.7
36.084
37.174
37.715
37.585
36.633
34.71
31.816
28.009
23.537
18.922
14.563
10.755
7.865
6.239
5.978
7.022
9.111
11.435
13.154
13.541
11.42
6.541
0.193
-6.311
-10.87
-13.023
-15.394
-17.86
-18.402
-10.684
17.752
73.515
159.28
272.731
400.239
529.713
647.274
736.202
790.874
809.776
797.227
766.208
723.117
669.625
606.011
528.499
437.726
339.167
237.969
139.911
50.163
-28.169
-92.569
-140.944
-172.949
-189.426
-191.197
-179.709
-157.208
-126.179
-90.085
-52.674
-16.417
16.643
44.784
66.948
82.081
89.884
91.601
88.929
83.348
76.507
69.397
62.638
57.336
54.049
52.518
52.279
52.517
52.275
51.295
49.578
46.93
43.385
39.062
34.101
28.989
24.294
20.264
17.001
14.53
12.762
11.688
11.315
11.525
12.146
13.014
13.975
14.924
15.822
16.637
17.328
17.866
18.229
18.419
18.463
18.399
18.247
18.006
17.673
17.248
16.746
16.188
15.599
15.002
14.413
13.849
13.326
12.861
12.465
12.144
11.898
11.722
11.618
11.594
11.662
11.834
12.123
12.54
13.095
13.801
14.668
15.7
16.9
18.268
19.802
21.502
23.366
25.393
27.58
29.922
32.415
35.051
37.824
40.724
43.74
46.857
50.061
53.336
56.662
60.024
63.4
66.77
70.112
73.404
76.621
79.739
82.732
85.574
88.238
90.698
92.928
94.904
96.601
97.998
99.075
99.813
100.196
100.211
99.843
99.083
97.923
96.355
94.376
91.985
89.181
85.968
82.352
78.343
73.951
69.19
64.077
58.629
52.868
46.816
40.499
33.944
27.178
20.232
13.139
5.929
-1.362
-8.701
-16.055
-23.391
-30.674
-37.874
-44.96
-51.902
-58.674
-65.248
-71.602
-77.714
-83.563
-89.133
-94.409
-99.378
-104.031
-108.36
-112.362
-116.035
-119.379
-122.397
-125.097
-127.484
-129.571
-131.369
-132.893
-134.159
-135.186
-135.993
-136.6
-137.03
-137.306
-137.45
-137.485
-137.433
-137.318
-137.161
-136.981
-136.799
-136.631
-136.494
-136.403
-136.371
-136.408
-136.523
-136.724
-137.015
-137.398
-137.876
-138.446
-139.105
-139.849
-140.672
-141.566
-142.522
-143.53
-144.577
-145.653
-146.743
-147.834
-148.91
-149.958
-150.962
-151.908
-152.781
-153.567
-154.253
-154.828
-155.281
-155.601
-155.781
-155.813
-155.693
-155.417
-154.981
-154.387
-153.635
-152.728
-151.671
-150.469
-149.131
-147.664
-146.078
-144.385
-142.594
-140.719
-138.772
-136.764
-134.71
-132.623
-130.515
-128.399
-126.29
-124.198
-122.136
-120.116
-118.148
-116.241
-114.404
-112.645
-110.971
-109.387
-107.898
-106.508
-105.221
-104.039
-102.964
-101.996
-101.135
-100.379
-99.727
-99.175
-98.72
-98.359
-98.088
-97.904
-97.801
-97.778
-97.831
-97.957
-98.154
-98.418
-98.748
-99.141
-99.595
-100.108
-100.68
-101.309
-101.995
-102.74
-103.543
-104.406
-105.329
-106.31
-107.349
-108.445
-109.593
-110.788
-112.026
-113.301
-114.606
-115.936
-117.282
-118.638
-119.994
-121.34
-122.665
-123.958
-125.206
-126.393
-127.503
-128.518
-129.421
-130.195
-130.823
-131.287
-131.572
-131.661
-131.539
-131.19
-130.599
-129.749
-128.626
-127.216
-125.512
-123.505
-121.192
-118.575
-115.66
-112.461
-108.995
-105.278
-101.327
-97.163
-92.806
-88.279
-83.604
-78.797
-73.882
-68.885
-63.839
-58.783
-53.76
-48.809
-43.974
-39.298
-34.825
-30.598
-26.653
-23.011
-19.701
-16.756
-14.219
-12.154
-10.607
-9.594
-9.133
-9.232
-9.879
-11.059
-12.725
-14.773
-17.116
-19.666
-22.344
-25.127
-27.981
-30.859
-33.725
-36.512
-39.201
-41.84
-44.455
-47.046
-49.645
-52.248
-54.926
-57.913
-61.4
-65.588
-70.708
-76.836
-84.068
-92.585
-102.371
-113.256
-124.9
-136.665
-147.985
-158.549
-167.913
-175.541
-181.174
-184.787
-186.853
-188.361
-190.034
-192.166
-195.065
-199.214
-204.667
-210.553
-215.128
-215.795
-209.707
-194.851
-169.757
-132.276
-81.621
-19.424
53.186
133.95
220.369
312.979
407.842
495.981
568.44
614.844
631.626
623.752
596.439
554.821
499.962
429.327
343.333
244.463
136.927
26.163
-83.67
-188.621
-284.038
-367.024
-437.058
-494.326
-538.767
-567.829
-577.679
-568.113
-544.863
-519.049
-501.601
-497.565
-504.54
-514.127
-518.297
-513.248
-499.411
-480.796
-461.016
-441.667
-422.98
-403.944
-384.177
-364.273
-345.098
-327.735
-312.728
-300.009
-289.355
-280.408
-272.832
-266.462
-261.102
-256.488
-252.327
-248.25
-243.948
-239.275
-234.161
-228.56
-222.435
-215.743
-208.498
-200.822
-192.876
-184.817
-176.777
-168.844
-161.125
-153.758
-146.91
-140.767
-135.462
-131.068
-127.634
-125.189
-123.756
-123.342
-123.917
-125.406
-127.733
-130.835
-134.653
-139.138
-144.221
-149.818
-155.84
-162.195
-168.802
-175.582
-182.451
-189.326
-196.122
-202.759
-209.164
-215.27
-221.002
-226.281
-231.031
-235.174
-238.634
-241.344
-243.233
-244.234
-244.287
-243.338
-241.34
-238.25
-234.031
-228.65
-222.08
-214.301
-205.3
-195.066
-183.596
-170.892
-156.966
-141.832
-125.514
-108.038
-89.439
-69.753
-49.025
-27.306
-4.65
18.885
43.234
68.332
94.105
120.478
147.372
174.707
202.398
230.36
258.506
286.745
314.988
343.146
371.128
398.846
426.21
453.132
479.525
505.303
530.383
554.683
578.121
600.62
622.107
642.513
661.77
679.815
696.589
712.032
726.097
738.74
749.912
759.568
767.671
774.184
779.091
782.386
784.045
784.048
782.417
779.172
774.335
767.941
759.986
750.452
739.387
726.86
712.806
697.141
679.985
661.379
641.354
620.231
597.365
572.134
545.591
518.107
491.562
468.198
445.705
422.577
396.527
364.389
329.137
293.311
258.682
228.116
199.734
171.631
143.462
114.105
84.373
55.278
26.748
-1.002
-27.933
-54.136
-79.395
-103.52
-126.457
-148.127
-168.436
-187.31
-204.684
-220.492
-234.691
-247.243
-258.088
-267.174
-274.465
-279.927
-283.538
-285.279
-285.14
-283.113
-279.206
-273.434
-265.816
-256.382
-245.171
-232.225
-217.6
-201.356
-183.562
-164.293
-143.633
-121.673
-98.507
-74.239
-48.977
-22.833
4.074
31.623
59.689
88.142
116.853
145.688
174.515
203.2
231.608
259.606
287.063
313.85
339.839
364.908
388.938
411.814
433.427
453.675
472.461
489.697
505.3
519.198
531.322
541.618
550.035
556.534
561.085
563.665
564.263
562.875
559.509
554.181
546.914
537.742
526.706
513.856
499.25
482.951
465.033
445.573
424.658
402.378
378.831
354.119
328.347
301.624
274.062
245.776
216.881
187.494
157.733
127.713
97.551
67.363
37.265
7.368
-22.216
-51.382
-80.026
-108.046
-135.348
-161.84
-187.439
-212.064
-235.641
-258.098
-279.371
-299.398
-318.127
-335.51
-351.504
-366.073
-379.189
-390.832
-400.987
-409.647
-416.811
-422.48
-426.663
-429.373
-430.628
-430.451
-428.868
-425.91
-421.612
-416.019
-409.176
-401.135
-391.951
-381.68
-370.386
-358.136
-344.997
-331.029
-316.297
-300.863
-284.793
-268.161
-251.029
-233.46
-215.52
-197.278
-178.809
-160.19
-141.486
-122.75
-104.035
-85.396
-66.888
-48.569
-30.482
-12.66
4.85
21.987
38.669
54.791
70.283
85.11
99.252
112.709
125.483
137.566
148.988
159.824
170.108
179.846
189.007
197.496
205.28
212.413
218.981
225.135
231
236.612
241.97
247.039
251.711
255.852
259.271
261.62
262.59
262.081
260.188
257.295
253.893
250.273
246.529
242.746
239.141
235.785
232.39
228.202
222.018
212.833
200.314
184.464
165.061
142.161
116.588
89.931
64.989
44.996
32.272
28.792
36.931
58.432
93.797
142.372
201.383
266.656
334.617
401.475
462.301
512.257
546.871
562.427
557.322
532.176
488.226
425.774
345.967
249.868
137.661
15.056
-109.322
-227.303
-328.153
-407.322
-467.703
-511.89
-544.219
-566.573
-575.699
-570.243
-550.689
-519.036
-479.226
-433.891
-384.775
-333.198
-280.098
-226.923
-174.763
-124.148
-76.038
-31.497
9.205
45.945
79.024
109.505
137.892
164.149
188.668
211.868
233.606
253.776
271.909
286.996
298.681
307.159
312.606
315.323
315.754
314.183
311.082
307.181
302.859
298.331
293.778
289.294
285.102
281.423
278.313
275.712
273.53
271.589
269.685
267.587
264.95
261.518
257.139
251.706
245.222
237.703
229.154
219.59
209.007
197.409
184.826
171.3
156.879
141.667
125.8
109.462
92.903
76.327
59.888
43.724
27.925
12.573
-2.251
-16.488
-30.101
-43.041
-55.254
-66.685
-77.27
-86.964
-95.743
-103.595
-110.533
-116.567
-121.704
-125.957
-129.338
-131.864
-133.553
-134.421
-134.477
-133.743
-132.252
-130.047
-127.178
-123.7
-119.668
-115.142
-110.188
-104.873
-99.263
-93.422
-87.413
-81.3
-75.146
-69.014
-62.965
-57.059
-51.351
-45.895
-40.744
-35.943
-31.538
-27.564
-24.056
-21.039
-18.537
-16.567
-15.141
-14.266
-13.943
-14.169
-14.938
-16.238
-18.05
-20.351
-23.112
-26.301
-29.881
-33.811
-38.046
-42.539
-47.243
-52.106
-57.079
-62.111
-67.149
-72.142
-77.04
-81.792
-86.35
-90.667
-94.698
-98.4
-101.737
-104.671
-107.173
-109.214
-110.772
-111.827
-112.367
-112.381
-111.865
-110.818
-109.247
-107.16
-104.572
-101.505
-97.981
-94.03
-89.686
-84.985
-79.969
-74.681
-69.169
-63.481
-57.67
-51.789
-45.892
-40.035
-34.274
-28.666
-23.265
-18.128
-13.308
-8.858
-4.828
-1.266
1.783
4.278
6.179
7.451
8.064
7.991
7.208
5.699
3.449
0.451
-3.298
-7.799
-13.043
-19.02
-25.713
-33.103
-41.162
-49.863
-59.172
-69.05
-79.459
-90.353
-101.685
-113.407
-125.466
-137.809
-150.38
-163.124
-175.983
-188.9
-201.818
-214.681
-227.431
-240.016
-252.381
-264.475
-276.251
-287.662
-298.665
-309.22
-319.292
-328.847
-337.858
-346.3
-354.152
-361.401
-368.034
-374.046
-379.433
-384.2
-388.353
-391.903
-394.865
-397.258
-399.105
-400.432
-401.269
-401.647
-401.602
-401.17
-400.39
-399.303
-397.951
-396.377
-394.624
-392.735
-390.753
-388.721
-386.678
-384.664
-382.715
-380.866
-379.148
-377.593
-376.225
-375.068
-374.139
-373.455
-373.024
-372.853
-372.943
-373.289
-373.883
-374.711
-375.755
-376.996
-378.408
-379.961
-381.624
-383.361
-385.133
-386.899
-388.616
-390.235
-391.707
-392.984
-394.014
-394.748
-395.133
-395.12
-394.662
-393.714
-392.232
-390.177
-387.509
-384.191
-380.188
-375.474
-370.022
-363.813
-356.834
-349.075
-340.536
-331.224
-321.154
-310.346
-298.822
-286.613
-273.754
-260.284
-246.25
-231.7
-216.688
-201.274
-185.526
-169.514
-153.316
-137.011
-120.68
-104.407
-88.281
-72.387
-56.804
-41.608
-26.872
-12.668
0.926
13.838
26.004
37.362
47.849
57.403
65.961
73.474
79.914
85.263
89.512
92.651
94.67
95.57
95.373
94.089
91.73
88.285
83.717
78.029
71.263
63.486
54.792
45.275
35.008
24.104
12.712
0.957
-11.049
-23.256
-35.666
-48.225
-60.832
-73.311
-85.414
-96.956
-107.796
-117.823
-126.996
-135.301
-142.737
-149.451
-155.665
-161.581
-167.432
-173.174
-178.53
-183.218
-186.823
-189.082
-189.995
-189.311
-186.654
-182.199
-176.324
-169.713
-163.869
-159.893
-158.359
-160.45
-166.257
-174.009
-182.227
-188.762
-192.785
-196.71
-200.041
-198.989
-185.843
-149.003
-82.858
11.661
128.237
254.463
379.181
492.461
583.442
645.014
674.183
671.769
644.779
601.348
545.831
480.34
403.804
314.548
217.383
121.977
39.246
-19.471
-51.759
-64.189
-62.12
-51.125
-31.668
2.229
48.514
99.967
148.438
182.903
201.924
212.325
219.431
229.738
245.068
261.64
278.039
293.075
306.176
318.863
331.349
342.974
353.329
361.608
367.161
369.952
370.093
367.839
363.688
358.11
351.466
344.008
335.903
327.243
318.119
308.657
298.911
288.898
278.62
268.08
257.301
246.31
235.102
223.595
211.679
199.245
186.184
172.457
158.063
143.009
127.32
111.035
94.206
76.912
59.246
41.283
23.082
4.707
-13.78
-32.291
-50.726
-68.99
-86.984
-104.616
-121.8
-138.449
-154.485
-169.84
-184.451
-198.262
-211.224
-223.281
-234.378
-244.461
-253.479
-261.384
-268.134
-273.691
-278.023
-281.105
-282.921
-283.462
-282.727
-280.719
-277.446
-272.924
-267.173
-260.218
-252.091
-242.827
-232.468
-221.061
-208.659
-195.318
-181.101
-166.073
-150.304
-133.868
-116.838
-99.293
-81.31
-62.969
-44.353
-25.544
-6.625
12.321
31.21
49.962
68.496
86.731
104.593
122.009
138.909
155.228
170.905
185.882
200.107
213.53
226.109
237.801
248.573
258.393
267.233
275.072
281.892
287.68
292.425
296.124
298.773
300.375
300.936
300.464
298.971
296.471
292.981
288.522
283.115
276.784
269.557
261.461
252.526
242.784
232.268
221.011
209.049
196.418
183.155
169.297
154.883
139.953
124.547
108.706
92.472
75.89
59.002
41.856
24.496
6.971
-10.669
-28.375
-46.094
-63.773
-81.358
-98.793
-116.02
-132.981
-149.617
-165.866
-181.666
-196.957
-211.674
-225.756
-239.14
-251.764
-263.566
-274.486
-284.466
-293.448
-301.378
-308.203
-313.874
-318.343
-321.569
-323.512
-324.139
-323.42
-321.331
-317.853
-312.973
-306.683
-298.984
-289.879
-279.382
-267.511
-254.291
-239.755
-223.942
-206.899
-188.678
-169.338
-148.947
-127.575
-105.302
-82.211
-58.39
-33.933
-8.936
16.499
42.269
68.266
94.381
120.505
146.526
172.332
197.812
222.855
247.353
271.2
294.292
316.529
337.813
358.053
377.16
395.052
411.652
426.887
440.693
453.009
463.786
472.978
480.551
486.474
490.729
493.303
494.192
493.399
490.936
486.822
481.083
473.755
464.88
454.508
442.697
429.511
415.021
399.304
382.444
364.528
345.648
325.901
305.384
284.202
262.46
240.27
217.741
194.989
172.129
149.278
126.556
104.079
81.961
60.315
39.249
18.871
-0.718
-19.419
-37.138
-53.786
-69.276
-83.528
-96.467
-108.027
-118.148
-126.781
-133.885
-139.429
-143.392
-145.759
-146.527
-145.7
-143.287
-139.307
-133.784
-126.753
-118.26
-108.36
-97.116
-84.603
-70.905
-56.119
-40.352
-23.711
-6.305
11.753
30.347
49.361
68.68
88.188
107.773
127.315
146.685
165.754
184.392
202.47
219.868
236.466
252.151
266.823
280.392
292.783
303.938
313.789
322.265
329.289
334.774
338.657
340.9
341.47
340.347
337.548
333.121
327.167
319.844
311.275
301.554
290.753
278.917
266.099
252.361
237.759
222.354
206.23
189.492
172.285
154.797
137.132
119.318
101.267
82.754
63.606
43.723
22.996
1.298
-21.327
-44.659
-68.277
-91.466
-113.63
-134.464
-153.595
-170.623
-185.565
-198.694
-210.587
-222.461
-235.226
-249.197
-264.982
-282.973
-302.508
-322.511
-340.981
-354.565
-360.574
-356.857
-340.559
-309.551
-263.217
-201.713
-127.333
-44.439
43.318
131.947
215.935
290.137
349.97
391.384
412.862
414.652
396.423
358.939
305.064
238.531
164.326
88.052
13.938
-54.116
-111.336
-153.706
-178.739
-185.401
-174.727
-149.078
-110.74
-62.825
-9.59
44.762
96.421
142.74
182.728
216.242
243.369
264.915
282.316
297.161
311.173
325.246
339.287
352.971
365.845
377.407
387.257
394.91
399.807
401.858
401.365
398.736
394.517
389.045
382.428
374.823
366.37
357.165
347.332
336.919
325.902
314.324
302.25
289.73
276.839
263.568
249.836
235.571
220.691
205.173
189.076
172.468
155.439
138.094
120.541
102.906
85.343
67.974
50.905
34.232
18.042
2.441
-12.444
-26.49
-39.571
-51.576
-62.406
-71.971
-80.188
-86.988
-92.32
-96.144
-98.437
-99.175
-98.337
-95.907
-91.877
-86.249
-79.035
-70.257
-59.943
-48.135
-34.889
-20.269
-4.355
12.771
31.015
50.28
70.459
91.442
113.112
135.348
158.025
181.016
204.187
227.404
250.528
273.423
295.948
317.968
339.346
359.95
379.653
398.33
415.864
432.139
447.049
460.493
472.377
482.616
491.134
497.861
502.741
505.728
506.785
505.889
503.027
498.198
491.412
482.688
472.06
459.568
445.264
429.211
411.481
392.155
371.323
349.085
325.547
300.825
275.04
248.318
220.792
192.6
163.881
134.78
105.442
76.014
46.644
17.479
-11.335
-39.656
-67.341
-94.256
-120.268
-145.251
-169.087
-191.663
-212.875
-232.626
-250.829
-267.406
-282.287
-295.414
-306.738
-316.221
-323.835
-329.564
-333.4
-335.348
-335.425
-333.656
-330.078
-324.737
-317.69
-309.005
-298.755
-287.025
-273.908
-259.503
-243.918
-227.266
-209.666
-191.243
-172.123
-152.438
-132.321
-111.908
-91.335
-70.736
-50.247
-30.002
-10.131
9.239
27.982
45.98
63.117
79.285
94.381
108.31
120.983
132.32
142.25
150.708
157.642
163.007
166.767
168.898
169.386
168.224
165.419
160.985
154.949
147.346
138.221
127.629
115.632
102.302
87.719
71.97
55.149
37.357
18.7
-0.711
-20.759
-41.324
-62.284
-83.512
-104.882
-126.265
-147.533
-168.556
-189.21
-209.369
-228.912
-247.721
-265.683
-282.688
-298.635
-313.426
-326.973
-339.194
-350.016
-359.373
-367.211
-373.483
-378.153
-381.195
-382.592
-382.337
-380.434
-376.897
-371.749
-365.024
-356.764
-347.022
-335.859
-323.346
-309.562
-294.591
-278.53
-261.477
-243.539
-224.827
-205.459
-185.554
-165.236
-144.631
-123.866
-103.07
-82.371
-61.896
-41.77
-22.115
-3.051
15.308
32.854
49.481
65.092
79.597
92.909
104.952
115.656
124.961
132.812
139.166
143.986
147.248
148.932
149.033
147.55
144.493
139.882
133.743
126.112
117.031
106.553
94.736
81.647
67.358
51.949
35.502
18.108
-0.143
-19.156
-38.835
-59.083
-79.804
-100.9
-122.277
-143.837
-165.486
-187.13
-208.679
-230.042
-251.135
-271.875
-292.184
-311.99
-331.223
-349.823
-367.731
-384.897
-401.272
-416.814
-431.485
-445.252
-458.088
-469.974
-480.897
-490.852
-499.839
-507.862
-514.932
-521.06
-526.264
-530.559
-533.961
-536.487
-538.153
-538.981
-539.001
-538.242
-536.738
-534.527
-531.649
-528.153
-524.097
-519.541
-514.546
-509.173
-503.484
-497.542
-491.408
-485.137
-478.775
-472.353
-465.893
-459.415
-452.932
-446.452
-439.983
-433.503
-426.954
-420.26
-413.322
-406.053
-398.394
-390.301
-381.75
-372.747
-363.336
-353.657
-343.974
-334.464
-325.151
-315.929
-306.532
-296.798
-286.796
-276.495
-265.683
-254.421
-243.254
-233.16
-225.542
-221.695
-222.321
-227.982
-239.484
-256.35
-276.338
-296.889
-315.396
-331.391
-346.698
-360.889
-369.192
-363.019
-334.263
-280.509
-207.079
-125.582
-46.657
23.119
80.113
124.269
155.237
170.729
169.331
149.919
111.425
54.798
-17.105
-100.768
-191.672
-284.897
-376.994
-464.881
-544.519
-612.481
-666.222
-703.867
-725.579
-732.717
-726.111
-706.841
-677.012
-639.259
-596.782
-552.784
-509.267
-467.542
-429.253
-396.283
-370.036
-350.91
-338.307
-331.188
-328.734
-330.294
-334.793
-340.42
-345.386
-348.63
-349.751
-348.826
-346.024
-341.409
-335.324
-328.64
-322.232
-316.629
-312.056
-308.39
-305.423
-303.069
-301.142
-299.301
-297.308
-295.058
-292.557
-289.987
-287.561
-285.425
-283.759
-282.761
-282.537
-283.144
-284.6
-286.862
-289.89
-293.673
-298.182
-303.384
-309.266
-315.819
-323.036
-330.925
-339.471
-348.646
-358.414
-368.721
-379.509
-390.739
-402.376
-414.399
-426.807
-439.574
-452.654
-466.005
-479.543
-493.156
-506.708
-520.005
-532.848
-545.08
-556.571
-567.23
-577.018
-585.874
-593.718
-600.457
-605.94
-610.044
-612.698
-613.841
-613.457
-611.57
-608.306
-603.926
-598.613
-592.385
-585.067
-576.271
-565.625
-552.941
-537.937
-520.337
-500.554
-479.275
-457.399
-436.393
-416.34
-396.849
-378.84
-362.118
-347.488
-335.378
-321.045
-300.469
-269.327
-223.083
-164.615
-96.695
-21.537
56.188
136.307
218.433
300.321
381.268
459.499
533.008
600.727
662.417
718.601
770.152
819.027
867.441
915.399
962.289
1006.453
1042.933
1070.577
1092.275
1111.779
1137.781
1174.681
1218.284
1261.844
1293.802
1306.043
1300.194
1282.094
1261.651
1246.943
1239.329
1236.769
1234.701
1229.413
1220.166
1207.565
1193.066
1177.62
1161.243
1143.786
1124.994
1104.715
1083.035
1060.018
1035.672
1010.039
983.114
954.834
925.198
894.263
862.088
828.764
794.386
759.003
722.719
685.703
648.146
610.269
572.254
534.228
496.313
458.631
421.288
384.385
347.987
312.114
276.797
242.082
208.008
174.616
141.925
109.916
78.579
47.911
17.902
-11.454
-40.18
-68.329
-95.931
-122.986
-149.482
-175.388
-200.669
-225.292
-249.182
-272.212
-294.251
-315.16
-334.823
-353.174
-370.136
-385.618
-399.507
-411.651
-421.924
-430.265
-436.661
-441.149
-443.811
-444.777
-444.278
-442.642
-440.274
-437.636
-434.985
-432.352
-429.624
-426.493
-422.789
-418.639
-413.993
-408.565
-402.425
-395.887
-389.71
-385.283
-383.345
-383.626
-385.682
-388.827
-391.604
-392.216
-387.915
-374.689
-349.408
-310.272
-256.096
-186.852
-103.816
-8.761
95.489
204.774
315.793
426.466
535.075
640.974
744.55
846.07
945.895
1044.79
1142.315
1236.679
1326.151
1408.636
1481.613
1543.48
1593.373
1630.675
1656.05
1671.302
1677.973
1677.755
1672.65
1663.855
1652.111
1638.123
1621.917
1603.218
1582.217
1558.997
1533.438
1505.738
1476.1
1444.695
1411.981
1378.376
1343.983
1308.852
1272.995
1236.336
1198.863
1160.497
1120.993
1080.019
1037.254
992.517
945.765
897.039
846.416
793.994
739.923
684.448
627.883
570.52
512.639
454.482
396.273
338.281
280.808
224.17
168.699
114.672
62.317
11.848
-36.549
-82.713
-126.508
-167.847
-206.68
-242.954
-276.616
-307.621
-335.927
-361.512
-384.374
-404.514
-421.947
-436.693
-448.776
-458.229
-465.094
-469.42
-471.27
-470.72
-467.847
-462.747
-455.526
-446.3
-435.195
-422.342
-407.872
-391.917
-374.607
-356.082
-336.495
-316.017
-294.833
-273.119
-251.038
-228.743
-206.383
-184.097
-161.993
-140.13
-118.525
-97.188
-76.16
-55.529
-35.403
-15.874
2.963
21.026
38.238
54.495
69.732
83.935
97.126
109.299
120.369
130.14
138.307
144.558
148.647
150.352
149.429
145.819
139.659
131.239
121.15
109.988
98.071
85.831
73.727
61.614
49.229
36.19
21.361
3.913
-16.453
-40.574
-68.111
-96.65
-124.361
-149.786
-172.608
-194.991
-216.704
-232.095
-232.452
-209.669
-159.592
-87.164
-3.387
82.072
159.075
221.547
266.94
291.631
296.429
282.461
250.492
202.743
138.472
59.023
-31.869
-130.694
-231.76
-330.584
-424.128
-507.935
-578.253
-632.79
-670.124
-690.545
-695.306
-684.989
-660.874
-625.995
-583.969
-538.498
-492.676
-448.501
-407.825
-373.196
-346.588
-328.481
-318.366
-314.93
-316.912
-323.409
-333.003
-343.419
-352.48
-358.829
-361.857
-361.692
-358.617
-352.783
-344.76
-335.677
-326.654
-318.458
-311.486
-305.708
-300.914
-296.992
-293.689
-290.568
-287.323
-283.801
-279.965
-275.968
-272.023
-268.288
-264.962
-262.269
-260.316
-259.15
-258.779
-259.15
-260.232
-262.01
-264.449
-267.507
-271.156
-275.371
-280.134
-285.43
-291.216
-297.438
-304.037
-310.947
-318.11
-325.469
-332.962
-340.526
-348.099
-355.619
-363.021
-370.245
-377.219
-383.87
-390.123
-395.897
-401.115
-405.699
-409.574
-412.662
-414.892
-416.2
-416.525
-415.814
-414.018
-411.091
-406.996
-401.698
-395.169
-387.386
-378.331
-367.995
-356.373
-343.472
-329.302
-313.884
-297.248
-279.429
-260.471
-240.424
-219.347
-197.302
-174.362
-150.603
-126.11
-100.971
-75.283
-49.146
-22.666
4.051
30.891
57.741
84.485
111.01
137.199
162.938
188.115
212.616
236.333
259.159
280.989
301.725
321.269
339.531
356.425
371.871
385.796
398.133
408.822
417.811
425.056
430.519
434.173
435.996
435.977
434.113
430.41
424.883
417.554
408.456
397.629
385.121
370.989
355.297
338.115
319.523
299.605
278.45
256.157
232.825
208.563
183.48
157.692
131.316
104.473
77.287
49.883
22.387
-5.073
-32.37
-59.377
-85.969
-112.021
-137.412
-162.022
-185.736
-208.444
-230.037
-250.416
-269.485
-287.153
-303.34
-317.969
-330.974
-342.294
-351.879
-359.685
-365.679
-369.836
-372.139
-372.583
-371.169
-367.91
-362.826
-355.949
-347.319
-336.983
-325
-311.436
-296.365
-279.869
-262.04
-242.974
-222.775
-201.552
-179.422
-156.504
-132.921
-108.803
-84.278
-59.479
-34.539
-9.591
15.233
39.799
63.98
87.648
110.68
132.958
154.367
174.799
194.153
212.332
229.25
244.825
258.988
271.674
282.83
292.41
300.381
306.717
311.403
314.432
315.81
315.551
313.679
310.226
305.235
298.756
290.847
281.575
271.013
259.241
246.344
232.411
217.54
201.828
185.377
168.291
150.676
132.638
114.282
95.715
77.039
58.355
39.763
21.355
3.224
-14.546
-31.872
-48.681
-64.904
-80.478
-95.349
-109.468
-122.795
-135.297
-146.949
-157.732
-167.636
-176.656
-184.794
-192.06
-198.468
-204.04
-208.801
-212.784
-216.024
-218.562
-220.442
-221.71
-222.415
-222.609
-222.34
-221.659
-220.618
-219.266
-217.651
-215.821
-213.819
-211.687
-209.467
-207.192
-204.896
-202.604
-200.339
-198.115
-195.946
-193.836
-191.785
-189.79
-187.84
-185.925
-184.028
-182.13
-180.209
-178.237
-176.187
-174.025
-171.718
-169.228
-166.516
-163.542
-160.269
-156.658
-152.677
-148.294
-143.481
-138.21
-132.459
-126.21
-119.445
-112.152
-104.32
-95.944
-87.027
-77.577
-67.611
-57.152
-46.231
-34.888
-23.171
-11.134
1.169
13.683
26.348
39.105
51.892
64.648
77.313
89.823
102.107
114.089
125.689
136.827
147.428
157.419
166.731
175.298
183.06
189.966
195.982
201.07
205.185
208.273
210.265
211.104
210.766
209.239
206.512
202.599
197.533
191.386
184.298
176.409
167.829
158.634
148.855
138.531
127.73
116.536
105.03
93.27
81.295
69.184
57.087
45.125
33.323
21.58
9.638
-2.77
-15.781
-29.503
-44.076
-59.529
-75.743
-92.392
-108.865
-124.549
-139.048
-151.983
-162.936
-171.806
-178.893
-184.936
-191.047
-198.107
-206.686
-217.467
-231.12
-247.725
-265.613
-281.208
-291.412
-293.889
-288.019
-275.127
-252.608
-215.88
-161.38
-84.233
15.294
131.319
256.984
380.171
486.332
565.444
611.669
626.014
616.492
589.909
549.155
494.413
423.979
338.496
242.552
142.428
44.396
-46.083
-124.587
-187.566
-232.516
-258.487
-266.141
-256.957
-232.433
-194.633
-146.476
-91.757
-34.517
22.537
77.498
128.654
174.115
211.648
240.21
260.5
273.871
281.27
283.571
281.643
276.99
272.221
269.094
268.084
269.192
272.129
276.658
282.757
289.873
296.693
302.304
306.302
308.572
309.427
309.106
307.636
305.253
302.374
299.26
296.054
292.764
289.177
285.11
280.464
275.096
268.879
261.758
253.699
244.712
234.876
224.264
212.91
200.87
188.204
174.959
161.214
147.071
132.575
117.764
102.826
87.973
73.216
58.642
44.353
30.163
16.855
5.187
-5.757
-16.213
-27.93
-43.009
-58.995
-74.232
-86.285
-91.837
-93.729
-94.362
-95.374
-99.502
-104.739
-109.064
-112.025
-112.4
-110.91
-108.487
-104.986
-100.564
-95.206
-88.774
-81.444
-73.371
-64.588
-55.156
-45.156
-34.652
-23.711
-12.411
-0.824
10.974
22.877
34.778
46.58
58.176
69.458
80.322
90.675
100.438
109.531
117.873
125.368
131.912
137.428
141.871
145.208
147.416
148.487
148.439
147.34
145.311
142.475
138.917
134.676
129.751
124.162
117.938
111.119
103.741
95.782
87.204
78.003
68.208
57.84
46.873
35.189
22.575
8.869
-5.972
-21.88
-38.705
-56.302
-74.486
-93.024
-111.599
-129.779
-147.163
-163.445
-178.391
-191.773
-203.299
-212.561
-219.059
-222.406
-222.366
-218.831
-211.789
-201.24
-187.282
-170.135
-150.184
-127.956
-103.907
-78.379
-51.645
-23.972
4.301
32.735
60.838
88.227
114.601
139.72
163.382
185.38
205.591
224.013
240.779
256.108
270.138
282.912
294.42
304.646
313.604
321.355
327.956
333.397
337.662
340.741
342.635
343.37
342.929
341.244
338.194
333.641
327.508
319.771
310.438
299.536
287.098
273.169
257.825
241.182
223.347
204.421
184.5
163.673
142.048
119.757
96.941
73.742
50.293
26.722
3.154
-20.289
-43.49
-66.341
-88.747
-110.625
-131.887
-152.444
-172.212
-191.109
-209.061
-226.003
-241.872
-256.612
-270.177
-282.53
-293.644
-303.501
-312.092
-319.412
-325.465
-330.264
-333.828
-336.182
-337.357
-337.389
-336.323
-334.206
-331.092
-327.039
-322.108
-316.365
-309.876
-302.712
-294.945
-286.648
-277.895
-268.758
-259.311
-249.629
-239.786
-229.852
-219.899
-209.993
-200.202
-190.588
-181.21
-172.125
-163.383
-155.029
-147.106
-139.651
-132.695
-126.267
-120.388
-115.076
-110.341
-106.193
-102.634
-99.663
-97.272
-95.45
-94.183
-93.452
-93.234
-93.504
-94.231
-95.384
-96.928
-98.827
-101.042
-103.533
-106.259
-109.178
-112.246
-115.423
-118.665
-121.931
-125.179
-128.368
-131.46
-134.418
-137.206
-139.793
-142.149
-144.246
-146.064
-147.584
-148.793
-149.679
-150.236
-150.461
-150.353
-149.919
-149.165
-148.103
-146.747
-145.114
-143.224
-141.104
-138.78
-136.282
-133.64
-130.888
-128.061
-125.196
-122.328
-119.491
-116.72
-114.048
-111.512
-109.149
-106.993
-105.076
-103.425
-102.068
-101.026
-100.313
-99.938
-99.897
-100.183
-100.79
-101.709
-102.929
-104.439
-106.225
-108.275
-110.579
-113.125
-115.895
-118.873
-122.037
-125.366
-128.845
-132.453
-136.163
-139.943
-143.75
-147.537
-151.26
-154.855
-158.234
-161.304
-163.958
-166.095
-167.63
-168.45
-168.417
-167.42
-165.368
-162.213
-157.979
-152.681
-146.337
-139.059
-131.019
-122.37
-113.232
-103.601
-93.307
-82.178
-70.091
-56.867
-42.311
-26.488
-9.767
7.19
23.157
36.693
46.633
51.665
51.43
47.328
40.783
33.749
26.407
16.218
3.768
-8.099
-11.513
6.713
53.101
129.419
230.987
342.827
452.027
546.092
613.421
652.048
664.405
656.169
634.68
602.322
556.803
494.587
414.983
320.922
217.965
112.776
9.672
-88.101
-176.393
-251.817
-311.779
-354.692
-381.144
-392.35
-389.036
-372.784
-346.063
-311.898
-273.926
-234.98
-196.605
-160.444
-128.351
-101.655
-81.464
-67.837
-59.674
-56.167
-56.706
-60.118
-64.937
-69.77
-73.161
-74.361
-73.418
-70.373
-65.393
-59.043
-52.116
-45.289
-39.133
-33.929
-29.578
-25.919
-22.78
-19.824
-16.623
-12.914
-8.56
-3.541
1.99
7.875
13.998
20.182
26.241
32.026
37.394
42.271
46.651
50.515
53.848
56.64
58.87
60.547
61.713
62.393
62.606
62.379
61.725
60.673
59.266
57.544
55.547
53.313
50.871
48.256
45.503
42.651
39.735
36.788
33.833
30.902
28.031
25.258
22.622
20.16
17.905
15.893
14.159
12.733
11.643
10.91
10.553
10.588
11.03
11.89
13.178
14.898
17.054
19.643
22.664
26.109
29.964
34.216
38.844
43.825
49.136
54.748
60.632
66.752
73.074
79.559
86.167
92.856
99.581
106.296
112.953
119.506
125.907
132.107
138.061
143.722
149.046
153.992
158.519
162.588
166.166
169.219
171.717
173.634
174.947
175.637
175.686
175.085
173.823
171.899
169.311
166.065
162.169
157.633
152.475
146.714
140.374
133.482
126.069
118.167
109.815
101.053
91.921
82.465
72.731
62.766
52.618
42.338
31.974
21.577
11.196
0.879
-9.324
-19.369
-29.209
-38.802
-48.106
-57.083
-65.698
-73.916
-81.707
-89.045
-95.905
-102.266
-108.111
-113.427
-118.203
-122.433
-126.112
-129.243
-131.828
-133.876
-135.397
-136.406
-136.918
-136.955
-136.538
-135.693
-134.447
-132.829
-130.869
-128.6
-126.055
-123.268
-120.275
-117.11
-113.809
-110.407
-106.938
-103.437
-99.936
-96.467
-93.062
-89.75
-86.557
-83.512
-80.636
-77.953
-75.481
-73.239
-71.241
-69.499
-68.022
-66.819
-65.893
-65.245
-64.876
-64.781
-64.955
-65.39
-66.074
-66.996
-68.139
-69.489
-71.025
-72.729
-74.579
-76.552
-78.626
-80.776
-82.979
-85.209
-87.441
-89.651
-91.814
-93.906
-95.902
-97.78
-99.519
-101.097
-102.495
-103.697
-104.685
-105.447
-105.97
-106.243
-106.26
-106.013
-105.499
-104.716
-103.665
-102.348
-100.771
-98.941
-96.869
-94.565
-92.043
-89.318
-86.409
-83.333
-80.11
-76.76
-73.305
-69.768
-66.172
-62.541
-58.9
-55.274
-51.686
-48.162
-44.724
-41.396
-38.198
-35.149
-32.268
-29.572
-27.076
-24.793
-22.737
-20.917
-19.343
-18.02
-16.955
-16.149
-15.601
-15.309
-15.266
-15.466
-15.898
-16.552
-17.412
-18.464
-19.691
-21.078
-22.608
-24.261
-26.016
-27.849
-29.737
-31.655
-33.58
-35.488
-37.353
-39.154
-40.872
-42.489
-43.991
-45.363
-46.591
-47.662
-48.565
-49.29
-49.83
-50.176
-50.324
-50.272
-50.023
-49.586
-48.969
-48.185
-47.247
-46.175
-44.992
-43.718
-42.369
-40.959
-39.502
-38.015
-36.523
-35.046
-33.599
-32.202
-30.881
-29.662
-28.577
-27.647
-26.876
-26.271
-25.834
-25.567
-25.483
-25.581
-25.852
-26.299
-26.937
-27.795
-28.933
-30.374
-32.101
-34.082
-36.263
-38.593
-41.038
-43.529
-45.955
-48.241
-50.343
-52.268
-54.078
-55.765
-57.259
-58.438
-59.14
-59.269
-58.739
-57.456
-55.401
-52.604
-49.154
-45.305
-41.331
-37.378
-33.739
-30.662
-27.955
-25.303
-22.388
-18.683
-14.609
-11.372
-8.264
-4.063
2.927
16.077
33.94
51.48
64.188
65.342
53.605
35.511
17.73
7.702
9.345
18.066
28.883
40.549
56.124
85.383
137.631
216.641
320.264
437.617
555.518
659.678
735.568
778.496
788.384
770.107
735.334
688.921
632.193
566.376
488.569
399.814
305.278
209.033
116.071
31.507
-41.801
-101.976
-147.292
-177.7
-194.561
-198.837
-191.932
-176.331
-153.935
-126.687
-97.266
-67.121
-36.811
-7.374
20.436
46.154
68.396
86.064
99.317
107.69
111.26
111.656
108.902
102.597
92.574
76.503
55.413
34.159
17.386
11.062
15.84
25.929
35.954
40.388
37.92
32.422
26.494
22.035
19.609
17.713
16.016
14.867
14.322
14.628
15.633
16.896
18.218
19.476
20.534
21.332
21.846
22.09
22.145
22.08
21.935
21.737
21.488
21.194
20.867
20.515
20.16
19.828
19.551
19.358
19.273
19.309
19.473
19.773
20.207
20.779
21.489
22.332
23.317
24.453
25.751
27.227
28.892
30.754
32.825
35.116
37.636
40.391
43.388
46.627
50.112
53.846
57.83
62.067
66.557
71.299
76.291
81.532
87.019
92.747
98.707
104.892
111.29
117.889
124.677
131.64
138.763
146.029
153.42
160.915
168.495
176.134
183.809
191.494
199.159
206.777
214.318
221.753
229.05
236.18
243.113
249.819
256.268
262.431
268.279
273.783
278.915
283.647
287.955
291.813
295.198
298.088
300.465
302.31
303.608
304.345
304.51
304.094
303.09
301.494
299.304
296.52
293.147
289.191
284.659
279.565
273.92
267.743
261.05
253.864
246.207
238.104
229.581
220.668
211.395
201.794
191.897
181.739
171.355
160.78
150.052
139.207
128.282
117.312
106.336
95.388
84.504
73.72
63.068
52.581
42.291
32.227
22.418
12.89
3.667
-5.227
-13.771
-21.948
-29.741
-37.134
-44.118
-50.681
-56.818
-62.522
-67.791
-72.626
-77.028
-81.001
-84.552
-87.688
-90.421
-92.761
-94.722
-96.319
-97.568
-98.487
-99.094
-99.408
-99.45
-99.239
-98.797
-98.144
-97.301
-96.289
-95.129
-93.839
-92.439
-90.948
-89.381
-87.757
-86.088
-84.389
-82.672
-80.948
-79.225
-77.509
-75.808
-74.124
-72.46
-70.815
-69.19
-67.582
-65.986
-64.398
-62.811
-61.218
-59.61
-57.979
-56.314
-54.607
-52.845
-51.021
-49.123
-47.142
-45.07
-42.899
-40.621
-38.23
-35.722
-33.093
-30.342
-27.468
-24.472
-21.358
-18.13
-14.796
-11.364
-7.845
-4.251
-0.596
3.104
6.832
10.57
14.297
17.992
21.634
25.199
28.664
32.005
35.197
38.218
41.044
43.651
46.019
48.126
49.954
51.487
52.708
53.606
54.171
54.396
54.277
53.812
53.003
51.854
50.372
48.569
46.456
44.051
41.372
38.439
35.277
31.912
28.372
24.687
20.887
17.007
13.081
9.144
5.233
1.383
-2.367
-5.981
-9.422
-12.652
-15.637
-18.344
-20.741
-22.8
-24.495
-25.803
-26.705
-27.189
-27.247
-26.871
-26.061
-24.817
-23.146
-21.061
-18.575
-15.707
-12.478
-8.911
-5.035
-0.882
3.508
8.098
12.846
17.713
22.654
27.623
32.572
37.455
42.227
46.842
51.256
55.42
59.287
62.812
65.951
68.67
70.949
72.766
74.107
74.965
75.328
75.191
74.559
73.432
71.811
69.695
67.071
63.931
60.276
56.117
51.476
46.356
40.736
34.6
27.937
20.788
13.247
5.391
-2.722
-11.041
-19.542
-28.1
-36.453
-44.481
-52.198
-59.625
-66.865
-73.764
-79.846
-84.902
-89.02
-92.106
-93.977
-94.286
-92.337
-87.989
-81.81
-74.123
-65.08
-55.074
-44.47
-34.012
-25.137
-18.939
-15.93
-16.685
-21.654
-30.843
-44.236
-61.464
-81.249
-101.788
-120.944
-136.326
-145.524
-146.547
-137.705
-117.217
-83.759
-38.117
17.72
82.059
151.509
224.541
300.113
371.514
432.679
477.308
498.965
499.203
480.827
445.73
396.835
333.944
257.841
171.626
78.571
-16.938
-111.358
-201.558
-283.471
-354.052
-410.991
-452.687
-479.45
-492.029
-491.08
-478.349
-456.564
-428.591
-397.598
-366.409
-336.435
-308.587
-283.582
-261.438
-241.75
-223.937
-206.999
-189.988
-172.667
-155.098
-137.501
-120.323
-103.974
-88.839
-75.382
-63.977
-54.67
-47.291
-41.536
-37.027
-33.396
-30.278
-27.345
-24.311
-21.008
-17.394
-13.457
-9.218
-4.728
-0.047
4.74
9.51
14.153
18.572
22.643
26.248
29.253
31.5
32.887
33.359
32.885
31.469
29.127
25.874
21.76
16.859
11.24
4.973
-1.875
-9.249
-17.069
-25.247
-33.689
-42.299
-50.988
-59.676
-68.284
-76.731
-84.941
-92.842
-100.368
-107.46
-114.055
-120.085
-125.486
-130.195
-134.153
-137.313
-139.626
-141.049
-141.547
-141.093
-139.668
-137.26
-133.864
-129.478
-124.11
-117.771
-110.483
-102.272
-93.172
-83.22
-72.463
-60.951
-48.743
-35.902
-22.493
-8.587
5.742
20.415
35.354
50.476
65.695
80.929
96.091
111.094
125.852
140.28
154.296
167.819
180.771
193.076
204.664
215.469
225.429
234.488
242.596
249.705
255.776
260.775
264.674
267.452
269.091
269.583
268.923
267.116
264.168
260.096
254.919
248.662
241.357
233.038
223.746
213.525
202.422
190.49
177.784
164.36
150.28
135.605
120.4
104.731
88.663
72.264
55.601
38.742
21.754
4.702
-12.346
-29.327
-46.179
-62.839
-79.249
-95.352
-111.094
-126.421
-141.286
-155.641
-169.444
-182.654
-195.235
-207.152
-218.376
-228.878
-238.636
-247.628
-255.837
-263.248
-269.852
-275.64
-280.608
-284.754
-288.08
-290.592
-292.297
-293.205
-293.332
-292.693
-291.309
-289.201
-286.396
-282.922
-278.808
-274.089
-268.799
-262.976
-256.661
-249.893
-242.718
-235.178
-227.32
-219.191
-210.84
-202.314
-193.663
-184.936
-176.184
-167.455
-158.8
-150.267
-141.903
-133.757
-125.874
-118.298
-111.073
-104.24
-97.837
-91.902
-86.469
-81.568
-77.229
-73.477
-70.333
-67.816
-65.941
-64.717
-64.152
-64.249
-65.007
-66.421
-68.482
-71.179
-74.494
-78.409
-82.9
-87.941
-93.503
-99.553
-106.057
-112.976
-120.272
-127.902
-135.825
-143.994
-152.365
-160.891
-169.523
-178.214
-186.916
-195.581
-204.161
-212.61
-220.882
-228.932
-236.72
-244.203
-251.345
-258.108
-264.462
-270.375
-275.82
-280.775
-285.219
-289.134
-292.508
-295.33
-297.595
-299.3
-300.446
-301.035
-301.076
-300.577
-299.552
-298.016
-295.985
-293.48
-290.522
-287.137
-283.351
-279.192
-274.691
-269.879
-264.791
-259.46
-253.922
-248.215
-242.373
-236.436
-230.44
-224.422
-218.421
-212.471
-206.609
-200.868
-195.282
-189.882
-184.697
-179.754
-175.076
-170.686
-166.605
-162.851
-159.44
-156.386
-153.701
-151.398
-149.487
-147.977
-146.875
-146.184
-145.907
-146.043
-146.59
-147.543
-148.893
-150.63
-152.741
-155.215
-158.037
-161.188
-164.647
-168.388
-172.388
-176.624
-181.059
-185.656
-190.375
-195.175
-200.029
-204.918
-209.797
-214.62
-219.374
-224.039
-228.593
-233.014
-237.236
-241.166
-244.772
-248.044
-250.834
-252.97
-254.487
-255.34
-255.464
-255.106
-253.518
-249.976
-245.492
-240.37
-236.482
-236.079
-236.696
-236.69
-233.596
-224.02
-210.933
-196.856
-183.517
-173.77
-165.536
-156.687
-146.685
-134.181
-119.829
-104.496
-87.945
-70.278
-51.433
-31.27
-10.029
12
34.551
57.375
80.381
103.624
127.282
151.445
176.029
200.996
226.495
252.451
278.195
302.495
323.697
340.42
351.848
357.233
355.732
346.889
332.301
315.762
300.48
289.108
282.328
278.41
281.121
296.715
329.087
383.356
457.065
542.568
635.916
729.249
813.578
880.885
920.846
928.477
906.217
860.867
799.678
726.616
642.761
547.024
440.104
326.245
210.08
96.417
-9.75
-105.211
-188.008
-256.259
-309.52
-348.792
-374.727
-388.411
-392.248
-388.138
-377.773
-363.837
-348.09
-331.567
-315.891
-301.952
-289.713
-279.768
-272.713
-268.01
-265.381
-264.357
-263.625
-262.614
-261.245
-258.939
-255.15
-249.874
-243.053
-235.048
-226.82
-218.762
-210.938
-203.512
-196.478
-189.768
-183.351
-176.957
-170.105
-162.55
-154.223
-145.124
-135.394
-125.149
-114.489
-103.579
-92.624
-81.814
-71.308
-61.255
-51.791
-43.026
-35.055
-27.951
-21.764
-16.525
-12.256
-8.946
-6.551
-5.041
-4.376
-4.524
-5.46
-7.139
-9.498
-12.477
-16.008
-20.026
-24.472
-29.279
-34.375
-39.695
-45.178
-50.766
-56.416
-62.074
-67.679
-73.176
-78.506
-83.616
-88.459
-92.987
-97.154
-100.921
-104.258
-107.139
-109.547
-111.469
-112.893
-113.815
-114.236
-114.161
-113.601
-112.574
-111.097
-109.196
-106.902
-104.25
-101.276
-98.022
-94.527
-90.833
-86.985
-83.029
-79.011
-74.979
-70.981
-67.064
-63.278
-59.674
-56.304
-53.221
-50.478
-48.118
-46.189
-44.734
-43.792
-43.399
-43.584
-44.364
-45.757
-47.782
-50.449
-53.771
-57.752
-62.394
-67.694
-73.651
-80.262
-87.521
-95.421
-103.944
-113.08
-122.819
-133.161
-144.12
-155.701
-167.883
-180.633
-193.901
-207.615
-221.69
-236.009
-250.409
-264.718
-278.766
-292.388
-305.451
-317.814
-329.332
-339.844
-349.154
-357.09
-363.521
-368.354
-371.567
-373.211
-373.377
-372.263
-370.185
-367.45
-364.435
-361.519
-358.864
-356.526
-354.435
-352.382
-350.29
-348.236
-346.112
-343.619
-340.737
-337.619
-334.766
-333.07
-332.813
-333.559
-334.741
-335.709
-335.238
-331.684
-322.559
-304.321
-274.185
-230.461
-172.254
-99.827
-14.166
83.209
190.213
304.39
422.453
540.95
656.647
766.071
869.915
972.409
1077.586
1190.712
1312.209
1436.133
1557.068
1669.425
1767.753
1850.37
1915.313
1957.077
1974.482
1969.728
1944.845
1909.465
1872.448
1836.664
1807.55
1785.009
1764.417
1744.838
1722.477
1694.684
1663.901
1631.414
1598.465
1565.907
1531.844
1494.655
1454.269
1411.529
1367.914
1324.367
1280.974
1237.52
1193.947
1150.463
1107.137
1063.613
1019.227
973.469
926.158
877.374
827.344
776.214
724.091
671.179
617.771
564.174
510.664
457.453
404.689
352.559
301.283
251.11
202.321
155.131
109.698
66.147
24.565
-14.974
-52.402
-87.683
-120.816
-151.792
-180.594
-207.205
-231.587
-253.723
-273.612
-291.263
-306.694
-319.923
-330.959
-339.817
-346.513
-351.065
-353.494
-353.819
-352.057
-348.237
-342.398
-334.584
-324.85
-313.253
-299.855
-284.721
-267.924
-249.539
-229.646
-208.325
-185.663
-161.75
-136.682
-110.562
-83.494
-55.588
-26.96
2.274
31.99
62.062
92.364
122.764
153.132
183.336
213.243
242.72
271.632
299.847
327.233
353.659
378.999
403.126
425.92
447.264
467.049
485.174
501.545
516.072
528.673
539.275
547.814
554.235
558.494
560.558
560.408
558.041
553.467
546.714
537.813
526.81
513.76
498.723
481.767
462.966
442.395
420.145
396.315
371.011
344.343
316.43
287.386
257.342
226.434
194.801
162.595
129.966
97.063
64.059
31.14
-1.498
-33.642
-65.11
-95.739
-125.356
-153.776
-180.814
-206.303
-230.152
-252.337
-272.835
-291.642
-308.74
-324.153
-338.059
-350.57
-361.692
-371.34
-379.178
-384.88
-388.376
-389.524
-388.095
-384.314
-378.597
-371.661
-365.024
-359.945
-357.141
-357.526
-361.568
-368.585
-377.449
-386.086
-391.161
-390.041
-380.493
-359.801
-326.218
-279.485
-220.375
-151.595
-77.269
-0.843
73.704
141.228
196.985
236.866
258.074
260.049
243.18
207.523
154.466
87.131
9.625
-73.053
-156.585
-237.89
-313.664
-380.018
-433.845
-473.244
-497.916
-509.153
-508.277
-496.472
-475.841
-449.351
-420.241
-391.59
-365.219
-341.676
-321.334
-304.41
-290.62
-279.284
-269.24
-259.11
-248.293
-236.937
-225.35
-213.969
-203.221
-193.442
-185.116
-178.774
-174.585
-172.406
-171.946
-172.8
-174.612
-177.098
-180.005
-183.129
-186.33
-189.507
-192.597
-195.573
-198.422
-201.147
-203.752
-206.235
-208.616
-210.937
-213.265
-215.675
-218.248
-221.064
-224.154
-227.515
-231.122
-234.93
-238.882
-242.918
-246.953
-250.882
-254.614
-258.066
-261.154
-263.796
-265.897
-267.351
-268.055
-267.91
-266.827
-264.725
-261.533
-257.186
-251.632
-244.827
-236.739
-227.346
-216.632
-204.579
-191.18
-176.432
-160.345
-142.938
-124.238
-104.28
-83.11
-60.785
-37.372
-12.948
12.403
38.59
65.518
93.081
121.171
149.672
178.465
207.428
236.434
265.353
294.052
322.397
350.256
377.493
403.979
429.584
454.182
477.651
499.874
520.739
540.139
557.972
574.145
588.572
601.174
611.882
620.636
627.386
632.09
634.718
635.253
633.684
630.011
624.243
616.399
606.506
594.607
580.75
564.995
547.407
528.062
507.04
484.435
460.341
434.86
408.096
380.155
351.153
321.21
290.454
259.018
227.03
194.613
161.888
128.979
96.008
63.1
30.378
-2.043
-34.047
-65.517
-96.332
-126.369
-155.516
-183.666
-210.74
-236.675
-261.385
-284.758
-306.669
-326.988
-345.635
-362.593
-377.849
-391.352
-403.077
-413.02
-421.232
-427.861
-432.939
-436.278
-437.579
-436.618
-433.267
-427.54
-419.734
-410.076
-398.721
-386.371
-373.307
-358.798
-343.586
-328.842
-316.26
-310.15
-310.025
-310.571
-306.142
-288.748
-257.228
-218.668
-179.403
-145.85
-119.775
-96.888
-74.909
-52.935
-31.011
-10.946
7.118
23.937
39.762
54.982
69.746
84.098
98.199
111.967
124.965
136.767
147.151
156.071
163.593
169.717
174.367
177.494
179.123
179.311
178.093
175.46
171.365
165.775
158.697
150.163
140.223
128.923
116.304
102.413
87.3
71.021
53.64
35.223
15.838
-4.447
-25.56
-47.424
-69.96
-93.087
-116.725
-140.8
-165.242
-189.981
-214.945
-240.061
-265.259
-290.469
-315.625
-340.662
-365.516
-390.124
-414.425
-438.363
-461.883
-484.931
-507.457
-529.413
-550.75
-571.426
-591.397
-610.624
-629.069
-646.692
-663.456
-679.327
-694.268
-708.244
-721.222
-733.169
-744.055
-753.852
-762.531
-770.068
-776.439
-781.621
-785.593
-788.334
-789.826
-790.051
-788.994
-786.641
-782.983
-778.014
-771.732
-764.14
-755.245
-745.055
-733.586
-720.854
-706.88
-691.69
-675.312
-657.78
-639.136
-619.425
-598.702
-577.029
-554.476
-531.12
-507.042
-482.327
-457.062
-431.337
-405.242
-378.866
-352.298
-325.625
-298.938
-272.335
-245.92
-219.799
-194.082
-168.875
-144.281
-120.404
-97.34
-75.182
-54.007
-33.879
-14.863
2.971
19.541
34.752
48.53
60.826
71.605
80.85
88.558
94.738
99.448
102.792
104.877
105.808
105.65
104.41
102.12
98.824
94.574
89.467
83.543
76.784
69.222
60.908
51.88
42.208
31.863
20.662
8.434
-4.994
-19.749
-35.801
-53.142
-71.827
-91.878
-113.233
-135.38
-157.534
-179.085
-199.407
-218.731
-237.254
-253.774
-267.882
-278.15
-283.562
-287.484
-292.114
-300.589
-316.661
-336.9
-357.772
-375.599
-384.316
-383.199
-372.049
-348.581
-312.043
-261.153
-195.346
-117.34
-31.397
58.069
145.468
225.631
294.57
349.551
390.437
415.334
419.824
398.583
345.618
262.932
160.892
51.453
-53.769
-150.145
-239.684
-323.825
-399.712
-460.086
-496.998
-504.518
-484.24
-443.911
-391.203
-334.451
-278.277
-222.835
-168.706
-115.8
-65.109
-19.353
20.188
52.884
79.107
100.764
118.912
134.221
147.923
160.541
172.582
185.05
198.079
211.245
224.371
236.872
247.964
257.464
265.2
270.897
274.648
276.616
276.965
276.122
274.564
272.519
270.122
267.43
264.388
260.964
257.122
252.759
247.74
241.957
235.335
227.818
219.418
210.174
200.113
189.289
177.771
165.635
152.984
139.946
126.628
113.129
99.553
85.996
72.56
59.361
46.511
34.112
22.265
11.058
0.574
-9.107
-17.911
-25.776
-32.652
-38.498
-43.277
-46.949
-49.478
-50.834
-50.997
-49.955
-47.702
-44.237
-39.572
-33.728
-26.734
-18.631
-9.465
0.713
11.846
23.871
36.72
50.318
64.588
79.45
94.818
110.604
126.717
143.065
159.552
176.087
192.576
208.927
225.048
240.853
256.253
271.167
285.514
299.218
312.207
324.415
335.779
346.245
355.763
364.292
371.796
378.249
383.63
387.928
391.138
393.263
394.311
394.298
393.248
391.188
388.152
384.18
379.315
373.608
367.109
359.877
351.969
343.448
334.377
324.82
314.843
304.51
293.887
283.038
272.025
260.91
249.751
238.603
227.518
216.546
205.73
195.11
184.72
174.592
164.75
155.214
145.997
137.111
128.559
120.341
112.452
104.884
97.623
90.653
83.953
77.501
71.27
65.234
59.363
53.627
47.994
42.433
36.914
31.405
25.877
20.303
14.658
8.917
3.06
-2.931
-9.068
-15.363
-21.821
-28.446
-35.233
-42.178
-49.269
-56.491
-63.824
-71.246
-78.729
-86.243
-93.753
-101.224
-108.615
-115.886
-122.993
-129.891
-136.535
-142.878
-148.874
-154.477
-159.642
-164.324
-168.482
-172.074
-175.064
-177.415
-179.095
-180.075
-180.33
-179.84
-178.586
-176.558
-173.746
-170.149
-165.768
-160.61
-154.686
-148.012
-140.61
-132.503
-123.72
-114.295
-104.264
-93.665
-82.542
-70.94
-58.905
-46.489
-33.74
-20.713
-7.459
5.967
19.513
33.124
46.746
60.328
73.815
87.156
100.302
113.202
125.808
138.075
149.959
161.417
172.412
182.906
192.865
202.259
211.057
219.234
226.765
233.628
239.803
245.272
250.02
254.035
257.305
259.823
261.581
262.574
262.799
262.254
260.936
258.845
255.982
252.349
247.95
242.791
236.882
230.233
222.857
214.773
206
196.557
186.469
175.758
164.451
152.577
140.165
127.248
113.864
100.049
85.847
71.303
56.466
41.386
26.115
10.704
-4.792
-20.318
-35.819
-51.236
-66.509
-81.577
-96.374
-110.831
-124.881
-138.456
-151.49
-163.919
-175.683
-186.724
-196.993
-206.448
-215.047
-222.749
-229.517
-235.313
-240.104
-243.858
-246.545
-248.136
-248.611
-247.958
-246.177
-243.279
-239.28
-234.201
-228.07
-220.919
-212.781
-203.7
-193.712
-182.854
-171.173
-158.73
-145.605
-131.91
-117.743
-103.195
-88.357
-73.309
-58.122
-42.866
-27.561
-12.181
3.292
18.879
34.56
50.26
65.917
81.47
96.853
112.018
126.892
141.36
155.369
168.888
181.847
194.18
205.689
216.042
224.92
231.995
236.954
239.546
239.629
237.171
232.338
225.53
217.228
207.9
198.045
188.166
178.379
168.527
158.354
146.983
133.434
117.114
97.151
73.642
48.48
23.287
-0.798
-23.87
-47.662
-71.407
-89.391
-92.285
-71.003
-21.081
53.161
141.084
232.194
316.242
387.334
442.609
477.887
492.718
486.715
459.507
413.075
346.787
261.991
162.634
52.682
-61.421
-174.202
-281.646
-378.851
-461.818
-528.046
-576.251
-606.819
-621.111
-619.989
-604.846
-578.749
-545.446
-508.638
-471.158
-434.742
-400.878
-371.676
-349
-333.142
-323.243
-317.793
-315.317
-314.916
-315.576
-315.477
-312.81
-306.589
-296.49
-282.849
-266.262
-247.027
-225.634
-203.09
-180.251
-157.702
-135.843
-114.674
-94.077
-74.027
-54.309
-34.553
-14.571
5.718
26.3
47.001
67.668
88.152
108.211
127.58
146.029
163.398
179.617
194.659
208.486
221.055
232.325
242.272
250.907
258.23
264.223
268.868
272.148
274.07
274.669
273.984
272.061
268.948
264.689
259.339
252.958
245.604
237.335
228.208
218.276
207.599
196.246
184.288
171.8
158.858
145.536
131.911
118.063
104.062
89.98
75.881
61.825
47.872
34.078
20.496
7.176
-5.834
-18.488
-30.745
-42.565
-53.914
-64.759
-75.075
-84.838
-94.03
-102.637
-110.646
-118.049
-124.839
-131.013
-136.569
-141.508
-145.834
-149.553
-152.673
-155.206
-157.165
-158.563
-159.419
-159.749
-159.573
-158.908
-157.775
-156.192
-154.181
-151.762
-148.957
-145.787
-142.275
-138.445
-134.319
-129.924
-125.282
-120.418
-115.358
-110.126
-104.747
-99.247
-93.65
-87.981
-82.267
-76.532
-70.802
-65.102
-59.457
-53.892
-48.431
-43.097
-37.915
-32.908
-28.097
-23.505
-19.152
-15.059
-11.247
-7.732
-4.534
-1.668
0.849
3.004
4.784
6.178
7.175
7.769
7.951
7.717
7.063
5.987
4.487
2.565
0.222
-2.539
-5.713
-9.294
-13.276
-17.652
-22.413
-27.549
-33.051
-38.908
-45.108
-51.639
-58.487
-65.638
-73.077
-80.79
-88.758
-96.967
-105.397
-114.032
-122.853
-131.842
-140.98
-150.249
-159.629
-169.1
-178.642
-188.234
-197.856
-207.486
-217.103
-226.683
-236.205
-245.646
-254.982
-264.186
-273.231
-282.089
-290.731
-299.125
-307.237
-315.033
-322.478
-329.536
-336.175
-342.36
-348.056
-353.229
-357.847
-361.877
-365.289
-368.053
-370.137
-371.513
-372.154
-372.033
-371.13
-369.424
-366.897
-363.534
-359.322
-354.253
-348.32
-341.52
-333.852
-325.32
-315.933
-305.706
-294.661
-282.825
-270.231
-256.923
-242.951
-228.371
-213.241
-197.622
-181.577
-165.173
-148.479
-131.564
-114.493
-97.331
-80.147
-63.014
-46.017
-29.24
-12.764
3.324
18.938
33.988
48.379
62.027
74.871
86.848
97.897
107.95
116.917
124.729
131.344
136.726
140.864
143.763
145.433
145.94
145.413
143.979
141.779
138.911
135.397
131.276
126.592
121.372
115.695
109.585
103.015
96.035
88.689
80.975
72.894
64.307
54.969
44.752
33.51
21.126
7.765
-6.366
-20.903
-35.18
-48.814
-61.639
-73.37
-83.894
-93.266
-101.454
-108.932
-116.572
-124.345
-131.585
-137.402
-140.61
-140.531
-136.88
-128.577
-113.849
-91.753
-62.479
-27.145
12.532
55.7
102.234
151.199
200.447
247.738
291.773
332.323
370.092
405.307
437.12
465.017
489.59
512.017
533.164
553.305
571.646
587.184
600.181
611.304
621.001
629.692
637.626
645.059
653.124
663.461
676.625
692.374
709.866
727.617
744.582
760.219
773.611
783.501
789.19
790.444
787.674
782.017
774.124
764.034
751.734
737.33
721.069
703.473
684.974
665.541
645.187
624.059
602.461
580.608
558.075
533.738
506.085
474.016
437.09
395.112
347.94
295.753
240.511
186.02
135.421
91.08
53.263
20.323
-4.005
-13.904
-5.818
24.699
74.049
134.484
203.552
274.329
339.801
393.272
421.1
416.432
380.54
318.897
242.738
158.002
63.99
-41.237
-156.653
-272.491
-374.544
-450.229
-497.874
-528.837
-556.382
-591.375
-632.772
-667.903
-686.941
-683.105
-657.198
-617.733
-569.677
-516.471
-460.598
-401.18
-338.553
-274.625
-210.808
-149.323
-93.067
-43.21
0.225
36.83
66.5
89.552
106.256
117.981
127.322
135.86
144.184
152.967
162.484
172.958
184.901
197.855
210.438
221.794
231.501
239.366
245.656
250.571
254.11
256.652
258.878
261.225
263.97
267.11
270.315
273.238
275.532
276.901
277.135
276.114
273.801
270.222
265.471
259.661
252.924
245.329
236.878
227.582
217.464
206.618
195.208
183.437
171.545
159.755
148.266
137.261
126.894
117.289
108.551
100.759
93.965
88.248
83.712
80.455
78.58
78.17
79.285
81.975
86.277
92.21
99.78
108.985
119.816
132.262
146.31
161.943
179.139
197.866
218.078
239.721
262.726
287.016
312.504
339.092
366.679
395.154
424.408
454.324
484.785
515.668
546.849
578.2
609.594
640.898
671.98
702.709
732.954
762.584
791.474
819.499
846.539
872.48
897.214
920.637
942.654
963.175
982.114
999.396
1014.951
1028.715
1040.633
1050.657
1058.747
1064.87
1069.004
1071.133
1071.25
1069.352
1065.448
1059.549
1051.675
1041.853
1030.116
1016.502
1001.056
983.83
964.881
944.27
922.065
898.337
873.162
846.619
818.789
789.757
759.61
728.435
696.323
663.363
629.647
595.266
560.311
524.873
489.042
452.908
416.557
380.078
343.553
307.068
270.701
234.532
198.636
163.088
127.956
93.308
59.208
25.714
-7.117
-39.235
-70.591
-101.142
-130.852
-159.684
-187.61
-214.605
-240.647
-265.719
-289.811
-312.912
-335.019
-356.131
-376.25
-395.383
-413.54
-430.734
-446.98
-462.299
-476.712
-490.243
-502.921
-514.775
-525.838
-536.144
-545.729
-554.632
-562.89
-570.545
-577.639
-584.212
-590.307
-595.966
-601.231
-606.143
-610.743
-615.071
-619.166
-623.066
-626.808
-630.427
-633.958
-637.434
-640.885
-644.343
-647.836
-651.391
-655.035
-658.792
-662.686
-666.737
-670.968
-675.395
-680.037
-684.909
-690.025
-695.397
-701.036
-706.951
-713.148
-719.634
-726.412
-733.486
-740.856
-748.524
-756.487
-764.745
-773.292
-782.126
-791.241
-800.628
-810.28
-820.185
-830.332
-840.707
-851.295
-862.08
-873.045
-884.169
-895.429
-906.802
-918.262
-929.78
-941.324
-952.861
-964.356
-975.771
-987.07
-998.211
-1009.156
-1019.863
-1030.289
-1040.392
-1050.129
-1059.455
-1068.324
-1076.692
-1084.511
-1091.737
-1098.326
-1104.231
-1109.412
-1113.827
-1117.439
-1120.212
-1122.115
-1123.116
-1123.185
-1122.296
-1120.426
-1117.557
-1113.673
-1108.764
-1102.825
-1095.857
-1087.871
-1078.879
-1068.902
-1057.963
-1046.09
-1033.316
-1019.677
-1005.213
-989.966
-973.985
-957.321
-940.032
-922.182
-903.834
-885.061
-865.935
-846.531
-826.93
-807.208
-787.436
-767.684
-748.021
-728.51
-709.217
-690.209
-671.541
-653.27
-635.454
-618.152
-601.42
-585.309
-569.851
-555.066
-540.97
-527.571
-514.88
-502.893
-491.592
-480.966
-471.013
-461.745
-453.196
-445.385
-438.284
-431.851
-426.022
-420.697
-415.783
-411.179
-406.738
-402.331
-397.869
-393.295
-388.596
-383.772
-378.761
-373.426
-367.587
-361.053
-353.672
-345.351
-336.044
-325.798
-314.704
-302.909
-290.637
-278.148
-265.693
-253.339
-240.911
-228.02
-214.218
-199.273
-183.207
-165.951
-147.159
-126.695
-104.904
-82.479
-60.5
-39.871
-20.776
-3.5
10.854
22.525
33.803
46.958
64.965
87.919
111.149
133.517
158.632
194.781
254.676
344.572
461.354
596.318
737.235
872.642
994.333
1094.547
1164.813
1201.998
1207.127
1184.165
1141.265
1081.933
1006.164
916.045
815.223
713.339
623.009
552.86
505.813
477.68
462.234
455.888
458.345
473.167
502.842
545.926
598.879
656.522
714.298
770.174
822.744
870.268
911.18
944.078
968.284
984.41
993.816
997.517
996.748
993.18
988.084
982.728
978.109
974.385
971.218
968.273
964.899
960.136
953.602
945.05
934.264
921.463
906.895
890.775
873.571
855.868
837.99
820.142
802.426
784.754
767.161
749.705
732.374
715.15
697.887
680.443
662.804
645.004
627.108
609.193
591.29
573.422
555.697
538.243
521.171
504.593
488.549
473.069
458.2
443.986
430.536
417.961
406.328
395.705
386.144
377.686
370.391
364.312
359.444
355.775
353.295
351.986
351.853
352.9
355.108
358.456
362.911
368.431
374.974
382.488
390.909
400.167
410.184
420.877
432.172
443.99
456.246
468.854
481.719
494.747
507.843
520.91
533.846
546.548
558.912
570.836
582.222
592.973
602.992
612.186
620.464
627.742
633.936
638.967
642.762
645.249
646.366
646.054
644.262
640.945
636.064
629.59
621.5
611.778
600.419
587.421
572.793
556.548
538.711
519.31
498.384
475.976
452.136
426.921
400.395
372.629
343.697
313.679
282.659
250.725
217.97
184.489
150.38
115.744
80.682
45.298
9.696
-26.019
-61.744
-97.375
-132.811
-167.952
-202.701
-236.962
-270.645
-303.66
-335.924
-367.358
-397.886
-427.438
-455.948
-483.359
-509.615
-534.667
-558.472
-580.988
-602.182
-622.025
-640.492
-657.563
-673.223
-687.461
-700.274
-711.662
-721.632
-730.193
-737.359
-743.148
-747.581
-750.685
-752.488
-753.02
-752.315
-750.408
-747.336
-743.142
-737.868
-731.556
-724.25
-715.996
-706.84
-696.829
-686.011
-674.433
-662.145
-649.198
-635.647
-621.548
-606.961
-591.947
-576.571
-560.899
-545
-528.939
-512.784
-496.597
-480.441
-464.378
-448.468
-432.763
-417.32
-402.196
-387.452
-373.154
-359.367
-346.156
-333.585
-321.719
-310.627
-300.378
-291.03
-282.625
-275.213
-268.838
-263.556
-259.439
-256.528
-254.833
-254.351
-255.059
-256.923
-259.908
-263.929
-268.855
-274.567
-280.942
-287.912
-295.473
-303.597
-312.239
-321.351
-330.85
-340.724
-351.035
-361.804
-373.022
-384.698
-396.81
-409.453
-422.841
-437.107
-452.327
-468.466
-485.323
-502.742
-520.607
-538.726
-556.892
-574.794
-591.98
-608.148
-623.136
-636.739
-648.782
-658.918
-666.586
-671.378
-673.01
-671.294
-666.229
-657.742
-645.671
-630.047
-611.03
-588.879
-564.023
-536.665
-506.771
-474.415
-439.709
-402.963
-364.763
-325.56
-285.68
-245.5
-205.343
-165.653
-127.038
-89.867
-54.306
-20.493
11.557
41.597
69.122
93.772
115.295
133.576
148.724
160.776
169.69
175.593
178.716
179.414
178.214
175.443
171.227
165.714
159.009
151.357
143.193
134.824
126.441
118.212
110.211
102.55
95.396
88.743
82.453
76.323
70.051
63.466
56.533
49.196
41.418
33.13
24.212
14.639
4.462
-6.298
-17.635
-29.579
-42.181
-55.383
-69.048
-83.024
-97.125
-111.189
-125.067
-138.542
-151.398
-163.473
-174.654
-184.915
-194.282
-202.758
-210.313
-216.889
-222.425
-226.884
-230.264
-232.543
-233.729
-233.92
-233.322
-232.323
-231.432
-231.12
-231.641
-233.016
-235.057
-237.382
-239.652
-241.598
-242.789
-242.681
-241.191
-238.816
-236.494
-235.765
-237.977
-243.654
-253.498
-267.631
-284.43
-302.012
-317.816
-330.505
-341.511
-350.251
-353.359
-342.919
-307.672
-242.519
-148.482
-32.085
94.748
222.655
342.787
444.214
519.488
564.004
577.722
567.201
538.605
495.154
438.674
369.251
288.712
201.824
113.543
29.21
-46.233
-109.241
-157.448
-190.421
-209.364
-216.209
-212.663
-200.64
-182.864
-162.509
-142.905
-126.195
-112.98
-103.213
-96.753
-93.354
-92.459
-92.966
-93.28
-92.344
-89.929
-86.214
-81.703
-76.952
-72.372
-68.482
-65.917
-65.02
-65.85
-68.244
-71.77
-75.923
-80.288
-84.542
-88.468
-91.974
-95.013
-97.54
-99.525
-100.93
-101.732
-101.909
-101.424
-100.238
-98.326
-95.718
-92.512
-88.86
-84.926
-80.81
-76.561
-72.201
-67.736
-63.171
-58.503
-53.706
-48.733
-43.561
-38.186
-32.611
-26.846
-20.88
-14.682
-8.218
-1.448
5.659
13.131
20.99
29.256
37.943
47.055
56.59
66.537
76.891
87.652
98.824
110.412
122.42
134.848
147.699
160.973
174.665
188.765
203.259
218.127
233.349
248.902
264.759
280.892
297.272
313.867
330.642
347.562
364.586
381.675
398.786
415.874
432.893
449.794
466.529
483.049
499.307
515.251
530.832
545.994
560.685
574.848
588.421
601.341
613.537
624.94
635.485
645.106
653.738
661.321
667.797
673.116
677.237
680.115
681.706
681.969
680.859
678.343
674.386
668.955
662.021
653.558
643.542
631.958
618.807
604.078
587.763
569.849
550.312
529.157
506.423
482.156
456.424
429.317
400.943
371.452
341.035
309.86
278.088
245.862
213.298
180.549
147.762
115.066
82.607
50.482
18.728
-12.614
-43.53
-74.081
-104.316
-134.345
-164.335
-194.35
-224.412
-254.505
-284.542
-314.47
-344.19
-373.513
-402.23
-430.063
-456.644
-481.612
-504.546
-524.894
-542.172
-555.892
-565.546
-570.82
-571.436
-567.143
-557.796
-543.227
-523.346
-498.202
-467.882
-432.563
-392.552
-348.189
-299.941
-248.451
-194.247
-137.81
-79.595
-19.862
41.062
102.789
164.99
227.257
289.188
350.422
410.535
469.156
526.043
580.988
633.927
684.92
733.873
780.62
824.924
866.389
904.746
939.822
971.423
999.481
1024.002
1045.057
1062.886
1077.713
1089.646
1098.764
1105.041
1108.399
1108.893
1106.632
1101.775
1094.606
1085.331
1074.109
1061.135
1046.511
1030.271
1012.381
992.671
970.991
947.303
921.613
894.003
864.603
833.492
800.768
766.551
730.909
693.938
655.756
616.454
576.183
535.144
493.572
451.772
410.047
368.644
327.789
287.682
248.496
210.405
173.559
138.073
104.071
71.681
41.021
12.22
-14.618
-39.416
-62.11
-82.654
-101.02
-117.175
-131.096
-142.77
-152.188
-159.345
-164.249
-166.908
-167.345
-165.603
-161.746
-155.849
-148.006
-138.32
-126.904
-113.884
-99.393
-83.571
-66.561
-48.513
-29.576
-9.905
10.339
30.993
51.886
72.849
93.71
114.305
134.466
154.034
172.852
190.766
207.634
223.328
237.713
250.653
262.01
271.632
279.395
285.216
289.036
290.82
290.57
288.309
284.096
278.043
270.248
260.799
249.766
237.171
223.057
207.51
190.646
172.625
153.593
133.625
112.772
91.09
68.581
45.215
20.895
-4.595
-31.434
-59.676
-89.267
-120.024
-151.699
-184.111
-217.124
-250.589
-284.333
-318.083
-351.499
-384.308
-416.23
-446.867
-475.722
-502.108
-525.301
-544.896
-560.73
-572.737
-580.947
-585.187
-585.018
-580.121
-570.303
-555.332
-535.232
-510.182
-480.352
-446.8
-411.329
-375.843
-342.668
-312.814
-285.25
-259.059
-232.864
-206.948
-184.532
-165.676
-147.8
-124.206
-82.891
-17.067
75.423
190.433
314.214
433.459
533.973
604.351
643.266
653.492
642.655
618.901
584.024
536.892
475.323
398.995
311.278
217.747
124.452
36.129
-42.98
-109.309
-161.981
-201.105
-226.327
-239.009
-238.77
-225.476
-204.93
-182.012
-162.092
-150.555
-144.801
-142.249
-141.219
-138.324
-134.803
-131.708
-128.142
-124.689
-120.7
-115.53
-109.791
-103.827
-98.093
-93.278
-89.859
-87.969
-87.549
-88.354
-89.906
-91.829
-93.85
-95.631
-96.919
-97.586
-97.493
-96.571
-94.851
-92.326
-89.012
-84.975
-80.247
-74.889
-69.002
-62.695
-56.111
-49.407
-42.738
-36.269
-30.133
-24.425
-19.227
-14.601
-10.587
-7.226
-4.536
-2.513
-1.164
-0.5
-0.522
-1.23
-2.612
-4.639
-7.281
-10.501
-14.263
-18.533
-23.273
-28.448
-34.021
-39.955
-46.212
-52.76
-59.555
-66.55
-73.692
-80.929
-88.206
-95.47
-102.668
-109.741
-116.637
-123.306
-129.7
-135.774
-141.485
-146.792
-151.656
-156.041
-159.916
-163.252
-166.023
-168.21
-169.794
-170.764
-171.113
-170.841
-169.95
-168.449
-166.348
-163.665
-160.421
-156.64
-152.353
-147.591
-142.393
-136.797
-130.848
-124.593
-118.081
-111.363
-104.492
-97.523
-90.511
-83.511
-76.577
-69.765
-63.127
-56.718
-50.588
-44.788
-39.365
-34.365
-29.833
-25.807
-22.326
-19.422
-17.126
-15.463
-14.453
-14.114
-14.458
-15.493
-17.223
-19.646
-22.757
-26.545
-30.996
-36.091
-41.807
-48.117
-54.99
-62.393
-70.287
-78.633
-87.387
-96.505
-105.939
-115.64
-125.557
-135.64
-145.835
-156.089
-166.35
-176.564
-186.678
-196.641
-206.402
-215.911
-225.123
-233.991
-242.473
-250.529
-258.123
-265.22
-271.789
-277.805
-283.243
-288.084
-292.311
-295.912
-298.879
-301.206
-302.893
-303.94
-304.355
-304.145
-303.323
-301.904
-299.906
-297.348
-294.255
-290.652
-286.565
-282.025
-277.061
-271.706
-265.993
-259.958
-253.633
-247.056
-240.26
-233.281
-226.153
-218.91
-211.583
-204.204
-196.803
-189.407
-182.043
-174.736
-167.507
-160.377
-153.366
-146.487
-139.757
-133.186
-126.784
-120.559
-114.517
-108.661
-102.994
-97.517
-92.228
-87.125
-82.204
-77.46
-72.888
-68.48
-64.228
-60.125
-56.16
-52.325
-48.611
-45.01
-41.514
-38.116
-34.809
-31.589
-28.451
-25.392
-22.41
-19.505
-16.675
-13.923
-11.252
-8.666
-6.172
-3.777
-1.489
0.683
2.727
4.633
6.392
7.991
9.419
10.665
11.715
12.559
13.182
13.572
13.715
13.601
13.216
12.551
11.597
10.347
8.796
6.942
4.782
2.318
-0.447
-3.51
-6.864
-10.505
-14.424
-18.61
-23.048
-27.724
-32.619
-37.714
-42.985
-48.41
-53.965
-59.628
-65.376
-71.186
-77.035
-82.9
-88.755
-94.574
-100.331
-105.996
-111.542
-116.938
-122.16
-127.181
-131.981
-136.538
-140.838
-144.866
-148.611
-152.067
-155.226
-158.076
-160.608
-162.812
-164.678
-166.197
-167.361
-168.159
-168.588
-168.646
-168.338
-167.676
-166.666
-165.317
-163.63
-161.612
-159.27
-156.617
-153.657
-150.391
-146.829
-142.997
-138.947
-134.749
-130.461
-126.125
-121.764
-117.385
-112.972
-108.483
-103.857
-99.011
-93.869
-88.385
-82.565
-76.458
-70.124
-63.602
-56.854
-49.789
-42.323
-34.392
-25.975
-17.082
-7.793
1.695
11.089
19.995
27.977
34.754
40.257
44.573
48.061
51.162
54.118
57.193
60.694
64.589
68.673
72.354
74.284
73.119
67.717
57.907
45.023
30.442
15.496
-1.101
-23.239
-51.315
-82.247
-106.426
-108.205
-78.629
-15.79
75.172
179.975
286.789
386.363
468.138
526.38
557.863
562.036
544.823
512.295
467.417
410.996
341.799
260.218
169.546
74.84
-18.184
-105.309
-183.04
-248.351
-301.131
-341.997
-370.593
-388.328
-394.809
-389.597
-378.217
-365.135
-354.572
-350.908
-351.018
-351.771
-351.03
-345.199
-335.247
-322.179
-305.911
-287.872
-267.847
-245.614
-222.069
-197.685
-173.253
-149.748
-127.525
-106.678
-87.249
-69.049
-51.865
-35.632
-20.231
-5.497
8.706
22.591
36.322
49.956
63.559
77.179
90.835
104.557
118.317
132.011
145.533
158.759
171.546
183.791
195.376
206.16
216.004
224.74
232.238
238.419
243.223
246.605
248.542
249.01
248.024
245.638
241.901
236.864
230.585
223.115
214.523
204.898
194.331
182.919
170.759
157.94
144.552
130.689
116.44
101.894
87.135
72.241
57.292
42.376
27.578
12.984
-1.325
-15.276
-28.795
-41.814
-54.27
-66.109
-77.283
-87.752
-97.481
-106.441
-114.607
-121.963
-128.499
-134.212
-139.105
-143.185
-146.469
-148.978
-150.738
-151.783
-152.146
-151.869
-150.992
-149.561
-147.625
-145.235
-142.441
-139.296
-135.855
-132.172
-128.301
-124.295
-120.206
-116.084
-111.977
-107.931
-103.989
-100.19
-96.57
-93.162
-89.992
-87.088
-84.468
-82.151
-80.15
-78.472
-77.125
-76.111
-75.427
-75.069
-75.03
-75.298
-75.86
-76.7
-77.801
-79.143
-80.704
-82.462
-84.394
-86.476
-88.685
-90.996
-93.385
-95.831
-98.312
-100.806
-103.295
-105.762
-108.19
-110.565
-112.876
-115.112
-117.266
-119.333
-121.309
-123.193
-124.987
-126.695
-128.322
-129.874
-131.361
-132.791
-134.178
-135.533
-136.869
-138.202
-139.547
-140.919
-142.335
-143.812
-145.366
-147.013
-148.768
-150.648
-152.666
-154.836
-157.169
-159.677
-162.37
-165.254
-168.337
-171.624
-175.117
-178.817
-182.721
-186.825
-191.123
-195.606
-200.262
-205.076
-210.032
-215.114
-220.302
-225.578
-230.919
-236.305
-241.714
-247.122
-252.506
-257.842
-263.107
-268.274
-273.32
-278.217
-282.941
-287.468
-291.773
-295.829
-299.615
-303.107
-306.283
-309.125
-311.611
-313.724
-315.45
-316.778
-317.7
-318.211
-318.308
-317.997
-317.285
-316.19
-314.728
-312.916
-310.774
-308.325
-305.59
-302.591
-299.347
-295.875
-292.195
-288.332
-284.312
-280.169
-275.939
-271.659
-267.369
-263.113
-258.936
-254.888
-251.01
-247.335
-243.9
-240.746
-237.922
-235.488
-233.482
-231.909
-230.764
-230.03
-229.671
-229.633
-229.832
-230.149
-230.478
-230.727
-230.818
-230.702
-230.333
-229.665
-228.652
-227.228
-225.379
-223.145
-220.59
-217.794
-214.868
-211.927
-209.128
-206.688
-204.77
-203.456
-202.802
-202.804
-203.419
-204.577
-206.189
-208.148
-210.284
-212.372
-214.096
-215.086
-214.956
-213.313
-209.754
-203.811
-195.082
-183.281
-168.163
-149.538
-127.283
-101.31
-71.524
-37.902
-0.484
40.66
85.25
132.875
183.11
235.48
289.493
344.586
400.165
455.685
510.637
564.511
616.824
667.058
714.582
758.836
799.296
835.441
867.002
893.845
915.837
932.945
945.193
952.701
955.747
954.636
949.606
940.935
928.909
913.917
896.524
877.223
856.457
834.642
812.04
788.89
765.493
742.056
718.678
695.336
671.796
647.814
623.253
597.972
571.796
544.42
515.572
485.239
453.672
421.389
388.881
356.372
324.123
292.56
261.796
231.735
202.053
171.838
140.423
107.766
73.614
37.789
1.029
-35.631
-70.48
-100.669
-124.045
-139.189
-143.866
-136.912
-118.323
-87.244
-45.292
6.005
66.109
129.776
191.439
244.044
279.805
298.156
300.116
287.427
262.564
223.313
169.03
102.299
26.247
-53.403
-131.734
-205.438
-270.211
-322.023
-357.98
-376.538
-378.125
-364.604
-337.907
-300.46
-255.708
-207.521
-159.753
-115.174
-75.072
-39.801
-9.424
16.408
38.644
58.59
77.861
97.467
117.468
137.589
157.41
176.446
194.243
210.329
224.114
235.202
243.643
249.827
254.168
257.015
258.941
259.481
258.007
255.692
252.991
251.683
254.839
260.571
266.171
268.763
262.971
249.712
234.039
219.34
210.993
210.117
211.528
212.239
209.219
200.434
188.983
176.812
164.596
153.638
143.084
132.191
121.307
110.331
99.402
88.813
78.525
68.52
58.902
49.726
41.019
32.848
25.271
18.322
12.046
6.477
1.625
-2.494
-5.855
-8.442
-10.244
-11.253
-11.468
-10.888
-9.518
-7.37
-4.461
-0.812
3.551
8.603
14.316
20.659
27.6
35.106
43.143
51.675
60.664
70.071
79.855
89.975
100.387
111.049
121.918
132.951
144.105
155.34
166.613
177.885
189.112
200.255
211.272
222.122
232.766
243.164
253.275
263.063
272.488
281.517
290.114
298.246
305.879
312.982
319.523
325.473
330.8
335.476
339.474
342.766
345.327
347.133
348.163
348.396
347.816
346.407
344.155
341.05
337.084
332.253
326.555
319.991
312.567
304.292
295.177
285.24
274.501
262.984
250.718
237.734
224.07
209.766
194.866
179.419
163.477
147.097
130.338
113.265
95.945
78.447
60.845
43.214
25.63
8.172
-9.079
-26.044
-42.643
-58.795
-74.421
-89.445
-103.789
-117.382
-130.152
-142.033
-152.962
-162.88
-171.733
-179.472
-186.054
-191.441
-195.601
-198.508
-200.143
-200.495
-199.558
-197.332
-193.827
-189.059
-183.051
-175.832
-167.438
-157.915
-147.311
-135.683
-123.092
-109.606
-95.297
-80.241
-64.52
-48.216
-31.417
-14.211
3.31
21.055
38.931
56.847
74.711
92.432
109.921
127.091
143.858
160.139
175.857
190.938
205.309
218.905
231.665
243.531
254.453
264.383
273.282
281.114
287.849
293.463
297.939
301.263
303.429
304.435
304.285
302.986
300.553
297.004
292.358
286.643
279.886
272.12
263.378
253.699
243.12
231.684
219.434
206.415
192.674
178.259
163.217
147.598
131.451
114.826
97.774
80.345
62.591
44.562
26.309
7.885
-10.66
-29.274
-47.907
-66.51
-85.034
-103.43
-121.652
-139.652
-157.385
-174.806
-191.868
-208.527
-224.735
-240.45
-255.628
-270.224
-284.196
-297.501
-310.101
-321.957
-333.033
-343.296
-352.71
-361.241
-368.86
-375.536
-381.246
-385.965
-389.674
-392.356
-394.002
-394.607
-394.168
-392.689
-390.174
-386.631
-382.073
-376.517
-369.982
-362.492
-354.073
-344.758
-334.587
-323.605
-311.86
-299.406
-286.298
-272.599
-258.377
-243.698
-228.626
-213.224
-197.553
-181.682
-165.682
-149.623
-133.566
-117.579
-101.732
-86.097
-70.751
-55.758
-41.166
-27.021
-13.369
-0.249
12.29
24.213
35.504
46.128
56.051
65.218
73.554
81.016
87.607
93.345
98.274
102.438
105.868
108.634
110.847
112.578
113.88
114.762
115.177
115.145
114.741
114.075
113.312
112.574
111.934
111.432
111.049
110.711
110.31
109.646
108.471
106.594
103.838
100.243
96.083
91.647
87.342
83.477
80.07
77.298
75.47
74.429
73.822
73.017
70.755
66.278
59.519
50.063
37.67
23.01
6.99
-8.5
-20.182
-25.577
-22.796
-9.459
15.954
53.682
103.352
162.75
227.852
295.288
361.46
421.565
471.367
507.166
525.664
525.602
507.063
469.6
413.586
341.297
255.796
161.18
62.261
-37.319
-134.145
-223.709
-301.607
-364.594
-410.762
-439.803
-452.755
-450.455
-434.014
-406.105
-370.472
-331.152
-291.579
-254.277
-220.708
-192.163
-170.069
-154.7
-145.008
-139.17
-135.184
-131.232
-126.306
-119.716
-110.378
-97.801
-82.324
-64.663
-45.983
-27.569
-10.016
6.407
21.248
34.403
46.048
56.355
65.835
75.121
84.447
93.905
103.573
113.34
123.122
132.892
142.475
151.674
160.375
168.453
175.827
182.445
188.185
192.945
196.664
199.281
200.78
201.165
200.435
198.614
195.754
191.894
187.078
181.36
174.778
167.387
159.257
150.455
141.066
131.172
120.852
110.186
99.253
88.126
76.877
65.572
54.271
43.04
31.948
21.064
10.456
0.192
-9.669
-19.066
-27.942
-36.245
-43.931
-50.959
-57.296
-62.912
-67.777
-71.87
-75.173
-77.671
-79.356
-80.224
-80.274
-79.511
-77.946
-75.593
-72.471
-68.604
-64.018
-58.742
-52.808
-46.254
-39.118
-31.44
-23.265
-14.637
-5.604
3.785
13.48
23.429
33.581
43.883
54.282
64.726
75.164
85.543
95.814
105.927
115.835
125.49
134.847
143.862
152.492
160.695
168.433
175.669
182.366
188.494
194.023
198.924
203.173
206.748
209.63
211.803
213.252
213.967
213.94
213.164
211.638
209.362
206.34
202.577
198.085
192.874
186.962
180.365
173.105
165.206
156.695
147.601
137.955
127.793
117.152
106.07
94.59
82.755
70.612
58.209
45.593
32.816
19.929
6.983
-5.97
-18.876
-31.683
-44.339
-56.793
-68.991
-80.885
-92.425
-103.563
-114.254
-124.455
-134.122
-143.22
-151.711
-159.564
-166.749
-173.241
-179.018
-184.062
-188.36
-191.902
-194.684
-196.704
-197.966
-198.481
-198.26
-197.323
-195.692
-193.393
-190.456
-186.918
-182.815
-178.189
-173.085
-167.551
-161.637
-155.395
-148.881
-142.151
-135.261
-128.271
-121.24
-114.225
-107.285
-100.478
-93.857
-87.478
-81.392
-75.649
-70.295
-65.373
-60.924
-56.982
-53.581
-50.747
-48.503
-46.867
-45.851
-45.463
-45.707
-46.579
-48.072
-50.174
-52.869
-56.135
-59.945
-64.269
-69.073
-74.319
-79.964
-85.963
-92.27
-98.833
-105.601
-112.52
-119.537
-126.595
-133.642
-140.621
-147.48
-154.166
-160.627
-166.814
-172.679
-178.177
-183.266
-187.906
-192.061
-195.698
-198.789
-201.309
-203.237
-204.556
-205.254
-205.322
-204.755
-203.555
-201.727
-199.277
-196.22
-192.571
-188.353
-183.59
-178.31
-172.544
-166.324
-159.687
-152.671
-145.315
-137.661
-129.749
-121.622
-113.322
-104.894
-96.382
-87.829
-79.28
-70.778
-62.37
-54.101
-46.015
-38.154
-30.562
-23.278
-16.345
-9.801
-3.682
1.976
7.142
11.785
15.875
19.384
22.288
24.567
26.203
27.179
27.479
27.093
26.013
24.238
21.765
18.595
14.727
10.163
4.91
-1.02
-7.615
-14.855
-22.716
-31.167
-40.166
-49.666
-59.622
-69.984
-80.703
-91.732
-103.021
-114.52
-126.187
-137.971
-149.821
-161.683
-173.504
-185.231
-196.817
-208.22
-219.389
-230.273
-240.812
-250.946
-260.619
-269.752
-278.249
-285.993
-292.852
-298.723
-303.518
-307.144
-309.486
-310.417
-309.834
-307.706
-304.066
-298.965
-292.468
-284.598
-275.455
-265.297
-254.288
-242.502
-229.882
-216.059
-200.727
-183.876
-165.39
-145.061
-123.18
-100.253
-77.208
-55.871
-37.656
-23.3
-13.707
-9.349
-9.483
-12.747
-16.629
-17.13
-11.127
3.677
30.095
70.076
124.001
191.253
269.017
352.493
437.802
521.236
597.658
662.151
710.237
737.876
743.769
728.245
690.707
631.461
552.589
457.876
353.821
246.218
138.14
31.374
-73.231
-170.901
-253.513
-314.418
-347.985
-355.459
-344.079
-320.382
-292.179
-264.352
-237.564
-213.183
-191.318
-172.376
-158.782
-151.773
-151.593
-157.332
-166.236
-176.019
-185.796
-195.181
-204.142
-212.468
-219.536
-225.377
-230.906
-237.17
-244.75
-253.625
-263.409
-273.796
-284.741
-296.166
-307.693
-318.705
-328.725
-337.56
-345.194
-351.712
-357.129
-361.378
-364.474
-366.536
-367.69
-368.068
-367.775
-366.87
-365.45
-363.601
-361.373
-358.815
-355.946
-352.751
-349.224
-345.342
-341.062
-336.367
-331.253
-325.705
-319.724
-313.303
-306.422
-299.071
-291.239
-282.918
-274.111
-264.822
-255.061
-244.845
-234.201
-223.162
-211.77
-200.061
-188.067
-175.824
-163.365
-150.727
-137.953
-125.083
-112.156
-99.214
-86.307
-73.482
-60.791
-48.282
-36.002
-23.997
-12.312
-0.989
9.931
20.409
30.41
39.901
48.853
57.238
65.029
72.206
78.752
84.655
89.904
94.495
98.426
101.701
104.326
106.313
107.677
108.435
108.61
108.226
107.311
105.898
104.02
101.713
99.017
95.973
92.624
89.014
85.185
81.184
77.052
72.835
68.572
64.305
60.073
55.911
51.855
47.936
44.184
40.625
37.281
34.174
31.318
28.726
26.408
24.368
22.609
21.129
19.922
18.98
18.291
17.84
17.609
17.578
17.724
18.022
18.447
18.969
19.561
20.193
20.835
21.458
22.034
22.534
22.931
23.2
23.318
23.262
23.014
22.555
21.874
20.957
19.796
18.388
16.728
14.819
12.665
10.274
7.656
4.825
1.798
-1.404
-4.761
-8.247
-11.835
-15.495
-19.196
-22.908
-26.595
-30.224
-33.76
-37.17
-40.418
-43.471
-46.296
-48.863
-51.141
-53.102
-54.721
-55.973
-56.839
-57.299
-57.34
-56.948
-56.116
-54.838
-53.112
-50.941
-48.329
-45.285
-41.822
-37.955
-33.703
-29.089
-24.136
-18.875
-13.334
-7.548
-1.551
4.618
10.921
17.318
23.768
30.229
36.658
43.015
49.256
55.341
61.229
66.881
72.259
77.327
82.05
86.397
90.338
93.845
96.894
99.465
101.539
103.101
104.139
104.646
104.618
104.053
102.954
101.329
99.187
96.542
93.412
89.817
85.781
81.333
76.501
71.32
65.825
60.054
54.046
47.843
41.488
35.027
28.505
21.969
15.466
9.044
2.752
-3.361
-9.248
-14.86
-20.151
-25.076
-29.591
-33.652
-37.22
-40.257
-42.728
-44.599
-45.84
-46.425
-46.33
-45.537
-44.028
-41.793
-38.823
-35.113
-30.665
-25.482
-19.574
-12.951
-5.628
2.374
11.034
20.325
30.215
40.672
51.658
63.13
75.042
87.344
99.981
112.899
126.039
139.34
152.74
166.175
179.58
192.89
206.04
218.964
231.593
243.862
255.704
267.058
277.862
288.055
297.578
306.376
314.4
321.606
327.953
333.397
337.897
341.425
343.96
345.483
345.988
345.456
343.873
341.255
337.631
333.004
327.38
320.776
313.198
304.705
295.378
285.241
274.298
262.692
250.588
237.96
224.862
211.37
197.268
183.314
170.252
157.166
143.834
128.535
109.192
88.283
67.511
49.362
37.215
28.318
20.347
11.746
-0.103
-13.073
-25.064
-35.554
-43.314
-49.14
-53.988
-57.82
-60.988
-63.507
-65.203
-66.092
-65.949
-64.571
-62.019
-58.198
-52.941
-46.546
-39.566
-33.024
-28.453
-26.822
-28.461
-33.772
-43.132
-56.062
-71.32
-86.642
-98.695
-104.85
-103.489
-92.877
-71.057
-37.038
9.022
65.531
129.006
196.168
264.636
331.219
391.567
441.442
476.979
495.401
496.125
478.704
442.025
386.317
313.691
227.574
132.709
33.955
-65.157
-160.755
-247.928
-322.266
-380.418
-420.723
-443.45
-449.689
-440.296
-416.808
-382.057
-339.61
-293.473
-246.768
-201.628
-159.884
-123.134
-92.679
-69.008
-51.572
-38.924
-29.813
-22.995
-16.91
-10.395
-2.307
8.157
20.975
35.665
51.747
68.484
84.849
100.211
114.015
125.938
136.192
145.045
152.774
159.804
166.586
173.394
180.414
187.702
195.118
202.547
209.862
216.908
223.566
229.727
235.301
240.21
244.371
247.724
250.228
251.856
252.593
252.435
251.388
249.483
246.779
243.323
239.164
234.34
228.883
222.836
216.254
209.188
201.699
193.84
185.659
177.208
168.54
159.703
150.739
141.685
132.567
123.421
114.285
105.196
96.193
87.311
78.582
70.037
61.709
53.626
45.81
38.282
31.057
24.153
17.586
11.371
5.519
0.043
-5.048
-9.746
-14.042
-17.932
-21.413
-24.483
-27.141
-29.387
-31.222
-32.647
-33.665
-34.28
-34.497
-34.321
-33.758
-32.815
-31.501
-29.826
-27.8
-25.433
-22.737
-19.725
-16.411
-12.808
-8.932
-4.798
-0.423
4.177
8.982
13.973
19.129
24.428
29.849
35.367
40.957
46.594
52.252
57.902
63.519
69.073
74.535
79.877
85.069
90.081
94.883
99.447
103.744
107.745
111.423
114.75
117.702
120.252
122.379
124.059
125.273
126.004
126.233
125.949
125.138
123.791
121.902
119.466
116.48
112.947
108.868
104.25
99.101
93.433
87.257
80.591
73.451
65.859
57.836
49.405
40.594
31.428
21.936
12.149
2.095
-8.193
-18.683
-29.345
-40.144
-51.051
-62.032
