Name,John Breau
Date of Birth,"Dec 20, 1971"
Recorded Date,2024-06-05 15:02:41 -0500
Classification,Sinus Rhythm
Symptoms,
Software Version,1.90
Device,"Watch6,3"
Sample Rate,512 hertz


Lead,Lead I
Unit,µV

-86.472
-86.306
-86.295
-86.414
-86.617
-86.857
-87.091
-87.283
-87.407
-87.419
-87.259
-86.861
-86.146
-85.047
-83.533
-81.589
-79.196
-76.372
-73.143
-69.547
-65.711
-61.784
-57.918
-54.307
-51.125
-48.528
-46.761
-46.141
-46.852
-48.89
-52.005
-55.666
-59.387
-62.849
-65.644
-67.201
-67.228
-65.969
-64.298
-63.778
-65.86
-71.213
-80.243
-93.407
-110.346
-129.529
-148.248
-162.364
-167.609
-161.086
-140.492
-103.468
-48.939
22.48
108.447
204.158
303.777
402.555
495.99
578.75
646.058
694.045
720.054
724.016
707.286
670.55
614.498
541.254
453.875
356.385
253.208
147.52
42.131
-59.079
-151.421
-230.754
-294.483
-341.972
-373.888
-390.973
-394.531
-387.04
-372.443
-355.272
-338.751
-324.511
-313.164
-304.825
-299.322
-296.077
-293.528
-289.545
-282.93
-273.374
-261.143
-246.951
-231.387
-214.952
-198.486
-182.974
-169.02
-156.914
-146.698
-138.204
-131.364
-126.131
-122.355
-119.834
-118.336
-117.661
-117.65
-118.167
-119.094
-120.315
-121.722
-123.245
-124.835
-126.429
-127.943
-129.256
-130.216
-130.723
-130.716
-130.155
-129.056
-127.437
-125.33
-122.804
-119.917
-116.71
-113.223
-109.472
-105.458
-101.212
-96.78
-92.232
-87.671
-83.168
-78.764
-74.494
-70.365
-66.376
-62.522
-58.771
-55.081
-51.422
-47.768
-44.105
-40.432
-36.73
-32.976
-29.139
-25.175
-21.056
-16.765
-12.287
-7.618
-2.758
2.288
7.501
12.853
18.321
23.884
29.522
35.22
40.957
46.709
52.451
58.155
63.794
69.343
74.773
80.056
85.168
90.081
94.776
99.231
103.428
107.346
110.967
114.272
117.245
119.871
122.139
124.035
125.553
126.684
127.426
127.776
127.736
127.311
126.505
125.319
123.758
121.829
119.539
116.912
113.96
110.685
107.113
103.285
99.237
95.016
90.654
86.12
81.423
76.62
71.692
66.587
61.281
55.703
49.849
43.899
37.937
31.89
25.941
20.517
15.654
11.279
7.528
3.763
0.679
1.137
4.518
8.298
8.778
-3.008
-27.67
-55.755
-78.975
-83.215
-64.209
-36.443
-10.675
0.335
-10.397
-30.175
-50.087
-64.011
-66.289
-63.476
-60.413
-57.762
-57.717
-58.595
-58.735
-58.87
-58.932
-58.958
-59.28
-59.716
-60.088
-60.436
-60.736
-60.896
-60.904
-60.806
-60.622
-60.382
-60.123
-59.832
-59.499
-59.141
-58.763
-58.362
-57.941
-57.497
-57.025
-56.531
-56.017
-55.482
-54.928
-54.355
-53.763
-53.152
-52.522
-51.875
-51.211
-50.53
-49.832
-49.118
-48.39
-47.649
-46.895
-46.13
-45.356
-44.574
-43.786
-42.993
-42.197
-41.397
-40.595
-39.79
-38.984
-38.176
-37.367
-36.558
-35.748
-34.939
-34.133
-33.329
-32.53
-31.735
-30.945
-30.162
-29.387
-28.62
-27.861
-27.113
-26.376
-25.652
-24.942
-24.248
-23.57
-22.91
-22.268
-21.646
-21.045
-20.465
-19.909
-19.377
-18.872
-18.396
-17.952
-17.543
-17.172
-16.842
-16.555
-16.314
-16.121
-15.977
-15.885
-15.846
-15.861
-15.932
-16.061
-16.247
-16.493
-16.798
-17.163
-17.587
-18.069
-18.607
-19.201
-19.848
-20.547
-21.295
-22.09
-22.929
-23.809
-24.728
-25.68
-26.66
-27.663
-28.681
-29.709
-30.737
-31.759
-32.767
-33.753
-34.709
-35.63
-36.506
-37.333
-38.101
-38.805
-39.438
-39.993
-40.463
-40.843
-41.126
-41.307
-41.383
-41.35
-41.205
-40.944
-40.565
-40.067
-39.446
-38.703
-37.836
-36.846
-35.733
-34.501
-33.154
-31.698
-30.138
-28.484
-26.744
-24.927
-23.044
-21.106
-19.123
-17.107
-15.069
-13.022
-10.978
-8.952
-6.957
-5.007
-3.122
-1.318
0.387
1.975
3.43
4.736
5.875
6.829
7.588
8.139
8.473
8.584
8.452
8.061
7.416
6.524
5.389
4.025
2.422
0.562
-1.518
-3.785
-6.277
-9.026
-12.069
-15.456
-19.148
-23.068
-27.242
-31.724
-36.3
-40.705
-45.017
-49.163
-53.042
-57.084
-59.942
-60.295
-59.896
-59.221
-61.516
-70.699
-82.278
-93.258
-99.228
-94.156
-83.415
-71.591
-61.88
-59.536
-61.041
-62.848
-64.31
-63.351
-61.472
-60.622
-60.829
-62.495
-65.488
-69.225
-73.371
-77.522
-81.169
-83.687
-84.283
-82.6
-78.863
-73.898
-69.364
-66.889
-67.451
-72.04
-81.662
-96.131
-113.999
-132.717
-147.659
-153.693
-147.26
-124.403
-82.37
-22.129
56.6
153.687
267.743
400.349
545.076
686.55
808.024
890.091
926.383
925.526
897.042
852.203
793.796
716.103
619.035
505.218
380.426
253.686
130.05
13.247
-91.748
-181.596
-253.99
-308.064
-345.332
-367.271
-374.845
-370.244
-356.865
-338.532
-319.034
-300.494
-283.279
-267.681
-253.95
-241.803
-230.509
-218.685
-204.67
-187.854
-168.641
-147.675
-125.742
-103.562
-81.764
-61.267
-43.168
-28.129
-16.351
-7.747
-1.98
1.255
2.16
1.017
-1.79
-5.895
-10.931
-16.571
-22.624
-28.913
-35.221
-41.317
-46.919
-51.765
-55.709
-58.694
-60.7
-61.743
-61.84
-61.021
-59.387
-57.066
-54.192
-50.901
-47.276
-43.381
-39.31
-35.175
-31.114
-27.271
-23.733
-20.537
-17.716
-15.284
-13.241
-11.578
-10.263
-9.242
-8.471
-7.913
-7.525
-7.26
-7.096
-7
-6.872
-6.615
-6.16
-5.438
-4.455
-3.255
-1.786
0.028
2.01
3.937
5.926
7.961
10.001
12.49
14.222
14.019
13.538
13.272
16.271
26.191
38.957
51.848
60.822
60.328
55.248
49.719
46.567
50.474
58.062
65.907
73.23
77.937
81.214
84.588
87.746
90.868
93.833
96.313
98.5
100.544
102.381
103.986
105.37
106.52
107.416
108.047
108.378
108.37
108.036
107.389
106.423
105.141
103.547
101.642
99.435
96.937
94.154
91.092
87.763
84.176
80.346
76.287
72.015
67.544
62.892
58.078
53.118
48.032
42.838
37.554
32.198
26.788
21.342
15.879
10.416
4.97
-0.442
-5.802
-11.095
-16.306
-21.42
-26.423
-31.301
-36.042
-40.634
-45.066
-49.326
-53.405
-57.293
-60.983
-64.468
-67.742
-70.802
-73.645
-76.271
-78.679
-80.873
-82.854
-84.627
-86.197
-87.57
-88.752
-89.751
-90.574
-91.23
-91.73
-92.081
-92.295
-92.381
-92.35
-92.213
-91.979
-91.66
-91.266
-90.807
-90.293
-89.736
-89.145
-88.532
-87.908
-87.281
-86.661
-86.058
-85.478
-84.929
-84.415
-83.941
-83.509
-83.123
-82.782
-82.486
-82.235
-82.027
-81.858
-81.726
-81.626
-81.554
-81.504
-81.471
-81.449
-81.433
-81.415
-81.39
-81.353
-81.297
-81.217
-81.107
-80.962
-80.775
-80.542
-80.255
-79.911
-79.503
-79.028
-78.482
-77.861
-77.164
-76.39
-75.539
-74.614
-73.616
-72.549
-71.417
-70.227
-68.984
-67.696
-66.37
-65.015
-63.64
-62.255
-60.869
-59.493
-58.135
-56.807
-55.517
-54.274
-53.088
-51.967
-50.92
-49.956
-49.081
-48.305
-47.634
-47.076
-46.637
-46.323
-46.14
-46.09
-46.176
-46.402
-46.766
-47.269
-47.909
-48.684
-49.589
-50.62
-51.77
-53.033
-54.401
-55.866
-57.417
-59.045
-60.74
-62.491
-64.287
-66.117
-67.971
-69.838
-71.706
-73.565
-75.404
-77.21
-78.975
-80.686
-82.332
-83.903
-85.388
-86.778
-88.063
-89.235
-90.284
-91.203
-91.985
-92.623
-93.113
-93.45
-93.627
-93.644
-93.497
-93.184
-92.706
-92.062
-91.253
-90.28
-89.145
-87.85
-86.398
-84.793
-83.037
-81.135
-79.091
-76.911
-74.602
-72.17
-69.623
-66.968
-64.216
-61.375
-58.457
-55.471
-52.43
-49.346
-46.232
-43.101
-39.966
-36.842
-33.746
-30.695
-27.707
-24.802
-21.998
-19.316
-16.774
-14.395
-12.193
-10.179
-8.366
-6.765
-5.391
-4.264
-3.394
-2.786
-2.466
-2.452
-2.762
-3.411
-4.389
-5.663
-7.241
-9.139
-11.31
-13.727
-16.371
-19.202
-22.26
-25.609
-29.192
-32.909
-36.9
-41.323
-46.001
-50.888
-55.951
-60.666
-66.243
-73.854
-81.704
-89.183
-92.925
-89.013
-81.755
-74.017
-70.126
-75.963
-86.32
-96.885
-104.853
-105.226
-101.246
-96.515
-92.081
-90.281
-90.427
-90.363
-88.244
-84.433
-81.336
-82.693
-94.592
-115.938
-139.116
-156.418
-157.239
-140.542
-115.913
-91.776
-78.466
-79.442
-88.995
-103.148
-117.087
-128.986
-141.759
-156.522
-174.146
-189.832
-192.665
-171.771
-115.477
-23.114
94.366
225.058
353.716
472.12
580.884
676.745
756.294
815.86
848.964
853.9
833.162
788.23
723.221
643.961
553.278
455.575
352.649
243.892
135.487
32.863
-57.251
-127.832
-183.392
-228.543
-266.535
-301.886
-330.995
-350.781
-361.536
-362.312
-354.569
-339.627
-318.004
-291.1
-260.312
-227.68
-194.805
-162.449
-132.76
-106.842
-84.274
-66.86
-54.506
-48.278
-51.907
-63.191
-77.708
-87.688
-82.843
-60.943
-27.507
5.751
25.791
25.694
8.389
-15.589
-36.312
-46.643
-46.392
-41.688
-36.679
-34.105
-34.306
-34.472
-33.424
-31.154
-27.649
-23.588
-19.217
-14.236
-8.658
-2.619
3.767
10.282
16.751
23.053
29.066
34.673
39.806
44.454
48.62
52.329
55.607
58.475
60.956
63.078
64.895
66.463
67.851
69.138
70.386
71.646
72.963
74.37
75.893
77.554
79.361
81.312
83.413
85.674
88.106
90.722
93.524
96.512
99.683
103.034
106.557
110.247
114.093
118.084
122.211
126.463
130.828
135.295
139.847
144.466
149.13
153.816
158.499
163.155
167.757
172.279
176.694
180.977
185.102
189.045
192.781
196.288
199.541
202.519
205.202
207.567
209.597
211.273
212.579
213.501
214.024
214.138
213.834
213.105
211.946
210.355
208.333
205.882
203.008
199.718
196.024
191.938
187.474
182.649
177.483
171.994
166.206
160.14
153.822
147.274
140.524
133.597
126.519
119.318
112.02
104.654
97.245
89.822
82.411
75.04
67.735
60.521
53.425
46.469
39.679
33.075
26.678
20.507
14.58
8.911
3.513
-1.601
-6.424
-10.948
-15.169
-19.082
-22.687
-25.984
-28.975
-31.664
-34.057
-36.16
-37.982
-39.531
-40.818
-41.855
-42.653
-43.225
-43.586
-43.749
-43.729
-43.541
-43.2
-42.724
-42.127
-41.425
-40.635
-39.772
-38.85
-37.883
-36.886
-35.869
-34.845
-33.823
-32.814
-31.823
-30.86
-29.929
-29.035
-28.182
-27.372
-26.607
-25.886
-25.209
-24.574
-23.98
-23.423
-22.901
-22.409
-21.943
-21.5
-21.074
-20.66
-20.253
-19.848
-19.439
-19.021
-18.588
-18.136
-17.66
-17.155
-16.618
-16.046
-15.436
-14.786
-14.093
-13.358
-12.58
-11.759
-10.895
-9.991
-9.048
-8.07
-7.059
-6.022
-4.961
-3.883
-2.793
-1.696
-0.598
0.494
1.575
2.639
3.68
4.691
5.667
6.602
7.49
8.327
9.107
9.826
10.481
11.068
11.584
12.026
12.392
12.681
12.89
13.019
13.067
13.032
12.915
12.717
12.438
12.079
11.643
11.132
10.549
9.896
9.177
8.395
7.555
6.66
5.714
4.721
3.687
2.615
1.511
0.378
-0.778
-1.953
-3.145
-4.347
-5.558
-6.773
-7.99
-9.204
-10.412
-11.611
-12.796
-13.963
-15.109
-16.229
-17.318
-18.373
-19.39
-20.365
-21.293
-22.171
-22.995
-23.761
-24.466
-25.106
-25.677
-26.176
-26.599
-26.944
-27.209
-27.39
-27.487
-27.496
-27.417
-27.247
-26.986
-26.632
-26.184
-25.641
-25.002
-24.269
-23.442
-22.524
-21.517
-20.424
-19.25
-18
-16.68
-15.297
-13.858
-12.371
-10.846
-9.291
-7.717
-6.136
-4.559
-3
-1.476
-0.002
1.404
2.725
3.944
5.043
6.007
6.819
7.468
7.942
8.228
8.316
8.188
7.833
7.24
6.402
5.311
3.963
2.353
0.482
-1.639
-4.003
-6.603
-9.439
-12.526
-15.869
-19.461
-23.295
-27.355
-31.62
-36.07
-40.666
-45.351
-50.065
-54.751
-59.358
-63.855
-68.194
-72.316
-76.143
-79.579
-82.546
-84.997
-86.897
-88.227
-88.978
-89.168
-88.85
-88.114
-87.073
-85.85
-84.561
-83.344
-82.352
-81.724
-81.691
-82.555
-84.471
-87.445
-91.263
-95.446
-99.57
-103.311
-106.175
-107.554
-107.039
-104.512
-100.628
-96.718
-93.879
-92.909
-94.361
-98.589
-105.87
-115.909
-126.841
-135.496
-138.571
-132.872
-115.961
-85.656
-39.436
24.303
105.093
200.287
305.768
416.716
528.493
635.521
730.742
807.298
859.437
883.729
878.869
844.398
780.665
690.22
578.229
451.516
317.757
183.436
54.139
-64.194
-166.184
-247.98
-308.105
-347.669
-369.34
-375.602
-369.295
-354.265
-334.586
-314.284
-295.974
-280.294
-266.995
-255.755
-245.951
-236.616
-226.461
-213.829
-197.938
-179.111
-158.064
-135.766
-113.162
-91.04
-70.341
-52.17
-37.173
-25.545
-17.244
-11.929
-9.284
-9.079
-10.958
-14.492
-19.282
-24.933
-31.088
-37.467
-43.77
-49.679
-54.932
-59.281
-62.555
-64.681
-65.621
-65.39
-64.034
-61.62
-58.249
-54.061
-49.207
-43.837
-38.116
-32.201
-26.249
-20.431
-14.883
-9.717
-5.011
-0.799
2.902
6.092
8.79
11.029
12.853
14.316
15.476
16.381
17.09
17.665
18.174
18.694
19.286
19.999
20.871
21.933
23.207
24.715
26.469
28.471
30.725
33.237
36.012
39.058
42.377
45.969
49.828
53.946
58.314
62.924
67.765
72.824
78.086
83.535
89.153
94.924
100.826
106.833
112.919
119.053
125.203
131.337
137.421
143.42
149.299
155.023
160.558
165.871
170.929
175.7
180.151
184.253
187.976
191.292
194.176
196.603
198.553
200.007
200.948
201.364
201.245
200.584
199.377
197.623
195.324
192.485
189.116
185.227
180.833
175.951
170.602
164.807
158.594
151.988
145.021
137.722
130.126
122.265
114.175
105.891
97.451
88.891
80.248
71.561
62.867
54.203
45.605
37.11
28.751
20.562
12.573
4.814
-2.689
-9.91
-16.828
-23.421
-29.672
-35.567
-41.091
-46.235
-50.993
-55.359
-59.332
-62.912
-66.102
-68.908
-71.337
-73.4
-75.106
-76.471
-77.507
-78.232
-78.664
-78.822
-78.726
-78.398
-77.861
-77.138
-76.253
-75.23
-74.092
-72.865
-71.57
-70.231
-68.87
-67.507
-66.163
-64.857
-63.607
-62.429
-61.339
-60.351
-59.477
-58.727
-58.11
-57.635
-57.307
-57.131
-57.11
-57.246
-57.542
-57.995
-58.607
-59.373
-60.291
-61.356
-62.562
-63.902
-65.368
-66.951
-68.641
-70.428
-72.3
-74.247
-76.257
-78.317
-80.417
-82.544
-84.686
-86.831
-88.967
-91.083
-93.167
-95.208
-97.198
-99.125
-100.982
-102.761
-104.455
-106.055
-107.556
-108.952
-110.237
-111.406
-112.455
-113.379
-114.176
-114.843
-115.379
-115.784
-116.057
-116.2
-116.216
-116.107
-115.876
-115.527
-115.067
-114.499
-113.831
-113.068
-112.22
-111.293
-110.297
-109.24
-108.131
-106.98
-105.796
-104.588
-103.364
-102.134
-100.906
-99.69
-98.492
-97.323
-96.189
-95.1
-94.063
-93.085
-92.173
-91.333
-90.57
-89.889
-89.293
-88.785
-88.367
-88.039
-87.803
-87.658
-87.602
-87.633
-87.747
-87.941
-88.209
-88.545
-88.941
-89.391
-89.885
-90.414
-90.97
-91.542
-92.122
-92.698
-93.261
-93.802
-94.309
-94.772
-95.182
-95.527
-95.798
-95.986
-96.082
-96.076
-95.96
-95.728
-95.374
-94.891
-94.276
-93.524
-92.632
-91.599
-90.422
-89.102
-87.64
-86.037
-84.296
-82.422
-80.419
-78.295
-76.056
-73.711
-71.268
-68.737
-66.13
-63.457
-60.729
-57.959
-55.16
-52.344
-49.526
-46.72
-43.939
-41.199
-38.515
-35.904
-33.384
-30.972
-28.684
-26.538
-24.549
-22.734
-21.107
-19.677
-18.453
-17.446
-16.662
-16.113
-15.806
-15.75
-15.949
-16.406
-17.12
-18.093
-19.317
-20.78
-22.468
-24.371
-26.482
-28.806
-31.346
-34.098
-37.056
-40.209
-43.534
-47.007
-50.589
-54.228
-57.873
-61.474
-64.985
-68.376
-71.608
-74.635
-77.396
-79.818
-81.828
-83.371
-84.397
-84.872
-84.809
-84.232
-83.21
-81.84
-80.189
-78.346
-76.423
-74.538
-72.849
-71.525
-70.71
-70.619
-71.548
-73.621
-76.789
-80.792
-85.017
-88.855
-91.858
-93.434
-92.915
-90.116
-85.355
-79.508
-74.261
-71.188
-71.152
-74.969
-83.369
-95.915
-111.096
-126.458
-137.704
-140.218
-130.931
-106.502
-64.795
-7.211
66.101
154.855
257.682
376.185
504.782
629.551
735.592
805.676
834.259
829.685
800.966
758.499
705.073
635.362
548.855
447.447
335.878
222.022
110.273
3.862
-92.889
-177.028
-246.22
-299.29
-337.195
-360.862
-370.86
-368.949
-357.95
-341.222
-322.364
-303.534
-285.339
-268.338
-252.964
-239.106
-226.276
-213.281
-198.519
-181.372
-162.138
-141.312
-119.59
-97.634
-75.995
-55.552
-37.398
-22.153
-10.011
-0.894
5.552
9.616
11.485
11.451
9.896
7.188
3.701
-0.26
-4.526
-8.903
-13.175
-17.095
-20.364
-22.777
-24.242
-24.726
-24.245
-22.826
-20.488
-17.293
-13.357
-8.81
-3.794
1.568
7.202
13.022
18.924
24.782
30.436
35.775
40.744
45.313
49.47
53.208
56.515
59.407
61.939
64.162
66.125
67.87
69.419
70.809
72.093
73.33
74.588
75.919
77.35
78.904
80.599
82.456
84.495
86.73
89.154
91.756
94.532
97.477
100.581
103.826
107.171
110.56
113.955
117.33
120.674
123.992
127.283
130.545
133.782
136.999
140.206
143.419
146.642
149.866
153.108
156.396
159.789
163.378
167.217
171.317
175.673
180.247
184.989
189.845
194.732
199.539
204.175
208.551
212.603
216.294
219.556
222.297
224.403
225.719
226.141
225.615
224.107
221.619
218.184
213.851
208.723
202.953
196.663
189.954
182.906
175.562
167.993
160.296
152.575
144.956
137.539
130.387
123.559
117.097
111.01
105.287
99.876
94.676
89.619
84.663
79.78
74.968
70.216
65.497
60.793
56.084
51.355
46.597
41.801
36.956
32.067
27.154
22.254
17.423
12.705
8.123
3.698
-0.563
-4.653
-8.564
-12.294
-15.851
-19.239
-22.458
-25.508
-28.38
-31.076
-33.599
-35.956
-38.157
-40.21
-42.119
-43.889
-45.523
-47.022
-48.39
-49.623
-50.719
-51.675
-52.494
-53.176
-53.726
-54.148
-54.445
-54.622
-54.687
-54.643
-54.497
-54.255
-53.92
-53.499
-52.998
-52.422
-51.778
-51.071
-50.308
-49.494
-48.637
-47.743
-46.818
-45.87
-44.904
-43.928
-42.948
-41.971
-41.003
-40.05
-39.118
-38.213
-37.34
-36.504
-35.71
-34.962
-34.262
-33.615
-33.021
-32.484
-32.002
-31.578
-31.209
-30.897
-30.638
-30.432
-30.277
-30.171
-30.111
-30.094
-30.118
-30.179
-30.275
-30.402
-30.557
-30.736
-30.935
-31.152
-31.382
-31.624
-31.872
-32.126
-32.383
-32.64
-32.896
-33.149
-33.397
-33.64
-33.875
-34.104
-34.324
-34.537
-34.743
-34.943
-35.139
-35.333
-35.526
-35.722
-35.923
-36.131
-36.349
-36.579
-36.825
-37.088
-37.371
-37.676
-38.005
-38.361
-38.744
-39.155
-39.597
-40.067
-40.568
-41.096
-41.652
-42.234
-42.839
-43.467
-44.114
-44.778
-45.456
-46.145
-46.842
-47.543
-48.243
-48.938
-49.622
-50.291
-50.939
-51.559
-52.147
-52.697
-53.201
-53.655
-54.053
-54.387
-54.652
-54.842
-54.952
-54.977
-54.911
-54.752
-54.496
-54.139
-53.681
-53.12
-52.454
-51.682
-50.806
-49.823
-48.736
-47.545
-46.251
-44.856
-43.362
-41.773
-40.092
-38.322
-36.469
-34.538
-32.534
-30.465
-28.338
-26.163
-23.948
-21.705
-19.448
-17.189
-14.943
-12.724
-10.548
-8.43
-6.386
-4.43
-2.576
-0.837
0.772
2.239
3.549
4.688
5.645
6.406
6.958
7.286
7.376
7.217
6.804
6.133
5.198
3.993
2.505
0.73
-1.33
-3.671
-6.286
-9.165
-12.294
-15.644
-19.167
-22.807
-26.505
-30.213
-33.894
-37.508
-41.009
-44.349
-47.469
-50.326
-52.894
-55.147
-57.062
-58.63
-59.846
-60.75
-61.45
-62.082
-62.775
-63.649
-64.777
-66.207
-68.021
-70.321
-73.191
-76.702
-80.91
-85.829
-91.557
-98.272
-105.916
-114.269
-122.917
-131.089
-138.032
-143.193
-145.807
-145.081
-140.968
-133.573
-123.272
-111.709
-100.509
-90.86
-84.556
-81.386
-78.232
-73.095
-64.779
-55.052
-49.167
-47.796
-44.499
-24.719
28.301
124.36
261.756
423.168
584.537
721.675
816.014
863.47
870.691
851.052
817.234
774.164
719.45
647.096
555.245
447.152
329.231
209.363
92.224
-19.411
-121.911
-212.641
-289.44
-350.202
-394.839
-424.081
-438.184
-438.285
-426.516
-405.034
-376.849
-345.645
-313.953
-283.317
-255.099
-230.038
-208.681
-191.711
-178.581
-167.453
-156.654
-145.304
-133.061
-120.018
-106.036
-90.527
-73.626
-56.465
-40.483
-26.696
-15.459
-6.667
-0.243
3.588
4.776
3.728
1.197
-2.12
-5.843
-9.832
-14.047
-18.323
-22.376
-26
-29.096
-31.605
-33.498
-34.73
-35.219
-34.94
-33.946
-32.309
-30.139
-27.545
-24.581
-21.3
-17.755
-13.994
-10.11
-6.198
-2.348
1.343
4.807
8.005
10.905
13.502
15.819
17.887
19.754
21.482
23.111
24.679
26.219
27.757
29.334
30.995
32.79
34.771
36.982
39.454
42.209
45.262
48.615
52.265
56.202
60.403
64.849
69.524
74.412
79.497
84.762
90.183
95.734
101.386
107.109
112.876
118.655
124.416
130.128
135.761
141.286
146.676
151.903
156.937
161.747
166.305
170.579
174.544
178.171
181.435
184.314
186.784
188.83
190.435
191.586
192.275
192.492
192.233
191.497
190.285
188.599
186.448
183.838
180.781
177.291
173.384
169.079
164.397
159.358
153.988
148.312
142.356
136.15
129.721
123.099
116.314
109.398
102.38
95.292
88.165
81.029
73.914
66.85
59.864
52.983
46.232
39.635
33.213
26.988
20.977
15.196
9.661
4.384
-0.625
-5.358
-9.807
-13.97
-17.844
-21.428
-24.725
-27.737
-30.469
-32.928
-35.121
-37.057
-38.745
-40.197
-41.425
-42.44
-43.257
-43.889
-44.351
-44.658
-44.824
-44.865
-44.795
-44.629
-44.381
-44.066
-43.697
-43.286
-42.847
-42.39
-41.926
-41.464
-41.014
-40.582
-40.175
-39.797
-39.453
-39.145
-38.877
-38.648
-38.459
-38.31
-38.201
-38.129
-38.092
-38.089
-38.115
-38.168
-38.244
-38.339
-38.449
-38.571
-38.699
-38.83
-38.96
-39.084
-39.199
-39.301
-39.385
-39.448
-39.488
-39.5
-39.482
-39.433
-39.35
-39.233
-39.082
-38.896
-38.678
-38.429
-38.149
-37.843
-37.513
-37.162
-36.793
-36.41
-36.017
-35.617
-35.215
-34.815
-34.421
-34.037
-33.665
-33.311
-32.978
-32.667
-32.383
-32.129
-31.906
-31.719
-31.569
-31.459
-31.392
-31.371
-31.396
-31.47
-31.594
-31.769
-31.996
-32.275
-32.605
-32.987
-33.419
-33.9
-34.429
-35.005
-35.625
-36.288
-36.991
-37.731
-38.506
-39.313
-40.15
-41.013
-41.901
-42.811
-43.741
-44.69
-45.654
-46.631
-47.621
-48.619
-49.623
-50.631
-51.639
-52.645
-53.645
-54.637
-55.617
-56.583
-57.531
-58.459
-59.362
-60.237
-61.081
-61.891
-62.662
-63.392
-64.078
-64.716
-65.304
-65.84
-66.32
-66.742
-67.103
-67.401
-67.632
-67.794
-67.883
-67.895
-67.828
-67.68
-67.447
-67.127
-66.72
-66.223
-65.635
-64.955
-64.183
-63.319
-62.362
-61.314
-60.175
-58.947
-57.633
-56.237
-54.761
-53.209
-51.586
-49.898
-48.147
-46.342
-44.485
-42.584
-40.646
-38.677
-36.685
-34.678
-32.666
-30.659
-28.669
-26.709
-24.793
-22.935
-21.149
-19.45
-17.853
-16.37
-15.014
-13.794
-12.721
-11.804
-11.056
-10.486
-10.108
-9.931
-9.965
-10.219
-10.698
-11.406
-12.34
-13.495
-14.866
-16.457
-18.279
-20.342
-22.654
-25.219
-28.034
-31.092
-34.372
-37.838
-41.437
-45.113
-48.812
-52.487
-56.104
-59.626
-63.011
-66.205
-69.133
-71.728
-73.933
-75.699
-76.987
-77.789
-78.141
-78.123
-77.87
-77.512
-77.148
-76.885
-76.837
-77.136
-77.946
-79.453
-81.808
-85.211
-89.94
-96.067
-103.473
-111.814
-120.395
-128.515
-135.663
-141.151
-144.203
-144.673
-142.943
-140
-137.605
-137.044
-138.796
-143.492
-151.704
-162.719
-174.734
-184.619
-187.885
-180.956
-161.655
-127.699
-76.82
-8.464
76.19
173.814
278.726
385.635
490.344
587.906
672.431
738.909
783.479
804.054
801.274
775.925
728.133
659.402
573.01
473.085
364.606
252.436
139.878
30.663
-70.491
-159.528
-233.251
-290.087
-330.598
-356.27
-368.415
-369.024
-360.806
-346.751
-330.408
-314.078
-298.223
-282.394
-265.746
-247.676
-228.237
-207.477
-184.671
-159.718
-133.545
-107.866
-85.039
-66.573
-52.501
-42.207
-35.477
-32.142
-31.785
-33.486
-35.662
-37.216
-38.153
-39.178
-40.791
-43.049
-45.754
-48.708
-52.073
-55.99
-60.16
-63.925
-66.702
-68.187
-68.33
-67.272
-65.07
-61.726
-57.34
-52.099
-46.224
-39.936
-33.406
-26.751
-20.106
-13.596
-7.328
-1.421
4.052
9.055
13.571
17.618
21.227
24.421
27.229
29.691
31.848
33.753
35.467
37.045
38.548
40.03
41.533
43.101
44.769
46.559
48.488
50.563
52.78
55.148
57.671
60.354
63.203
66.218
69.398
72.74
76.238
79.885
83.673
87.595
91.64
95.798
100.058
104.41
108.843
113.343
117.891
122.469
127.055
131.626
136.16
140.632
145.016
149.288
153.423
157.397
161.185
164.764
168.11
171.202
174.016
176.534
178.734
180.6
182.116
183.266
184.039
184.424
184.412
183.997
183.175
181.944
180.304
178.256
175.806
172.96
169.726
166.117
162.143
157.821
153.166
148.197
142.934
137.397
131.608
125.592
119.372
112.973
106.42
99.74
92.957
86.1
79.194
72.264
65.338
58.44
51.595
44.828
38.161
31.616
25.214
18.976
12.918
7.059
1.413
-4.007
-9.189
-14.123
-18.801
-23.216
-27.364
-31.242
-34.848
-38.184
-41.25
-44.051
-46.59
-48.875
-50.911
-52.707
-54.273
-55.617
-56.752
-57.689
-58.439
-59.016
-59.433
-59.703
-59.84
-59.859
-59.773
-59.596
-59.342
-59.024
-58.655
-58.246
-57.809
-57.355
-56.892
-56.429
-55.974
-55.532
-55.11
-54.712
-54.341
-54
-53.689
-53.411
-53.166
-52.952
-52.77
-52.618
-52.494
-52.397
-52.325
-52.275
-52.245
-52.231
-52.231
-52.24
-52.255
-52.272
-52.286
-52.295
-52.293
-52.278
-52.245
-52.19
-52.112
-52.008
-51.875
-51.713
-51.521
-51.298
-51.047
-50.768
-50.463
-50.135
-49.788
-49.424
-49.048
-48.662
-48.27
-47.876
-47.482
-47.091
-46.705
-46.327
-45.959
-45.603
-45.259
-44.93
-44.616
-44.32
-44.041
-43.782
-43.543
-43.324
-43.128
-42.953
-42.802
-42.675
-42.571
-42.49
-42.431
-42.393
-42.375
-42.373
-42.385
-42.407
-42.436
-42.468
-42.5
-42.527
-42.547
-42.556
-42.552
-42.533
-42.497
-42.443
-42.371
-42.281
-42.174
-42.051
-41.913
-41.764
-41.603
-41.435
-41.261
-41.084
-40.906
-40.728
-40.553
-40.383
-40.219
-40.063
-39.917
-39.783
-39.663
-39.559
-39.474
-39.41
-39.369
-39.355
-39.37
-39.415
-39.493
-39.606
-39.754
-39.938
-40.157
-40.409
-40.694
-41.006
-41.343
-41.699
-42.069
-42.445
-42.822
-43.192
-43.547
-43.88
-44.184
-44.451
-44.674
-44.847
-44.962
-45.014
-44.995
-44.902
-44.727
-44.467
-44.117
-43.673
-43.129
-42.483
-41.732
-40.872
-39.902
-38.82
-37.626
-36.322
-34.909
-33.392
-31.775
-30.067
-28.278
-26.418
-24.502
-22.543
-20.559
-18.566
-16.582
-14.625
-12.712
-10.86
-9.087
-7.411
-5.848
-4.418
-3.137
-2.025
-1.099
-0.375
0.132
0.41
0.453
0.254
-0.191
-0.889
-1.852
-3.089
-4.604
-6.401
-8.477
-10.822
-13.422
-16.243
-19.237
-22.358
-25.557
-28.791
-32.032
-35.243
-38.387
-41.427
-44.302
-46.956
-49.35
-51.433
-53.174
-54.563
-55.598
-56.333
-56.871
-57.314
-57.748
-58.234
-58.803
-59.513
-60.457
-61.735
-63.467
-65.752
-68.699
-72.506
-77.265
-82.873
-89.03
-95.126
-100.449
-104.465
-106.637
-106.312
-103.202
-97.508
-89.957
-82.046
-75.306
-70.638
-68.705
-70.132
-74.906
-81.984
-89.183
-92.993
-89.603
-76.22
-50.702
-10.955
44.404
115.215
199.643
293.924
392.904
492.028
587.262
673.758
746.522
801.372
834.976
845.56
833.35
798.412
740.415
660.658
561.864
447.7
323.11
193.155
61.796
-66.065
-184.075
-286.713
-369.626
-430.006
-467.578
-483.252
-477.69
-453.34
-415.058
-368.223
-318.534
-270.953
-228.123
-191.83
-164.181
-145.784
-135.39
-130.949
-129.268
-127.268
-123.645
-117.555
-107.893
-94.42
-77.622
-58.462
-38.915
-21
-5.618
6.726
15.625
21.097
23.23
22.295
19.113
14.642
9.498
4.079
-1.366
-6.706
-11.693
-16.042
-19.59
-22.283
-24.11
-25.058
-25.098
-24.191
-22.35
-19.665
-16.26
-12.271
-7.824
-3.013
2.088
7.37
12.701
17.942
22.947
27.624
31.929
35.826
39.295
42.33
44.944
47.177
49.093
50.752
52.201
53.484
54.633
55.695
56.727
57.792
58.956
60.267
61.757
63.455
65.383
67.556
69.98
72.651
75.551
78.672
82.007
85.553
89.307
93.262
97.407
101.733
106.229
110.878
115.666
120.57
125.568
130.639
135.755
140.891
146.021
151.12
156.16
161.118
165.964
170.662
175.181
179.486
183.528
187.271
190.684
193.734
196.418
198.751
200.72
202.331
203.654
204.732
205.586
206.236
206.632
206.691
206.438
205.934
204.963
203.275
200.975
198.037
194.405
190.517
185.057
176.717
167.165
156.898
149.125
147.717
148.475
148.629
144.049
129.058
108.919
88.103
69.691
58.678
51.642
45.135
38.52
29.813
20.428
12.088
4.55
-1.949
-7.488
-12.399
-16.51
-19.745
-22.305
-24.318
-25.841
-26.933
-27.657
-28.09
-28.372
-28.664
-29.044
-29.56
-30.264
-31.184
-32.356
-33.787
-35.437
-37.225
-39.047
-40.829
-42.528
-44.125
-45.601
-46.934
-48.086
-49.026
-49.744
-50.239
-50.508
-50.548
-50.354
-49.935
-49.324
-48.574
-47.744
-46.879
-46.008
-45.15
-44.32
-43.535
-42.808
-42.143
-41.535
-40.982
-40.484
-40.047
-39.676
-39.374
-39.134
-38.948
-38.806
-38.701
-38.63
-38.589
-38.573
-38.579
-38.607
-38.658
-38.736
-38.842
-38.976
-39.134
-39.313
-39.511
-39.725
-39.952
-40.187
-40.426
-40.669
-40.911
-41.154
-41.394
-41.632
-41.865
-42.095
-42.319
-42.539
-42.754
-42.965
-43.17
-43.372
-43.57
-43.765
-43.956
-44.145
-44.331
-44.514
-44.695
-44.874
-45.051
-45.225
-45.398
-45.57
-45.741
-45.913
-46.087
-46.264
-46.446
-46.633
-46.828
-47.033
-47.247
-47.473
-47.711
-47.963
-48.229
-48.509
-48.803
-49.113
-49.438
-49.778
-50.133
-50.504
-50.89
-51.292
-51.71
-52.145
-52.596
-53.064
-53.55
-54.053
-54.575
-55.114
-55.671
-56.246
-56.837
-57.446
-58.07
-58.708
-59.36
-60.023
-60.696
-61.377
-62.064
-62.754
-63.445
-64.134
-64.82
-65.5
-66.172
-66.834
-67.482
-68.115
-68.73
-69.323
-69.892
-70.434
-70.945
-71.421
-71.859
-72.254
-72.604
-72.903
-73.147
-73.333
-73.457
-73.514
-73.5
-73.412
-73.247
-73.001
-72.674
-72.262
-71.764
-71.18
-70.509
-69.751
-68.905
-67.972
-66.953
-65.848
-64.658
-63.385
-62.032
-60.601
-59.096
-57.519
-55.876
-54.172
-52.413
-50.606
-48.757
-46.877
-44.973
-43.056
-41.137
-39.226
-37.336
-35.482
-33.679
-31.943
-30.288
-28.731
-27.287
-25.972
-24.8
-23.782
-22.929
-22.25
-21.755
-21.455
-21.36
-21.481
-21.829
-22.411
-23.234
-24.304
-25.62
-27.174
-28.961
-30.97
-33.199
-35.652
-38.331
-41.236
-44.364
-47.707
-51.252
-54.972
-58.826
-62.761
-66.724
-70.663
-74.538
-78.318
-81.968
-85.453
-88.719
-91.703
-94.348
-96.597
-98.398
-99.699
-100.483
-100.783
-100.67
-100.259
-99.646
-98.882
-98.021
-97.163
-96.409
-95.87
-95.71
-96.012
-96.936
-98.823
-101.788
-105.718
-110.34
-114.983
-118.91
-121.688
-122.701
-121.093
-116.799
-110.345
-102.653
-95.533
-90.712
-89.268
-92.181
-100.602
-113.074
-125.109
-133.632
-135.701
-130.577
-123.457
-113.082
-89.191
-41.802
42.142
166.699
314.57
464.32
594.772
687.019
741.523
768.335
774.604
768.99
752.35
717.114
659.911
580.618
482.147
372.187
257.374
141.478
27.35
-81.688
-181.378
-267.707
-337.252
-388.485
-422.137
-439.144
-440.345
-427.856
-404.784
-374.455
-341.141
-308.398
-277.646
-249.703
-225.347
-204.648
-187.433
-173.482
-161.078
-148.219
-134.369
-119.482
-103.707
-87.549
-71.096
-54.161
-37.637
-22.924
-10.678
-1.197
5.59
10.11
12.4
12.259
10.022
6.411
2.02
-2.662
-7.37
-12.067
-16.532
-20.366
-23.327
-25.325
-26.348
-26.478
-25.748
-24.118
-21.607
-18.303
-14.324
-9.829
-4.955
0.225
5.621
11.132
16.63
21.951
26.973
31.638
35.911
39.784
43.247
46.293
48.939
51.237
53.244
55.018
56.606
58.036
59.346
60.587
61.815
63.098
64.484
66.004
67.682
69.538
71.586
73.841
76.304
78.961
81.804
84.825
88.021
91.392
94.931
98.625
102.461
106.424
110.499
114.675
118.934
123.26
127.635
132.044
136.469
140.895
145.306
149.68
153.996
158.233
162.368
166.38
170.247
173.947
177.459
180.764
183.842
186.676
189.25
191.547
193.553
195.255
196.64
197.697
198.418
198.794
198.82
198.491
197.805
196.761
195.358
193.6
191.488
189.029
186.229
183.096
179.639
175.869
171.8
167.443
162.815
157.931
152.807
147.46
141.909
136.173
130.271
124.221
118.045
111.761
105.391
98.954
92.47
85.96
79.444
72.94
66.468
60.047
53.693
47.424
41.256
35.206
29.288
23.516
17.904
12.464
7.207
2.144
-2.718
-7.369
-11.803
-16.016
-20.002
-23.758
-27.281
-30.572
-33.629
-36.454
-39.048
-41.414
-43.557
-45.482
-47.193
-48.699
-50.006
-51.121
-52.054
-52.812
-53.406
-53.843
-54.135
-54.291
-54.32
-54.234
-54.044
-53.759
-53.39
-52.948
-52.443
-51.884
-51.282
-50.645
-49.982
-49.303
-48.614
-47.924
-47.24
-46.569
-45.918
-45.291
-44.694
-44.131
-43.606
-43.122
-42.681
-42.286
-41.937
-41.637
-41.387
-41.186
-41.035
-40.935
-40.883
-40.88
-40.923
-41.011
-41.142
-41.313
-41.523
-41.768
-42.046
-42.354
-42.69
-43.051
-43.434
-43.835
-44.252
-44.682
-45.121
-45.567
-46.017
-46.468
-46.919
-47.367
-47.812
-48.251
-48.683
-49.107
-49.521
-49.926
-50.318
-50.699
-51.066
-51.419
-51.758
-52.083
-52.394
-52.69
-52.973
-53.243
-53.499
-53.741
-53.971
-54.189
-54.393
-54.586
-54.768
-54.939
-55.1
-55.252
-55.396
-55.533
-55.662
-55.783
-55.897
-56.004
-56.102
-56.192
-56.273
-56.346
-56.409
-56.462
-56.506
-56.541
-56.565
-56.579
-56.582
-56.573
-56.553
-56.521
-56.477
-56.421
-56.354
-56.275
-56.185
-56.086
-55.976
-55.857
-55.727
-55.588
-55.439
-55.28
-55.112
-54.933
-54.745
-54.548
-54.343
-54.13
-53.909
-53.682
-53.447
-53.206
-52.957
-52.701
-52.437
-52.163
-51.88
-51.584
-51.277
-50.955
-50.618
-50.262
-49.886
-49.486
-49.059
-48.602
-48.112
-47.584
-47.017
-46.407
-45.753
-45.051
-44.302
-43.502
-42.65
-41.747
-40.793
-39.786
-38.729
-37.621
-36.466
-35.266
-34.024
-32.746
-31.437
-30.103
-28.754
-27.4
-26.052
-24.721
-23.421
-22.164
-20.967
-19.842
-18.803
-17.861
-17.032
-16.327
-15.763
-15.355
-15.118
-15.067
-15.215
-15.572
-16.147
-16.949
-17.974
-19.224
-20.696
-22.395
-24.33
-26.513
-28.944
-31.622
-34.543
-37.692
-41.046
-44.57
-48.212
-51.919
-55.644
-59.343
-62.985
-66.533
-69.937
-73.141
-76.075
-78.671
-80.879
-82.658
-83.96
-84.78
-85.15
-85.137
-84.87
-84.453
-83.951
-83.448
-83.033
-82.82
-82.977
-83.648
-84.915
-86.932
-89.893
-93.854
-98.775
-104.355
-109.928
-114.887
-118.801
-121.13
-121.286
-119.037
-114.464
-108.194
-101.706
-96.192
-91.976
-89.718
-90.33
-93.548
-98.677
-103.152
-101.026
-88.987
-66.859
-35.297
0.733
40.267
90.653
159.339
255.733
383.146
527.252
666.848
779.317
845.854
866.83
854.005
818.055
768.762
706.086
623.96
522.368
404.124
275.687
145.988
20.507
-96.111
-199.422
-286.67
-355.54
-405.37
-437.715
-453.569
-453.775
-440.408
-415.422
-381.552
-342.47
-300.471
-256.87
-213.803
-173.471
-137.504
-107.778
-84.906
-68.088
-56.916
-50.946
-48.838
-48.952
-49.768
-49.573
-47.512
-43.727
-38.365
-31.807
-24.95
-18.865
-14.429
-12.412
-13.075
-16.113
-21.122
-27.538
-34.615
-41.601
-47.858
-52.859
-56.325
-58.195
-58.493
-57.389
-55.042
-51.492
-47.019
-42.199
-37.242
-32.132
-27.076
-21.779
-17.306
-16.531
-18.976
-22.238
-22.244
-11.287
10.114
34.216
53.303
56.418
42.955
23.34
5.635
-1.426
3.697
13.311
22.745
28.805
30.572
31.253
32.305
33.644
35.395
37.089
38.608
40.383
42.547
45.032
47.859
51.05
54.587
58.448
62.583
66.911
71.401
76.079
80.944
85.979
91.173
96.508
101.972
107.557
113.243
119.001
124.802
130.617
136.418
142.175
147.858
153.437
158.882
164.164
169.255
174.129
178.757
183.113
187.172
190.91
194.303
197.33
199.968
202.201
204.011
205.382
206.304
206.765
206.757
206.275
205.315
203.877
201.962
199.576
196.726
193.421
189.675
185.501
180.919
175.947
170.607
164.92
158.913
152.61
146.037
139.22
132.188
124.967
117.587
110.077
102.465
94.781
87.054
79.314
71.589
63.908
56.299
48.789
41.405
34.172
27.114
20.254
13.614
7.212
1.068
-4.803
-10.387
-15.673
-20.651
-25.314
-29.656
-33.674
-37.366
-40.734
-43.778
-46.503
-48.913
-51.015
-52.815
-54.323
-55.548
-56.502
-57.195
-57.64
-57.852
-57.844
-57.633
-57.232
-56.66
-55.932
-55.067
-54.08
-52.991
-51.815
-50.571
-49.275
-47.942
-46.588
-45.227
-43.873
-42.537
-41.232
-39.966
-38.749
-37.589
-36.492
-35.464
-34.511
-33.636
-32.842
-32.132
-31.508
-30.971
-30.521
-30.159
-29.884
-29.693
-29.586
-29.56
-29.61
-29.732
-29.923
-30.176
-30.486
-30.845
-31.249
-31.688
-32.158
-32.65
-33.158
-33.675
-34.196
-34.713
-35.223
-35.718
-36.197
-36.653
-37.084
-37.488
-37.86
-38.2
-38.506
-38.776
-39.008
-39.203
-39.359
-39.476
-39.554
-39.593
-39.594
-39.558
-39.487
-39.382
-39.248
-39.086
-38.901
-38.697
-38.478
-38.25
-38.016
-37.783
-37.556
-37.34
-37.142
-36.965
-36.817
-36.702
-36.625
-36.59
-36.602
-36.666
-36.785
-36.962
-37.2
-37.502
-37.871
-38.309
-38.817
-39.396
-40.048
-40.772
-41.569
-42.436
-43.374
-44.378
-45.447
-46.576
-47.761
-48.997
-50.279
-51.599
-52.951
-54.328
-55.721
-57.123
-58.525
-59.918
-61.292
-62.637
-63.944
-65.202
-66.402
-67.533
-68.585
-69.549
-70.415
-71.174
-71.817
-72.337
-72.725
-72.975
-73.08
-73.035
-72.834
-72.473
-71.95
-71.261
-70.407
-69.386
-68.199
-66.849
-65.339
-63.671
-61.852
-59.885
-57.779
-55.544
-53.185
-50.709
-48.121
-45.431
-42.65
-39.797
-36.883
-33.909
-30.896
-27.882
-24.902
-21.992
-19.165
-16.4
-13.707
-11.141
-8.685
-6.27
-3.85
-1.366
1.167
3.621
5.956
8.277
10.431
11.985
12.87
13.191
12.886
12.439
10.877
5.588
-2.648
-11.532
-16.921
-11.345
4.144
22.211
35.342
32.895
15.021
-8.362
-29.652
-40.388
-39.735
-35.144
-30.971
-30.417
-34.143
-39.039
-43.803
-48.432
-52.783
-57.271
-61.925
-66.292
-70.203
-73.652
-76.546
-78.793
-80.354
-81.204
-81.351
-80.883
-79.859
-78.336
-76.434
-74.272
-71.98
-69.723
-67.654
-65.949
-64.818
-64.433
-65.015
-66.863
-70.058
-74.495
-79.898
-85.669
-91.257
-96.312
-100.239
-102.31
-102.364
-100.652
-97.965
-95.794
-95.067
-95.921
-98.716
-103.821
-110.598
-117.59
-122.113
-120.273
-109.156
-87.209
-52.844
-4.39
58.687
135.674
223.879
318.493
415.055
510.185
600.267
680.65
746.695
794.24
820.607
825.559
809.276
771.251
711.232
630.697
532.921
422.752
305.413
184.803
64.882
-49.311
-151.966
-237.788
-303.815
-349.833
-377.086
-386.706
-380.499
-361.332
-333.605
-303.003
-273.595
-247.103
-224.192
-205.252
-190.282
-179.174
-170.807
-162.338
-151.852
-138.932
-123.7
-106.751
-88.746
-69.894
-50.736
-32.907
-17.765
-6.186
1.606
6.229
7.989
7.362
4.003
-3.891
-15.261
-27.211
-35.785
-32.338
-14.394
11.407
36.112
42.964
21.951
-19.814
-69.503
-105.804
-111.966
-89.966
-50.45
-10.885
13.615
20.796
15.708
7.145
2.216
2.464
6.318
11.098
15.403
19.285
23.013
26.876
30.741
34.198
37.075
39.342
40.951
41.973
42.587
42.91
42.968
42.998
43.467
44.485
45.967
47.994
50.147
53.275
59.859
69.297
79.342
86.193
82.795
69.758
54.118
42.94
46.247
64.415
87.996
109.698
121.575
122.422
119.288
116.43
116.82
121.259
126.836
132.262
137.599
142.723
148.045
153.632
159.065
164.203
169.081
173.657
177.888
181.762
185.271
188.428
191.277
193.816
195.996
197.789
199.184
200.164
200.722
200.845
200.518
199.732
198.49
196.793
194.643
192.043
189.001
185.523
181.623
177.312
172.607
167.524
162.084
156.308
150.219
143.84
137.198
130.318
123.227
115.954
108.525
100.969
93.314
85.586
77.815
70.028
62.252
54.514
46.839
39.253
31.78
24.443
17.265
10.264
3.462
-3.124
-9.478
-15.585
-21.432
-27.008
-32.303
-37.308
-42.019
-46.431
-50.541
-54.349
-57.856
-61.064
-63.976
-66.598
-68.935
-70.997
-72.79
-74.325
-75.612
-76.662
-77.489
-78.105
-78.523
-78.758
-78.823
-78.734
-78.505
-78.151
-77.686
-77.125
-76.483
-75.773
-75.01
-74.206
-73.375
-72.529
-71.679
-70.835
-70.008
-69.206
-68.438
-67.712
-67.034
-66.41
-65.846
-65.347
-64.915
-64.556
-64.27
-64.06
-63.926
-63.868
-63.885
-63.977
-64.141
-64.375
-64.675
-65.039
-65.461
-65.939
-66.466
-67.038
-67.648
-68.291
-68.961
-69.652
-70.357
-71.069
-71.784
-72.494
-73.194
-73.878
-74.54
-75.175
-75.776
-76.339
-76.859
-77.33
-77.748
-78.11
-78.411
-78.648
-78.818
-78.92
-78.952
-78.911
-78.798
-78.612
-78.354
-78.023
-77.622
-77.152
-76.617
-76.018
-75.361
-74.649
-73.888
-73.083
-72.241
-71.366
-70.466
-69.547
-68.616
-67.681
-66.749
-65.827
-64.924
-64.046
-63.201
-62.396
-61.639
-60.937
-60.294
-59.719
-59.215
-58.788
-58.442
-58.182
-58.01
-57.93
-57.944
-58.053
-58.258
-58.56
-58.956
-59.446
-60.026
-60.693
-61.443
-62.269
-63.165
-64.125
-65.14
-66.203
-67.303
-68.431
-69.577
-70.73
-71.878
-73.011
-74.118
-75.186
-76.204
-77.162
-78.048
-78.852
-79.565
-80.178
-80.68
-81.059
-81.307
-81.414
-81.374
-81.186
-80.838
-80.317
-79.633
-78.795
-77.808
-76.688
-75.42
-73.981
-72.394
-70.684
-68.806
-66.729
-64.431
-61.874
-59.108
-56.22
-53.179
-49.922
-46.666
-43.662
-40.784
-38.061
-35.553
-32.765
-31.103
-31.935
-33.355
-34.798
-32.743
-22.972
-10.196
2.441
10.269
6.88
-2.083
-11.835
-19.106
-18.477
-13.843
-9.149
-5.278
-4.634
-5.826
-7.06
-8.667
-10.405
-12.385
-14.966
-17.917
-21.051
-24.427
-28.054
-31.896
-35.936
-40.154
-44.514
-48.986
-53.548
-58.129
-62.664
-67.125
-71.473
-75.655
-79.604
-83.241
-86.479
-89.259
-91.529
-93.246
-94.413
-95.065
-95.276
-95.16
-94.806
-94.297
-93.736
-93.23
-92.909
-92.958
-93.522
-94.809
-97.132
-100.595
-105.133
-110.524
-116.129
-121.281
-125.503
-128.055
-128.146
-125.774
-121.316
-115.694
-110.918
-108.508
-109.277
-114.45
-124.685
-138.918
-155.428
-171.205
-180.994
-180.421
-166.422
-135.074
-84.943
-18.41
63.845
160.035
267.054
386.18
511.409
628.711
725.092
785.294
804.742
793.226
760.839
717.995
668.674
608.326
534.856
448.746
353.271
253.745
154.475
58.616
-32.733
-117.203
-194.558
-265.769
-325.749
-371.272
-397.916
-400.43
-385.439
-360.245
-331.528
-307.652
-287.389
-268.503
-251.179
-233.892
-217.853
-203.837
-190.188
-175.596
-159.301
-141.223
-122.025
-102.295
-82.401
-63.14
-45.442
-30.209
-18.345
-8.672
0.19
6.963
11.428
10.714
1.506
-11.683
-25.74
-36.256
-37.415
-33.965
-29.846
-27.633
-31.798
-38.773
-45.035
-49.818
-51.045
-49.946
-48.119
-45.331
-41.893
-37.843
-33.003
-27.702
-22.217
-16.598
-10.961
-5.482
-0.284
4.556
8.998
13.063
16.778
20.122
23.094
25.736
28.096
30.232
32.193
34.009
35.716
37.365
39.016
40.735
42.576
44.572
46.747
49.116
51.695
54.495
57.516
60.747
64.177
67.796
71.598
75.58
79.735
84.048
88.502
93.079
97.764
102.541
107.393
112.301
117.248
122.215
127.185
132.142
137.067
141.939
146.735
151.432
156.006
160.433
164.689
168.751
172.594
176.198
179.542
182.609
185.38
187.84
189.975
191.772
193.22
194.31
195.035
195.388
195.365
194.963
194.183
193.025
191.49
189.583
187.309
184.675
181.688
178.359
174.698
170.718
166.432
161.856
157.008
151.904
146.566
141.012
135.266
129.349
123.284
117.093
110.801
104.429
98.001
91.537
85.061
78.593
72.154
65.763
59.439
53.201
47.067
41.052
35.173
29.445
23.881
18.496
13.301
8.309
3.529
-1.027
-5.353
-9.441
-13.284
-16.879
-20.223
-23.315
-26.154
-28.744
-31.086
-33.185
-35.047
-36.679
-38.088
-39.282
-40.27
-41.061
-41.666
-42.095
-42.359
-42.466
-42.429
-42.258
-41.962
-41.552
-41.039
-40.432
-39.742
-38.979
-38.153
-37.275
-36.354
-35.401
-34.425
-33.435
-32.44
-31.448
-30.465
-29.499
-28.553
-27.634
-26.746
-25.89
-25.07
-24.287
-23.543
-22.837
-22.17
-21.541
-20.948
-20.392
-19.871
-19.383
-18.929
-18.507
-18.117
-17.758
-17.429
-17.132
-16.864
-16.625
-16.415
-16.232
-16.075
-15.944
-15.836
-15.752
-15.688
-15.646
-15.623
-15.619
-15.634
-15.668
-15.72
-15.791
-15.882
-15.994
-16.129
-16.287
-16.47
-16.681
-16.92
-17.191
-17.494
-17.829
-18.199
-18.602
-19.04
-19.511
-20.014
-20.549
-21.114
-21.708
-22.329
-22.976
-23.648
-24.341
-25.057
-25.792
-26.545
-27.316
-28.103
-28.903
-29.717
-30.541
-31.375
-32.217
-33.063
-33.912
-34.76
-35.606
-36.445
-37.274
-38.091
-38.892
-39.674
-40.434
-41.17
-41.879
-42.559
-43.208
-43.825
-44.408
-44.956
-45.468
-45.942
-46.377
-46.772
-47.126
-47.435
-47.698
-47.913
-48.077
-48.186
-48.238
-48.228
-48.153
-48.01
-47.797
-47.509
-47.145
-46.702
-46.177
-45.568
-44.875
-44.096
-43.229
-42.273
-41.229
-40.097
-38.875
-37.566
-36.169
-34.685
-33.117
-31.465
-29.732
-27.921
-26.036
-24.082
-22.067
-19.995
-17.875
-15.713
-13.521
-11.311
-9.103
-6.906
-4.727
-2.597
-0.542
1.411
3.231
4.912
6.458
7.835
9.012
10.02
10.883
11.611
12.228
12.688
12.919
12.942
12.789
12.251
11.087
9.424
7.29
4.645
1.914
-2.137
-8.646
-15.779
-22.917
-26.809
-23.681
-17.808
-11.866
-10.164
-18.91
-32.984
-47.85
-60.529
-65.554
-67.274
-71.869
-79.489
-89.863
-97.656
-93.642
-78.628
-59.953
-45.321
-45.9
-62.174
-83.937
-103.498
-112.431
-109.342
-101.887
-94.774
-91.278
-92.48
-95.399
-98.745
-102.792
-107.479
-113.186
-119.753
-126.049
-131.153
-134.507
-135.394
-133.235
-127.943
-119.447
-108.369
-96.655
-86.107
-78.324
-73.645
-70.193
-66.366
-62.15
-60.749
-66.568
-79.211
-90.563
-84.94
-46.024
33.894
148.365
281.553
416.338
536.98
637.594
715.767
766.557
792.651
795.039
774.423
736.95
681.428
607.051
517.445
415.008
305.902
195.828
86.817
-19.293
-120.304
-213.391
-295.233
-363.322
-416.885
-455.278
-477.666
-483.565
-473.165
-448.501
-413.3
-371.615
-326.756
-281.842
-239.453
-201.757
-170.978
-147.942
-131.689
-120.494
-112.439
-105.495
-98.502
-90.728
-81.032
-68.939
-54.884
-39.694
-24.702
-11.447
-0.641
7.449
12.389
14.134
12.91
9.041
3.306
-3.318
-10.236
-17.043
-23.328
-28.863
-33.424
-36.794
-38.97
-40.051
-40.087
-39.138
-37.25
-34.446
-30.825
-26.529
-21.689
-16.444
-10.929
-5.269
0.374
5.828
10.971
15.719
20.023
23.875
27.265
30.191
32.684
34.788
36.557
38.048
39.312
40.394
41.35
42.241
43.134
44.101
45.196
46.456
47.91
49.578
51.475
53.613
55.991
58.6
61.43
64.478
67.74
71.215
74.895
78.767
82.818
87.032
91.393
95.887
100.497
105.203
109.988
114.833
119.72
124.63
129.541
134.43
139.272
144.039
148.704
153.241
157.623
161.821
165.811
169.569
173.07
176.296
179.224
181.836
184.116
186.047
187.617
188.812
189.623
190.041
190.06
189.676
188.886
187.691
186.091
184.089
181.692
178.907
175.742
172.208
168.318
164.086
159.528
154.662
149.508
144.086
138.419
132.527
126.436
120.168
113.749
107.201
100.548
93.814
87.022
80.195
73.354
66.522
59.718
52.962
46.275
39.674
33.176
26.799
20.557
14.465
8.538
2.787
-2.775
-8.137
-13.289
-18.223
-22.931
-27.408
-31.648
-35.648
-39.406
-42.923
-46.198
-49.233
-52.032
-54.598
-56.936
-59.051
-60.949
-62.638
-64.123
-65.413
-66.515
-67.437
-68.188
-68.776
-69.21
-69.498
-69.65
-69.674
-69.579
-69.375
-69.071
-68.679
-68.208
-67.668
-67.071
-66.427
-65.747
-65.04
-64.317
-63.586
-62.857
-62.137
-61.434
-60.754
-60.105
-59.49
-58.916
-58.386
-57.904
-57.472
-57.093
-56.769
-56.499
-56.286
-56.129
-56.029
-55.985
-55.997
-56.064
-56.183
-56.353
-56.571
-56.833
-57.136
-57.474
-57.842
-58.235
-58.645
-59.067
-59.494
-59.918
-60.333
-60.732
-61.108
-61.455
-61.766
-62.038
-62.264
-62.44
-62.564
-62.633
-62.645
-62.598
-62.493
-62.33
-62.109
-61.831
-61.499
-61.114
-60.678
-60.195
-59.67
-59.106
-58.508
-57.877
-57.219
-56.538
-55.842
-55.141
-54.436
-53.727
-53.034
-52.374
-51.761
-51.216
-50.732
-50.293
-49.923
-49.646
-49.421
-49.218
-49.013
-48.766
-48.511
-48.315
-48.139
-47.911
-47.806
-48.03
-48.453
-49.08
-49.945
-50.59
-52.227
-56.032
-60.305
-64.523
-65.567
-59.703
-51.043
-42.327
-37.637
-42.581
-52.181
-62.212
-69.777
-70.095
-66.568
-62.646
-59.089
-57.998
-58.142
-57.943
-57.696
-57.196
-56.547
-56.065
-55.542
-54.81
-53.926
-52.905
-51.728
-50.407
-48.957
-47.39
-45.742
-44.057
-42.328
-40.549
-38.734
-36.89
-35.028
-33.162
-31.297
-29.439
-27.604
-25.806
-24.059
-22.377
-20.771
-19.259
-17.857
-16.581
-15.446
-14.462
-13.631
-12.966
-12.484
-12.177
-12.047
-12.087
-12.282
-12.664
-13.271
-14.096
-15.133
-16.417
-17.956
-19.787
-21.967
-24.409
-27.011
-29.788
-32.764
-35.779
-38.668
-41.512
-44.209
-46.859
-50.101
-52.453
-52.612
-52.376
-51.807
-55.414
-68.325
-84.394
-100.113
-107.943
-98.104
-80.019
-60.926
-48.006
-52.022
-64.416
-77.39
-87.352
-87.37
-82.253
-77.224
-72.863
-71.616
-72.255
-72.996
-74.426
-76.639
-79.914
-84.582
-90.293
-96.593
-102.919
-108.625
-113.231
-116.048
-116.298
-113.872
-109.078
-102.519
-95.384
-88.815
-83.638
-80.856
-81.641
-84.666
-86.344
-84.879
-78.493
-67.775
-57.188
-42.968
-15.844
31.699
108.987
213.507
330.609
448.498
554.52
640.819
708.227
755.741
781.745
785.423
764.38
717.279
645.471
552.661
443.956
325.367
203.119
81.978
-33.434
-137.527
-225.742
-295.096
-344.238
-374.175
-387.101
-384.925
-370.482
-347.792
-320.865
-293.596
-268.529
-246.369
-227.228
-211.077
-197.339
-185
-172.732
-158.943
-142.976
-125.162
-106.037
-86.363
-66.919
-48.367
-31.595
-17.549
-6.676
0.969
5.555
7.473
7.045
4.538
0.371
-5.008
-11.185
-17.755
-24.444
-31.029
-37.237
-42.825
-47.561
-51.259
-53.847
-55.303
-55.624
-54.846
-53.022
-50.23
-46.61
-42.308
-37.466
-32.248
-26.782
-21.202
-15.667
-10.302
-5.207
-0.464
3.901
7.877
11.455
14.646
17.48
19.988
22.225
24.245
26.089
27.81
29.459
31.091
32.773
34.555
36.474
38.558
40.823
43.279
45.938
48.802
51.865
55.121
58.564
62.188
65.993
69.974
74.121
78.423
82.865
87.433
92.117
96.903
101.778
106.728
111.735
116.787
121.868
126.962
132.047
137.104
142.107
147.034
151.863
156.568
161.126
165.513
169.708
173.689
177.437
180.932
184.156
187.091
189.72
192.03
194.005
195.633
196.903
197.806
198.332
198.477
198.236
197.605
196.584
195.172
193.372
191.187
188.624
185.691
182.395
178.749
174.765
170.458
165.844
160.94
155.763
150.334
144.672
138.797
132.731
126.495
120.11
113.598
106.981
100.282
93.522
86.723
79.906
73.094
66.307
59.566
52.89
46.299
39.811
33.444
27.215
21.14
15.234
9.512
3.985
-1.335
-6.437
-11.314
-15.959
-20.364
-24.526
-28.44
-32.106
-35.521
-38.684
-41.598
-44.263
-46.683
-48.861
-50.802
-52.511
-53.996
-55.262
-56.319
-57.175
-57.839
-58.32
-58.629
-58.777
-58.776
-58.635
-58.368
-57.987
-57.503
-56.929
-56.276
-55.556
-54.781
-53.961
-53.107
-52.227
-51.333
-50.433
-49.536
-48.65
-47.784
-46.943
-46.137
-45.37
-44.65
-43.982
-43.37
-42.819
-42.332
-41.914
-41.566
-41.29
-41.088
-40.959
-40.904
-40.921
-41.01
-41.166
-41.388
-41.671
-42.013
-42.408
-42.853
-43.343
-43.875
-44.443
-45.045
-45.676
-46.332
-47.009
-47.703
-48.411
-49.129
-49.854
-50.58
-51.306
-52.026
-52.739
-53.439
-54.124
-54.79
-55.434
-56.053
-56.646
-57.21
-57.743
-58.246
-58.717
-59.159
-59.571
-59.955
-60.314
-60.649
-60.964
-61.259
-61.537
-61.801
-62.052
-62.292
-62.521
-62.742
-62.954
-63.159
-63.356
-63.545
-63.726
-63.899
-64.064
-64.221
-64.37
-64.511
-64.644
-64.77
-64.89
-65.003
-65.109
-65.208
-65.299
-65.38
-65.45
-65.505
-65.542
-65.558
-65.549
-65.511
-65.44
-65.332
-65.182
-64.988
-64.746
-64.452
-64.105
-63.701
-63.24
-62.72
-62.141
-61.504
-60.809
-60.057
-59.249
-58.386
-57.468
-56.497
-55.473
-54.397
-53.27
-52.093
-50.868
-49.596
-48.281
-46.925
-45.534
-44.111
-42.664
-41.198
-39.72
-38.238
-36.762
-35.299
-33.859
-32.451
-31.085
-29.772
-28.524
-27.354
-26.272
-25.292
-24.426
-23.684
-23.078
-22.618
-22.31
-22.16
-22.173
-22.354
-22.712
-23.255
-23.991
-24.925
-26.062
-27.403
-28.949
-30.696
-32.632
-34.745
-37.022
-39.458
-42.056
-44.822
-47.756
-50.855
-54.114
-57.512
-61.028
-64.627
-68.262
-71.883
-75.448
-78.913
-82.252
-85.437
-88.43
-91.18
-93.622
-95.677
-97.281
-98.377
-98.922
-98.92
-98.394
-97.402
-96.025
-94.325
-92.384
-90.295
-88.15
-86.078
-84.234
-82.753
-81.859
-81.898
-83.038
-85.306
-88.549
-92.148
-95.412
-97.835
-98.762
-97.467
-93.821
-88.039
-80.747
-74.025
-70.175
-70.454
-76.174
-87.205
-100.825
-115.728
-130.671
-144.043
-156.929
-165.742
-162.728
-138.15
-79.504
16.479
144.575
291.223
434.656
560.281
658.566
726.993
773.27
801.805
815.241
814.076
792.712
747.59
678.131
586.467
478.48
360.139
236.749
112.346
-9.735
-124.812
-228.182
-315.68
-383.998
-432.26
-461.019
-470.924
-463.472
-441.138
-407.076
-365.731
-321.594
-277.728
-236.697
-200.389
-169.946
-146.533
-130.328
-119.886
-113.394
-109.144
-105.189
-100.506
-94.507
-86.119
-75.055
-61.907
-47.416
-32.799
-19.516
-8.2
0.841
7.102
10.562
11.451
10.056
7.107
3.465
-0.381
-4.094
-7.349
-9.967
-11.766
-12.585
-12.455
-11.487
-9.745
-7.278
-4.111
-0.268
4.163
9.056
14.293
19.766
25.376
31.028
36.601
41.944
46.945
51.54
55.691
59.394
62.647
65.443
67.798
69.754
71.358
72.658
73.7
74.518
75.155
75.667
76.114
76.57
77.09
77.713
78.473
79.393
80.493
81.789
83.289
84.988
86.892
89.014
91.362
93.946
96.759
99.787
103.004
106.374
109.862
113.425
117.032
120.656
124.288
127.932
131.595
135.29
139.012
142.738
146.447
150.122
153.756
157.345
160.905
164.465
168.065
171.76
175.581
179.533
183.587
187.677
191.719
195.61
199.272
202.649
205.691
208.354
210.592
212.36
213.594
214.223
214.153
213.273
211.501
208.791
205.148
200.625
195.315
189.338
182.802
175.796
168.396
160.667
152.668
144.456
136.094
127.651
119.221
110.92
102.847
95.079
87.656
80.578
73.816
67.314
61.023
54.906
48.934
43.099
37.397
31.833
26.415
21.152
16.037
11.045
6.156
1.349
-3.377
-8.01
-12.524
-16.884
-21.056
-25.01
-28.724
-32.187
-35.393
-38.347
-41.056
-43.536
-45.796
-47.84
-49.671
-51.291
-52.702
-53.914
-54.936
-55.782
-56.463
-56.995
-57.39
-57.66
-57.814
-57.86
-57.802
-57.644
-57.39
-57.044
-56.611
-56.099
-55.512
-54.859
-54.146
-53.381
-52.57
-51.719
-50.834
-49.918
-48.976
-48.013
-47.03
-46.033
-45.024
-44.007
-42.986
-41.963
-40.943
-39.929
-38.925
-37.934
-36.959
-36.004
-35.072
-34.168
-33.293
-32.453
-31.651
-30.889
-30.173
-29.505
-28.889
-28.327
-27.823
-27.377
-26.992
-26.67
-26.411
-26.216
-26.087
-26.024
-26.029
-26.103
-26.247
-26.461
-26.745
-27.101
-27.527
-28.023
-28.588
-29.222
-29.921
-30.685
-31.511
-32.397
-33.338
-34.333
-35.376
-36.464
-37.592
-38.754
-39.946
-41.161
-42.395
-43.643
-44.899
-46.157
-47.414
-48.663
-49.9
-51.12
-52.317
-53.487
-54.623
-55.721
-56.775
-57.781
-58.733
-59.627
-60.457
-61.22
-61.911
-62.526
-63.06
-63.512
-63.876
-64.152
-64.336
-64.427
-64.425
-64.329
-64.14
-63.859
-63.486
-63.022
-62.47
-61.83
-61.103
-60.292
-59.398
-58.422
-57.368
-56.237
-55.033
-53.757
-52.413
-51.005
-49.535
-48.007
-46.425
-44.792
-43.113
-41.392
-39.634
-37.845
-36.03
-34.194
-32.344
-30.485
-28.621
-26.759
-24.903
-23.058
-21.229
-19.422
-17.644
-15.9
-14.197
-12.544
-10.95
-9.426
-7.98
-6.623
-5.368
-4.225
-3.206
-2.323
-1.583
-0.996
-0.573
-0.32
-0.249
-0.366
-0.679
-1.198
-1.93
-2.882
-4.06
-5.465
-7.095
-8.943
-11.008
-13.288
-15.788
-18.513
-21.457
-24.616
-27.987
-31.555
-35.303
-39.195
-43.171
-47.175
-51.154
-55.059
-58.859
-62.515
-65.983
-69.216
-72.155
-74.748
-76.963
-78.761
-80.11
-81.002
-81.459
-81.571
-81.483
-81.333
-81.247
-81.314
-81.591
-82.16
-83.096
-84.465
-86.397
-88.998
-92.378
-96.74
-102.175
-108.645
-116.007
-123.733
-131.034
-137.181
-141.322
-142.631
-140.791
-135.545
-127.153
-117.026
-106.786
-98.412
-92.577
-87.659
-82.255
-74.866
-68.705
-71.766
-85.651
-107.788
-125.237
-112.425
-56.195
48.773
198.775
368.042
536.329
684.689
789.223
845.934
856.732
828.789
782.524
728.038
666.568
597.174
513.084
413.222
303.037
188.272
75.156
-32.135
-130.653
-217.968
-292.635
-353.131
-399.121
-430.937
-448.473
-452.47
-445
-427.91
-403.064
-373.148
-340.045
-305.416
-271.475
-239.572
-210.109
-183.843
-161.586
-143.013
-127.704
-114.997
-103.347
-91.921
-80.849
-69.859
-58.293
-46.179
-33.936
-22.266
-12.768
-6.464
-2.923
-1.787
-3.115
-6.648
-11.911
-18.319
-24.454
-29.107
-32.602
-35.298
-37.19
-38.46
-39.096
-39.018
-38.829
-39.154
-39.592
-39.783
-39.588
-38.73
-37.31
-35.516
-33.152
-30.031
-26.391
-22.427
-18.3
-14.25
-10.287
-6.409
-2.736
0.671
3.825
6.743
9.476
12.084
14.572
16.961
19.288
21.573
23.852
26.151
28.492
30.908
33.436
36.122
39
42.093
45.414
48.971
52.763
56.788
61.035
65.483
70.113
74.914
79.862
84.941
90.132
95.408
100.747
106.127
111.513
116.874
122.195
127.459
132.648
137.751
142.731
147.544
152.186
156.652
160.872
164.787
168.346
171.485
174.217
176.591
178.549
180.002
181.121
182.115
182.841
183.302
183.534
183.058
183.153
185.065
187.019
188.479
186.183
176.23
162.959
149.271
139.479
139.502
144.135
148.969
150.991
145.207
135.222
124.691
114.444
106.717
100.249
93.409
86.538
79.448
72.273
65.374
58.555
51.663
44.78
37.94
31.143
24.414
17.784
11.277
4.941
-1.171
-7.062
-12.734
-18.172
-23.366
-28.309
-32.991
-37.412
-41.572
-45.466
-49.091
-52.448
-55.536
-58.359
-60.919
-63.222
-65.272
-67.076
-68.642
-69.978
-71.095
-72.002
-72.711
-73.235
-73.586
-73.777
-73.823
-73.735
-73.528
-73.214
-72.808
-72.321
-71.765
-71.153
-70.495
-69.802
-69.086
-68.355
-67.619
-66.886
-66.165
-65.462
-64.785
-64.14
-63.533
-62.967
-62.449
-61.981
-61.567
-61.209
-60.908
-60.665
-60.479
-60.349
-60.272
-60.247
-60.268
-60.332
-60.435
-60.571
-60.735
-60.923
-61.128
-61.346
-61.572
-61.8
-62.025
-62.241
-62.444
-62.628
-62.79
-62.924
-63.027
-63.095
-63.124
-63.111
-63.054
-62.953
-62.805
-62.604
-62.344
-62.025
-61.644
-61.208
-60.717
-60.159
-59.544
-58.897
-58.24
-57.596
-56.973
-56.34
-55.696
-55.085
-54.487
-53.829
-53.055
-52.105
-50.974
-49.769
-48.529
-47.152
-45.748
-44.712
-44.141
-43.919
-44.101
-44.283
-45.208
-49.308
-56.131
-63.422
-67.57
-61.675
-45.97
-27.428
-12.932
-12.265
-26.3
-45.729
-63.335
-71.404
-68.379
-61.195
-54.172
-50.18
-50.172
-51.315
-52.271
-53.137
-53.799
-54.667
-55.853
-56.963
-57.869
-58.628
-59.221
-59.623
-59.841
-59.883
-59.778
-59.584
-59.318
-58.943
-58.446
-57.827
-57.082
-56.211
-55.212
-54.076
-52.802
-51.396
-49.861
-48.203
-46.427
-44.538
-42.541
-40.443
-38.254
-35.98
-33.633
-31.221
-28.754
-26.244
-23.701
-21.139
-18.568
-16.001
-13.451
-10.931
-8.458
-6.046
-3.712
-1.471
0.66
2.665
4.527
6.231
7.765
9.117
10.275
11.228
11.964
12.471
12.737
12.754
12.513
12.008
11.235
10.192
8.883
7.313
5.489
3.412
1.074
-1.53
-4.4
-7.529
-10.906
-14.512
-18.322
-22.298
-26.387
-30.537
-34.696
-38.82
-42.876
-46.825
-50.624
-54.212
-57.514
-60.459
-62.991
-65.074
-66.681
-67.805
-68.48
-68.78
-68.825
-68.724
-68.554
-68.393
-68.327
-68.483
-69.016
-70.071
-71.769
-74.281
-77.843
-82.54
-88.277
-94.718
-101.243
-107.31
-112.526
-116.377
-118.191
-117.645
-114.929
-110.815
-106.732
-103.639
-101.769
-101.728
-104.25
-109.31
-116.151
-121.365
-120.523
-111.968
-93.864
-66.825
-31.355
17.423
79.867
157.031
251.12
357.415
475.267
599.471
714.587
805.999
858.503
864.632
831.28
771.475
697.285
616.346
530.006
435.352
332.032
222.806
111.63
4.788
-92.056
-175.789
-244.39
-297.524
-336.27
-361.16
-372.642
-372.508
-363.452
-348.6
-331.313
-313.531
-295.796
-278.725
-262.757
-247.797
-233.441
-218.638
-202.004
-183.131
-162.44
-140.521
-118.181
-96.119
-74.92
-55.454
-38.669
-25.085
-14.847
-7.82
-3.65
-2.023
-2.662
-5.207
-9.215
-14.226
-19.798
-25.535
-31.113
-36.274
-40.783
-44.413
-47.004
-48.459
-48.735
-47.871
-45.931
-42.988
-39.144
-34.524
-29.266
-23.553
-17.577
-11.53
-5.6
0.073
5.388
10.246
14.589
18.384
21.619
24.319
26.527
28.275
29.606
30.57
31.218
31.617
31.845
31.976
32.092
32.26
32.53
32.95
33.555
34.372
35.424
36.721
38.265
40.064
42.129
44.465
47.082
49.982
53.16
56.614
60.333
64.309
68.529
72.981
77.65
82.52
87.575
92.796
98.164
103.659
109.255
114.924
120.636
126.362
132.069
137.728
143.304
148.765
154.079
159.216
164.146
168.838
173.264
177.396
181.207
184.672
187.766
190.469
192.759
194.62
196.035
196.992
197.48
197.493
197.025
196.076
194.645
192.738
190.36
187.521
184.232
180.508
176.366
171.823
166.9
161.619
156.005
150.081
143.876
137.415
130.727
123.841
116.784
109.588
102.281
94.893
87.453
79.99
72.532
65.108
57.745
50.468
43.303
36.273
29.4
22.706
16.208
9.926
3.875
-1.932
-7.483
-12.766
-17.774
-22.5
-26.94
-31.091
-34.951
-38.52
-41.8
-44.794
-47.506
-49.941
-52.106
-54.008
-55.656
-57.06
-58.228
-59.173
-59.905
-60.435
-60.776
-60.94
-60.938
-60.782
-60.486
-60.06
-59.518
-58.871
-58.131
-57.31
-56.418
-55.468
-54.468
-53.429
-52.36
-51.27
-50.166
-49.058
-47.951
-46.854
-45.772
-44.712
-43.68
-42.68
-41.718
-40.797
-39.922
-39.096
-38.322
-37.604
-36.944
-36.344
-35.807
-35.335
-34.93
-34.592
-34.324
-34.125
-33.996
-33.936
-33.944
-34.018
-34.157
-34.358
-34.619
-34.936
-35.306
-35.726
-36.189
-36.693
-37.231
-37.798
-38.389
-38.998
-39.619
-40.245
-40.872
-41.493
-42.102
-42.693
-43.262
-43.802
-44.307
-44.773
-45.195
-45.569
-45.889
-46.153
-46.357
-46.5
-46.579
-46.595
-46.546
-46.435
-46.262
-46.03
-45.741
-45.401
-45.014
-44.585
-44.121
-43.629
-43.115
-42.586
-42.052
-41.518
-40.994
-40.486
-40.003
-39.55
-39.137
-38.767
-38.449
-38.186
-37.984
-37.847
-37.778
-37.778
-37.85
-37.993
-38.208
-38.491
-38.842
-39.256
-39.729
-40.254
-40.826
-41.436
-42.076
-42.735
-43.404
-44.07
-44.72
-45.344
-45.928
-46.46
-46.927
-47.316
-47.617
-47.818
-47.907
-47.876
-47.714
-47.414
-46.969
-46.372
-45.62
-44.711
-43.643
-42.417
-41.033
-39.497
-37.811
-35.984
-34.023
-31.937
-29.736
-27.434
-25.044
-22.582
-20.066
-17.512
-14.941
-12.375
-9.839
-7.355
-4.948
-2.644
-0.467
1.558
3.41
5.069
6.516
7.735
8.712
9.429
9.872
10.028
9.882
9.426
8.654
7.559
6.142
4.413
2.384
0.065
-2.533
-5.413
-8.578
-12.017
-15.716
-19.675
-23.877
-28.293
-32.884
-37.57
-42.262
-46.916
-51.492
-55.897
-60.053
-63.882
-67.291
-70.254
-72.769
-74.739
-76.061
-76.875
-77.401
-77.586
-77.526
-77.382
-76.85
-77.218
-79.701
-82.718
-85.849
-86.116
-80.004
-71.699
-64.019
-61.232
-69.182
-83.068
-98.248
-111.097
-116.138
-115.782
-114.041
-112.112
-110.162
-106.752
-98.08
-82.461
-65.769
-52.246
-47.332
-57.505
-75.897
-93.767
-105.213
-102.389
-89.248
-75.892
-61.101
-36.546
12.693
106.82
246.782
411.011
569.716
689.634
753.387
768.793
754.386
728.319
700.881
668.522
620.641
552.35
464.663
363.15
256.701
150.538
46.659
-52.323
-143.425
-223.694
-290.116
-341.139
-376.965
-397.829
-404.078
-397.175
-379.773
-355.071
-326.589
-297.323
-268.912
-242.396
-218.602
-197.875
-179.829
-163.785
-148.714
-133.262
-116.925
-99.878
-82.37
-64.819
-47.812
-31.716
-16.98
-4.582
4.975
11.704
15.676
17.225
16.697
14.189
9.894
4.407
-1.767
-8.279
-14.771
-21.079
-26.994
-32.161
-36.323
-39.377
-41.292
-42.105
-41.875
-40.61
-38.359
-35.23
-31.343
-26.848
-21.88
-16.532
-10.908
-5.126
0.669
6.317
11.704
16.768
21.473
25.808
29.764
33.339
36.561
39.479
42.14
44.595
46.881
49.026
51.067
53.052
55.033
57.068
59.203
61.461
63.865
66.428
69.162
72.075
75.165
78.416
81.822
85.375
89.072
92.915
96.896
101.005
105.233
109.566
113.993
118.503
123.084
127.72
132.4
137.109
141.833
146.559
151.272
155.953
160.583
165.139
169.599
173.943
178.145
182.184
186.035
189.677
193.088
196.248
199.136
201.733
204.02
205.98
207.597
208.855
209.742
210.244
210.352
210.058
209.355
208.237
206.702
204.748
202.375
199.587
196.388
192.784
188.783
184.396
179.636
174.517
169.057
163.272
157.184
150.815
144.188
137.328
130.261
123.013
115.613
108.088
100.466
92.776
85.048
77.309
69.587
61.911
54.307
46.802
39.421
32.189
25.128
18.261
11.609
5.191
-0.975
-6.873
-12.487
-17.805
-22.815
-27.508
-31.877
-35.915
-39.62
-42.99
-46.026
-48.731
-51.109
-53.167
-54.913
-56.357
-57.511
-58.387
-59
-59.364
-59.495
-59.41
-59.126
-58.661
-58.031
-57.256
-56.352
-55.338
-54.231
-53.048
-51.806
-50.521
-49.21
-47.888
-46.57
-45.269
-44
-42.773
-41.602
-40.496
-39.464
-38.515
-37.656
-36.892
-36.227
-35.664
-35.205
-34.851
-34.6
-34.451
-34.401
-34.445
-34.581
-34.8
-35.099
-35.47
-35.906
-36.4
-36.944
-37.53
-38.152
-38.801
-39.471
-40.153
-40.841
-41.527
-42.205
-42.869
-43.512
-44.128
-44.712
-45.259
-45.764
-46.224
-46.635
-46.995
-47.303
-47.557
-47.758
-47.905
-48.002
-48.051
-48.054
-48.016
-47.942
-47.837
-47.708
-47.562
-47.406
-47.246
-47.091
-46.947
-46.822
-46.723
-46.657
-46.629
-46.645
-46.712
-46.833
-47.015
-47.26
-47.572
-47.954
-48.409
-48.938
-49.542
-50.222
-50.976
-51.804
-52.704
-53.673
-54.707
-55.802
-56.953
-58.152
-59.393
-60.667
-61.964
-63.273
-64.585
-65.887
-67.168
-68.415
-69.617
-70.763
-71.839
-72.836
-73.743
-74.55
-75.246
-75.823
-76.273
-76.589
-76.763
-76.792
-76.669
-76.392
-75.958
-75.365
-74.612
-73.699
-72.627
-71.398
-70.013
-68.477
-66.795
-64.974
-63.022
-60.948
-58.762
-56.477
-54.107
-51.665
-49.167
-46.628
-44.063
-41.491
-38.926
-36.385
-33.887
-31.449
-29.091
-26.832
-24.69
-22.686
-20.835
-19.157
-17.666
-16.377
-15.298
-14.44
-13.812
-13.422
-13.281
-13.398
-13.777
-14.422
-15.336
-16.517
-17.965
-19.672
-21.622
-23.802
-26.199
-28.811
-31.641
-34.692
-37.959
-41.431
-45.094
-48.93
-52.917
-57.022
-61.192
-65.373
-69.51
-73.558
-77.481
-81.236
-84.764
-87.99
-90.825
-93.192
-95.029
-96.295
-96.967
-97.031
-96.5
-95.417
-93.85
-91.905
-89.713
-87.409
-85.153
-83.112
-81.448
-80.406
-80.316
-81.372
-83.578
-86.711
-90.277
-93.806
-96.993
-99.417
-100.442
-99.694
-97.326
-94.132
-91.64
-91.317
-93.86
-99.675
-109.315
-122.723
-138.719
-154.949
-167.486
-172.012
-165.538
-145.693
-109.815
-56.231
15.158
102.944
203.024
309.825
418.803
525.161
622.632
705.354
768.203
806.74
819.308
805.953
766.025
700.388
612.801
507.815
390.873
268.716
146.976
30.703
-73.41
-161.241
-233.042
-287.347
-322.843
-338.832
-330.995
-303.031
-267.401
-234.146
-214.649
-213.046
-220.584
-232.149
-242.939
-245.898
-243.042
-233.117
-212.788
-188.077
-161.253
-135.415
-116.66
-102.593
-91.579
-83.227
-74.865
-67.828
-63.538
-61.222
-60.821
-61.468
-61.964
-62.691
-63.987
-65.606
-67.46
-69.262
-70.679
-71.822
-72.868
-73.518
-73.518
-72.738
-70.992
-68.363
-64.993
-60.875
-56.03
-50.572
-44.626
-38.394
-32.134
-25.999
-20.084
-14.466
-9.166
-4.231
0.293
4.395
8.075
11.352
14.248
16.77
18.925
20.735
22.241
23.508
24.625
25.659
26.657
27.661
28.695
29.791
30.979
32.274
33.682
35.212
36.873
38.682
40.66
42.822
45.174
47.719
50.452
53.373
56.479
59.766
63.227
66.853
70.633
74.559
78.623
82.813
87.112
91.5
95.955
100.453
104.971
109.48
113.954
118.363
122.68
126.877
130.928
134.806
138.484
141.938
145.143
148.075
150.713
153.035
155.022
156.655
157.919
158.8
159.285
159.366
159.035
158.287
157.122
155.538
153.541
151.134
148.325
145.125
141.546
137.603
133.312
128.693
123.766
118.552
113.076
107.362
101.435
95.322
89.049
82.642
76.128
69.533
62.884
56.207
49.528
42.872
36.263
29.725
23.28
16.95
10.755
4.715
-1.155
-6.837
-12.317
-17.583
-22.625
-27.432
-31.997
-36.315
-40.38
-44.191
-47.747
-51.048
-54.095
-56.892
-59.444
-61.756
-63.835
-65.689
-67.325
-68.754
-69.984
-71.027
-71.891
-72.59
-73.133
-73.532
-73.799
-73.944
-73.979
-73.915
-73.762
-73.53
-73.23
-72.87
-72.457
-72.002
-71.509
-70.986
-70.439
-69.874
-69.293
-68.702
-68.104
-67.503
-66.9
-66.297
-65.694
-65.094
-64.499
-63.912
-63.333
-62.76
-62.19
-61.627
-61.077
-60.528
-59.967
-59.386
-58.771
-58.132
-57.492
-56.831
-56.13
-55.432
-54.773
-54.179
-53.694
-53.283
-52.878
-52.518
-52.276
-51.97
-51.384
-50.652
-49.761
-48.675
-47.864
-46.068
-42.063
-37.606
-33.231
-32.16
-38.253
-47.244
-56.293
-61.167
-56.051
-46.095
-35.662
-27.745
-27.287
-30.759
-34.586
-37.977
-38.756
-38.191
-37.915
-37.621
-37.521
-37.507
-37.252
-36.974
-36.848
-36.818
-36.872
-37.033
-37.298
-37.654
-38.096
-38.592
-39.104
-39.647
-40.235
-40.861
-41.525
-42.226
-42.959
-43.73
-44.54
-45.387
-46.265
-47.171
-48.101
-49.05
-50.011
-50.975
-51.935
-52.884
-53.813
-54.716
-55.586
-56.417
-57.205
-57.949
-58.644
-59.285
-59.863
-60.372
-60.8
-61.141
-61.385
-61.52
-61.538
-61.431
-61.194
-60.829
-60.332
-59.696
-58.912
-57.967
-56.851
-55.567
-54.115
-52.497
-50.729
-48.828
-46.833
-44.794
-42.743
-40.7
-38.675
-36.663
-34.666
-32.684
-30.699
-28.711
-26.734
-24.772
-22.842
-20.954
-19.054
-17.109
-15.102
-12.913
-10.403
-7.494
-4.115
-0.294
3.815
8.13
12.685
17.247
21.298
24.656
27.381
29.383
31.045
31.448
27.861
20.688
12.247
6.445
10.707
24.613
40.687
51.511
46.597
25.371
-2.018
-27.708
-43.258
-47.095
-46.592
-46.225
-48.978
-55.656
-63.081
-69.752
-75.654
-80.566
-84.853
-88.565
-91.302
-93.018
-93.827
-93.766
-92.855
-91.132
-88.734
-85.861
-82.748
-79.618
-76.623
-73.921
-71.791
-70.6
-70.586
-71.775
-73.926
-76.513
-79.035
-81.15
-82.433
-82.242
-80.219
-76.635
-72.355
-68.97
-68.154
-70.829
-77.691
-89.641
-106.629
-127.091
-148.422
-166.597
-176.795
-175.269
-158.79
-123.461
-68.234
4.199
92.27
193.157
304.54
428.377
557.633
677.538
773.92
830.811
844.984
826.416
784.038
727.201
659.519
578.311
484.908
382.322
274.797
168.873
69.235
-19.986
-95.376
-156.226
-203.146
-237.489
-260.731
-274.09
-279.309
-279.307
-277.243
-275.069
-273.447
-272.094
-270.55
-268.534
-265.589
-260.677
-252.427
-240.115
-223.822
-204.168
-182.069
-158.38
-133.865
-109.42
-86.067
-64.543
-45.288
-28.585
-14.488
-2.99
5.903
12.322
16.484
18.572
18.798
17.41
14.633
10.76
6.112
0.926
-4.577
-10.165
-15.623
-20.682
-25.083
-28.676
-31.372
-33.102
-33.843
-33.578
-32.312
-30.14
-27.192
-23.566
-19.364
-14.718
-9.737
-4.549
0.695
5.899
10.99
15.841
20.329
24.602
28.861
32.962
36.913
40.791
44.171
48.379
54.703
61.39
67.919
71.053
66.916
59.893
52.928
50.362
58.127
71.006
84.572
95.789
99.633
99.677
99.537
100.001
103.273
108.05
112.664
117.411
122.059
126.697
131.637
136.639
141.506
146.275
150.936
155.448
159.797
163.979
167.982
171.823
175.518
179.035
182.339
185.417
188.252
190.828
193.132
195.149
196.86
198.26
199.343
200.101
200.532
200.63
200.392
199.819
198.911
197.67
196.1
194.207
191.997
189.478
186.66
183.552
180.166
176.515
172.611
168.469
164.104
159.532
154.768
149.831
144.736
139.503
134.15
128.693
123.152
117.543
111.884
106.193
100.486
94.778
89.085
83.422
77.803
72.241
66.752
61.345
56.034
50.828
45.738
40.774
35.943
31.252
26.709
22.318
18.086
14.016
10.112
6.376
2.811
-0.583
-3.804
-6.853
-9.732
-12.44
-14.981
-17.356
-19.568
-21.619
-23.513
-25.253
-26.844
-28.288
-29.591
-30.757
-31.792
-32.7
-33.486
-34.157
-34.718
-35.174
-35.531
-35.794
-35.968
-36.06
-36.074
-36.015
-35.889
-35.699
-35.452
-35.152
-34.802
-34.408
-33.972
-33.501
-32.996
-32.463
-31.904
-31.323
-30.724
-30.111
-29.487
-28.855
-28.219
-27.581
-26.944
-26.311
-25.684
-25.066
-24.458
-23.862
-23.279
-22.712
-22.162
-21.63
-21.117
-20.625
-20.155
-19.708
-19.286
-18.889
-18.519
-18.176
-17.863
-17.58
-17.329
-17.11
-16.924
-16.772
-16.656
-16.575
-16.532
-16.525
-16.557
-16.627
-16.736
-16.885
-17.075
-17.305
-17.578
-17.893
-18.251
-18.655
-19.103
-19.598
-20.14
-20.73
-21.368
-22.055
-22.791
-23.576
-24.409
-25.29
-26.219
-27.195
-28.216
-29.282
-30.391
-31.543
-32.735
-33.966
-35.235
-36.539
-37.876
-39.244
-40.64
-42.061
-43.505
-44.967
-46.446
-47.937
-49.436
-50.938
-52.44
-53.936
-55.421
-56.889
-58.336
-59.755
-61.142
-62.491
-63.797
-65.055
-66.261
-67.41
-68.497
-69.519
-70.47
-71.346
-72.143
-72.858
-73.485
-74.02
-74.46
-74.802
-75.042
-75.178
-75.207
-75.127
-74.936
-74.634
-74.219
-73.691
-73.051
-72.302
-71.444
-70.481
-69.419
-68.26
-67.011
-65.677
-64.266
-62.784
-61.24
-59.64
-57.993
-56.309
-54.597
-52.866
-51.128
-49.393
-47.675
-45.988
-44.347
-42.769
-41.27
-39.868
-38.58
-37.422
-36.411
-35.56
-34.881
-34.385
-34.081
-33.983
-34.101
-34.445
-35.021
-35.835
-36.891
-38.192
-39.738
-41.518
-43.523
-45.743
-48.174
-50.821
-53.689
-56.776
-60.077
-63.585
-67.282
-71.145
-75.139
-79.208
-83.295
-87.342
-91.292
-95.101
-98.725
-102.106
-105.177
-107.862
-110.081
-111.78
-112.912
-113.44
-113.369
-112.733
-111.598
-110.07
-108.252
-106.257
-104.212
-102.239
-100.451
-98.998
-98.027
-97.759
-98.501
-100.354
-103.28
-107.168
-111.628
-116.174
-120.358
-123.439
-124.532
-123.384
-120.075
-114.771
-108.636
-103.116
-99.277
-98.748
-101.5
-104.688
-106.229
-105.448
-105.047
-110.264
-120.505
-126.993
-112.767
-61.624
29.372
152.143
288.499
421.381
546.298
658.824
754.219
826.892
863.854
861.405
826.466
765.96
690.399
605.344
508.822
402.077
288.056
170.721
56.86
-47.883
-139.95
-216.743
-276.773
-320.152
-348.146
-361.924
-363.319
-355.315
-340.802
-322.938
-304.933
-288.247
-273.23
-260.235
-249.024
-238.892
-229.188
-218.743
-206.233
-191.353
-174.401
-155.843
-136.399
-116.696
-97.234
-78.732
-61.978
-47.426
-35.243
-25.396
-17.684
-11.924
-7.97
-5.603
-4.529
-4.473
-5.184
-6.45
-8.156
-10.216
-12.508
-14.933
-17.375
-19.681
-21.74
-23.455
-24.701
-25.407
-25.537
-25.071
-24.054
-22.553
-20.629
-18.357
-15.793
-12.962
-9.905
-6.656
-3.245
0.264
3.809
7.327
10.719
13.919
16.89
19.605
22.068
24.306
26.336
28.192
29.921
31.548
33.099
34.595
36.05
37.491
38.961
40.499
42.141
43.935
45.934
48.181
50.71
53.524
56.583
59.872
63.414
67.165
71.018
74.888
78.687
82.391
86.102
89.839
93.454
97.048
101.062
105.586
110.454
115.705
120.836
126.692
136.133
148.622
161.452
170.339
167.089
151.902
133.028
118.592
120.153
138.806
163.502
185.673
196.187
193.137
184.735
176.118
170.676
169.566
169.441
168.707
167.496
165.678
163.753
161.87
159.579
156.743
153.449
149.697
145.475
140.815
135.751
130.342
124.682
118.816
112.729
106.431
99.951
93.309
86.534
79.651
72.672
65.622
58.53
51.424
44.331
37.274
30.277
23.364
16.558
9.881
3.354
-3.001
-9.166
-15.124
-20.856
-26.348
-31.587
-36.559
-41.255
-45.664
-49.78
-53.597
-57.112
-60.322
-63.227
-65.83
-68.133
-70.14
-71.858
-73.294
-74.456
-75.354
-75.998
-76.399
-76.569
-76.522
-76.271
-75.83
-75.214
-74.438
-73.518
-72.468
-71.304
-70.042
-68.696
-67.282
-65.815
-64.308
-62.775
-61.229
-59.682
-58.146
-56.631
-55.145
-53.697
-52.293
-50.94
-49.641
-48.4
-47.222
-46.107
-45.058
-44.076
-43.163
-42.318
-41.541
-40.832
-40.189
-39.612
-39.097
-38.642
-38.244
-37.899
-37.605
-37.356
-37.149
-36.979
-36.841
-36.729
-36.639
-36.566
-36.505
-36.45
-36.399
-36.348
-36.292
-36.232
-36.165
-36.089
-36.005
-35.913
-35.812
-35.703
-35.585
-35.459
-35.325
-35.184
-35.034
-34.877
-34.712
-34.541
-34.364
-34.182
-33.997
-33.809
-33.622
-33.437
-33.257
-33.086
-32.928
-32.787
-32.669
-32.578
-32.518
-32.496
-32.515
-32.58
-32.693
-32.859
-33.078
-33.353
-33.685
-34.075
-34.523
-35.028
-35.592
-36.212
-36.89
-37.624
-38.413
-39.257
-40.155
-41.104
-42.101
-43.144
-44.23
-45.352
-46.508
-47.691
-48.894
-50.109
-51.329
-52.543
-53.744
-54.918
-56.054
-57.137
-58.154
-59.097
-59.957
-60.726
-61.395
-61.956
-62.401
-62.724
-62.92
-62.98
-62.895
-62.653
-62.246
-61.67
-60.93
-60.028
-58.964
-57.729
-56.311
-54.702
-52.897
-50.897
-48.697
-46.295
-43.692
-40.9
-37.943
-34.852
-31.65
-28.355
-24.968
-21.486
-17.924
-14.326
-10.764
-7.319
-4.04
-0.937
1.997
4.75
7.285
9.534
11.504
13.308
14.956
16.28
16.92
16.476
14.842
12.317
9.27
5.801
2.074
-1.472
-3.965
-4.315
-2.103
2.077
7.158
12.45
17.439
21.47
23.421
21.773
15.808
6.167
-5.703
-18.66
-31.982
-45.072
-57.096
-66.782
-73.362
-77.139
-79.125
-80.175
-80.704
-80.835
-80.673
-80.653
-81.124
-81.972
-82.76
-83.075
-82.733
-81.822
-80.558
-79.041
-77.34
-75.595
-73.989
-72.828
-72.465
-73.081
-74.682
-77.047
-79.691
-82.184
-84.223
-85.39
-85.189
-83.296
-79.678
-75.1
-71.083
-68.995
-69.879
-74.401
-82.834
-95.224
-110.963
-127.815
-142.213
-150.44
-148.853
-134.81
-106.479
-61.801
0.23
78.388
169.782
270.089
373.95
476.946
574.72
661.342
731.448
780.922
806.429
807.048
783.46
735.603
664.51
573.593
466.764
349.029
226.467
103.517
-15.858
-126.418
-223.843
-305.052
-367.487
-410.911
-436.927
-446.761
-442.33
-426.982
-403.934
-376.652
-348.751
-322.042
-297.127
-274.577
-254.306
-235.608
-217.817
-199.847
-180.422
-159.297
-136.852
-113.576
-90.295
-67.858
-46.956
-28.42
-13.051
-1.141
7.347
12.62
15.096
15.143
13.088
9.397
4.552
-1.033
-6.985
-13.008
-18.858
-24.229
-28.824
-32.441
-34.943
-36.286
-36.488
-35.575
-33.597
-30.651
-26.861
-22.383
-17.376
-11.977
-6.325
-0.555
5.195
10.757
15.993
20.814
25.166
29.031
32.416
35.325
37.783
39.841
41.562
43.012
44.248
45.317
46.269
47.161
48.059
49.034
50.145
51.43
52.919
54.636
56.6
58.828
61.33
64.096
67.107
70.364
73.866
77.602
81.562
85.728
90.056
94.551
99.246
104.126
109.181
114.433
119.855
125.448
131.276
137.249
143.189
149.039
154.761
160.144
165.065
169.652
173.738
177.393
181.488
184.846
186.127
187.066
187.655
191.963
206.462
226.252
246.086
257.542
247.091
220.584
190.041
166.262
165.241
183.728
207.76
228.497
234.947
227.219
214.775
202.024
192.547
187.088
182.121
176.513
170.539
164.07
157.615
151.315
144.763
137.856
130.69
123.251
115.515
107.546
99.405
91.161
82.919
74.729
66.584
58.506
50.534
42.691
35.005
27.499
20.186
13.085
6.223
-0.381
-6.71
-12.75
-18.489
-23.919
-29.032
-33.821
-38.283
-42.418
-46.224
-49.705
-52.864
-55.706
-58.24
-60.472
-62.412
-64.072
-65.463
-66.598
-67.49
-68.153
-68.602
-68.852
-68.918
-68.816
-68.562
-68.171
-67.659
-67.042
-66.333
-65.549
-64.702
-63.806
-62.874
-61.916
-60.942
-59.963
-58.987
-58.02
-57.069
-56.139
-55.235
-54.36
-53.517
-52.708
-51.934
-51.196
-50.495
-49.831
-49.203
-48.612
-48.055
-47.532
-47.042
-46.584
-46.155
-45.755
-45.381
-45.032
-44.705
-44.4
-44.114
-43.846
-43.594
-43.357
-43.134
-42.925
-42.728
-42.545
-42.374
-42.218
-42.076
-41.949
-41.84
-41.75
-41.68
-41.633
-41.609
-41.612
-41.642
-41.701
-41.79
-41.91
-42.062
-42.247
-42.466
-42.719
-43.006
-43.328
-43.686
-44.079
-44.508
-44.973
-45.474
-46.01
-46.581
-47.188
-47.829
-48.504
-49.212
-49.952
-50.723
-51.523
-52.352
-53.207
-54.086
-54.987
-55.908
-56.845
-57.796
-58.758
-59.729
-60.705
-61.683
-62.661
-63.635
-64.602
-65.558
-66.501
-67.425
-68.326
-69.199
-70.04
-70.844
-71.605
-72.317
-72.977
-73.577
-74.114
-74.582
-74.975
-75.287
-75.514
-75.649
-75.687
-75.624
-75.454
-75.173
-74.776
-74.262
-73.627
-72.874
-71.997
-70.991
-69.852
-68.578
-67.167
-65.627
-63.957
-62.144
-60.201
-58.156
-56.035
-53.867
-51.657
-49.375
-47.027
-44.665
-42.265
-39.75
-37.066
-34.149
-31.013
-27.788
-24.511
-21.075
-17.647
-14.681
-12.256
-10.277
-8.822
-7.397
-7.053
-10.5
-16.88
-23.854
-27.095
-18.883
-0.5
20.487
36.258
35.757
19.367
-2.696
-22.61
-31.585
-28.949
-22.394
-16.357
-14.192
-16.528
-20.194
-23.958
-27.868
-31.835
-36.339
-41.417
-46.613
-51.777
-56.91
-61.932
-66.77
-71.387
-75.761
-79.889
-83.782
-87.392
-90.607
-93.345
-95.557
-97.179
-98.188
-98.623
-98.533
-98.009
-97.177
-96.107
-94.879
-93.638
-92.461
-91.38
-90.521
-89.967
-89.895
-90.664
-92.412
-95.03
-98.438
-102.471
-106.591
-110.138
-112.485
-112.605
-111.133
-110.538
-111.147
-112.547
-112.18
-103.831
-87.766
-69.209
-55.314
-57.426
-77.767
-109.505
-140.546
-152.13
-131.568
-73.136
18.937
129.734
246.252
356.266
454.48
543.865
623.245
690.18
741.132
769.646
773.691
755.056
714.694
654.098
576.013
483.025
379.067
269.371
157.624
46.421
-60.454
-158.747
-244.818
-315.321
-368.927
-406.374
-428.221
-434.868
-427.851
-409.553
-382.845
-351.251
-317.112
-281.494
-245.598
-210.988
-179.223
-151.481
-128.356
-109.495
-94.726
-84.21
-77.774
-74.622
-73.194
-71.978
-69.861
-66.384
-61.441
-54.972
-47.057
-38.197
-29.5
-21.916
-16.107
-12.375
-10.565
-10.464
-11.875
-14.397
-17.425
-20.489
-23.212
-25.357
-26.916
-27.848
-28.112
-27.759
-26.854
-25.462
-23.656
-21.475
-18.934
-16.086
-12.974
-9.64
-6.132
-2.484
1.254
5.02
8.757
12.386
15.856
19.14
22.217
25.09
27.773
30.282
32.646
34.908
37.099
39.251
41.39
43.533
45.702
47.929
50.245
52.695
55.312
58.119
61.134
64.368
67.822
71.498
75.386
79.468
83.726
88.145
92.711
97.411
102.233
107.156
112.162
117.225
122.324
127.434
132.533
137.596
142.599
147.518
152.331
157.021
161.565
165.944
170.136
174.12
177.874
181.379
184.617
187.566
190.211
192.534
194.522
196.162
197.445
198.361
198.904
199.068
198.852
198.254
197.276
195.92
194.191
192.093
189.635
186.826
183.677
180.198
176.403
172.307
167.925
163.273
158.367
153.225
147.864
142.303
136.561
130.656
124.609
118.439
112.166
105.812
99.398
92.943
86.469
79.994
73.539
67.121
60.759
54.469
48.269
42.173
36.196
30.352
24.653
19.111
13.737
8.539
3.527
-1.292
-5.912
-10.327
-14.532
-18.523
-22.297
-25.851
-29.184
-32.295
-35.184
-37.851
-40.299
-42.532
-44.551
-46.364
-47.974
-49.388
-50.613
-51.656
-52.525
-53.228
-53.774
-54.172
-54.431
-54.56
-54.568
-54.466
-54.262
-53.964
-53.583
-53.126
-52.602
-52.018
-51.384
-50.706
-49.993
-49.252
-48.491
-47.716
-46.935
-46.154
-45.379
-44.615
-43.868
-43.142
-42.441
-41.769
-41.128
-40.522
-39.952
-39.42
-38.927
-38.475
-38.062
-37.689
-37.355
-37.06
-36.801
-36.579
-36.391
-36.237
-36.115
-36.025
-35.964
-35.933
-35.928
-35.95
-35.996
-36.065
-36.154
-36.263
-36.389
-36.532
-36.69
-36.861
-37.045
-37.24
-37.445
-37.659
-37.882
-38.112
-38.349
-38.593
-38.844
-39.103
-39.37
-39.645
-39.932
-40.229
-40.539
-40.864
-41.202
-41.557
-41.927
-42.313
-42.717
-43.137
-43.574
-44.028
-44.499
-44.987
-45.49
-46.01
-46.545
-47.093
-47.654
-48.227
-48.81
-49.403
-50.004
-50.611
-51.225
-51.842
-52.462
-53.082
-53.7
-54.312
-54.914
-55.504
-56.077
-56.629
-57.155
-57.652
-58.116
-58.543
-58.93
-59.273
-59.569
-59.815
-60.008
-60.146
-60.225
-60.244
-60.199
-60.089
-59.913
-59.668
-59.355
-58.971
-58.515
-57.987
-57.384
-56.705
-55.95
-55.117
-54.207
-53.22
-52.156
-51.018
-49.81
-48.533
-47.192
-45.791
-44.336
-42.831
-41.283
-39.697
-38.08
-36.437
-34.778
-33.109
-31.438
-29.775
-28.128
-26.509
-24.93
-23.4
-21.934
-20.542
-19.238
-18.034
-16.943
-15.973
-15.135
-14.44
-13.898
-13.52
-13.318
-13.301
-13.481
-13.869
-14.473
-15.301
-16.355
-17.63
-19.122
-20.828
-22.748
-24.893
-27.267
-29.865
-32.684
-35.719
-38.954
-42.367
-45.912
-49.523
-53.136
-56.693
-60.145
-63.459
-66.595
-69.501
-72.123
-74.394
-76.262
-77.696
-78.663
-79.13
-79.093
-78.589
-77.727
-76.67
-75.579
-74.579
-73.754
-73.197
-73.035
-73.414
-74.504
-76.46
-79.358
-83.302
-88.448
-94.775
-102.092
-109.975
-117.614
-124.235
-129.263
-132.025
-131.998
-129.198
-123.914
-116.941
-109.713
-103.222
-98.109
-95.232
-94.646
-95.241
-95.344
-92.267
-82.672
-64.244
-34.891
7.963
65.328
136.457
219.403
310.141
403.838
496.616
583.893
659.739
719.242
758.534
774.896
768.205
738.963
686.988
613.492
521.679
415.556
300.05
180.155
59.339
-58.549
-168.422
-265.56
-346.155
-408.042
-450.851
-474.913
-480.37
-468.279
-441.372
-403.547
-359.495
-312.949
-266.675
-223.368
-185.429
-154.813
-132.365
-117.409
-108.06
-102.704
-99.799
-97.406
-94.084
-88.495
-79.762
-68.146
-54.585
-39.991
-25.511
-12.522
-1.836
5.857
10.09
11.052
9.119
4.761
-1.278
-8.205
-15.506
-22.735
-29.524
-35.697
-41.025
-45.349
-48.666
-50.995
-52.358
-52.771
-52.229
-50.753
-48.426
-45.364
-41.688
-37.508
-32.902
-27.97
-22.838
-17.64
-12.525
-7.588
-2.877
1.567
5.723
9.578
13.132
16.413
19.473
22.359
25.113
27.773
30.364
32.924
35.498
38.134
40.884
43.787
46.862
50.126
53.59
57.259
61.131
65.196
69.432
73.82
78.349
83.005
87.777
92.651
97.607
102.627
107.69
112.775
117.864
122.935
127.967
132.943
137.841
142.645
147.339
151.904
156.322
160.572
164.634
168.488
172.114
175.495
178.61
181.443
183.977
186.198
188.094
189.652
190.862
191.716
192.205
192.324
192.069
191.438
190.43
189.046
187.29
185.167
182.683
179.845
176.665
173.152
169.318
165.179
160.748
156.042
151.078
145.874
140.449
134.823
129.018
123.055
116.955
110.742
104.44
98.07
91.658
85.226
78.798
72.395
66.04
59.755
53.56
47.475
41.519
35.708
30.059
24.587
19.305
14.226
9.359
4.714
0.298
-3.882
-7.822
-11.518
-14.968
-18.173
-21.133
-23.85
-26.329
-28.574
-30.592
-32.392
-33.981
-35.371
-36.574
-37.602
-38.468
-39.188
-39.775
-40.247
-40.618
-40.904
-41.122
-41.285
-41.41
-41.51
-41.6
-41.692
-41.798
-41.931
-42.1
-42.314
-42.582
-42.911
-43.307
-43.775
-44.319
-44.941
-45.645
-46.429
-47.295
-48.241
-49.265
-50.362
-51.529
-52.759
-54.045
-55.381
-56.756
-58.162
-59.589
-61.025
-62.461
-63.885
-65.286
-66.655
-67.981
-69.253
-70.463
-71.601
-72.66
-73.633
-74.513
-75.294
-75.973
-76.545
-77.008
-77.36
-77.6
-77.727
-77.743
-77.649
-77.446
-77.137
-76.727
-76.218
-75.617
-74.928
-74.161
-73.32
-72.416
-71.456
-70.45
-69.407
-68.337
-67.25
-66.154
-65.059
-63.974
-62.907
-61.868
-60.863
-59.899
-58.984
-58.121
-57.317
-56.574
-55.895
-55.284
-54.74
-54.266
-53.86
-53.524
-53.256
-53.055
-52.92
-52.849
-52.839
-52.887
-52.989
-53.141
-53.337
-53.572
-53.841
-54.138
-54.456
-54.789
-55.131
-55.476
-55.817
-56.148
-56.463
-56.756
-57.022
-57.255
-57.451
-57.606
-57.717
-57.78
-57.794
-57.757
-57.667
-57.524
-57.325
-57.071
-56.761
-56.392
-55.964
-55.476
-54.928
-54.319
-53.651
-52.922
-52.133
-51.286
-50.38
-49.417
-48.398
-47.324
-46.195
-45.013
-43.781
-42.499
-41.171
-39.798
-38.383
-36.93
-35.44
-33.916
-32.361
-30.778
-29.168
-27.536
-25.885
-24.218
-22.541
-20.859
-19.179
-17.511
-15.865
-14.251
-12.682
-11.169
-9.725
-8.364
-7.096
-5.931
-4.88
-3.951
-3.155
-2.505
-2.012
-1.688
-1.543
-1.586
-1.822
-2.259
-2.898
-3.734
-4.763
-5.985
-7.402
-9.03
-10.879
-12.958
-15.271
-17.816
-20.582
-23.551
-26.694
-29.963
-33.317
-36.709
-40.101
-43.465
-46.764
-49.954
-52.977
-55.758
-58.223
-60.314
-61.975
-63.171
-63.907
-64.206
-64.136
-63.79
-63.24
-62.571
-61.882
-61.281
-60.918
-60.953
-61.529
-62.85
-65.188
-68.678
-73.284
-78.745
-84.468
-89.829
-94.32
-97.331
-98.186
-96.638
-92.972
-88.076
-83.605
-81.152
-81.676
-86.037
-94.964
-108.141
-124.143
-140.262
-152.01
-154.944
-145.89
-121.461
-79.898
-20.879
56.666
150.2
257.278
375.211
494.324
606.108
699.755
763.566
798.081
805.693
790.294
758.936
710.027
642.373
559.147
463.099
360.577
257.134
154.85
55.856
-37.111
-120.965
-192.929
-251.405
-296.42
-328.314
-347.072
-353.014
-347.683
-333.902
-314.881
-293.583
-271.673
-250.036
-229.619
-211.139
-194.756
-179.942
-165.625
-150.602
-134.523
-117.727
-100.581
-83.569
-67.135
-51.741
-38.136
-27.131
-19.1
-13.998
-11.558
-11.336
-12.958
-16.122
-20.396
-25.28
-30.292
-35.04
-39.299
-42.952
-45.895
-47.994
-49.099
-49.107
-48.006
-45.852
-42.739
-38.766
-34.028
-28.654
-22.826
-16.753
-10.658
-4.717
0.973
6.343
11.343
15.924
20.028
23.63
26.747
29.407
31.643
33.481
34.945
36.082
36.967
37.686
38.326
38.956
39.62
40.354
41.195
42.169
43.305
44.616
46.104
47.775
49.641
51.716
54.014
56.543
59.299
62.279
65.477
68.888
72.504
76.318
80.317
84.489
88.823
93.308
97.93
102.675
107.522
112.45
117.434
122.451
127.474
132.476
137.43
142.308
147.084
151.732
156.226
160.541
164.653
168.538
172.172
175.534
178.602
181.355
183.773
185.838
187.535
188.849
189.768
190.281
190.383
190.068
189.334
188.181
186.61
184.624
182.231
179.438
176.255
172.693
168.766
164.488
159.877
154.951
149.728
144.228
138.473
132.482
126.278
119.882
113.316
106.604
99.767
92.829
85.814
78.746
71.649
64.545
57.46
50.414
43.431
36.53
29.732
23.055
16.517
10.133
3.92
-2.11
-7.942
-13.567
-18.972
-24.15
-29.093
-33.794
-38.248
-42.451
-46.401
-50.095
-53.532
-56.713
-59.638
-62.309
-64.727
-66.896
-68.82
-70.504
-71.954
-73.176
-74.179
-74.97
-75.558
-75.953
-76.163
-76.199
-76.069
-75.784
-75.353
-74.785
-74.09
-73.279
-72.36
-71.342
-70.237
-69.052
-67.797
-66.48
-65.11
-63.695
-62.244
-60.763
-59.26
-57.745
-56.223
-54.703
-53.192
-51.697
-50.225
-48.784
-47.378
-46.013
-44.696
-43.43
-42.22
-41.071
-39.986
-38.971
-38.028
-37.161
-36.374
-35.669
-35.049
-34.516
-34.07
-33.714
-33.447
-33.27
-33.182
-33.183
-33.271
-33.446
-33.705
-34.047
-34.468
-34.965
-35.533
-36.168
-36.866
-37.62
-38.426
-39.276
-40.167
-41.091
-42.042
-43.016
-44.005
-45.003
-46.005
-47.003
-47.991
-48.964
-49.915
-50.839
-51.731
-52.587
-53.404
-54.176
-54.904
-55.583
-56.212
-56.79
-57.317
-57.793
-58.217
-58.591
-58.917
-59.198
-59.436
-59.636
-59.801
-59.935
-60.043
-60.129
-60.198
-60.253
-60.298
-60.339
-60.377
-60.419
-60.467
-60.524
-60.594
-60.68
-60.782
-60.903
-61.042
-61.2
-61.374
-61.563
-61.764
-61.974
-62.19
-62.407
-62.62
-62.823
-63.011
-63.175
-63.308
-63.401
-63.444
-63.43
-63.348
-63.189
-62.945
-62.608
-62.169
-61.621
-60.958
-60.173
-59.262
-58.218
-57.038
-55.719
-54.258
-52.656
-50.915
-49.035
-47.02
-44.877
-42.611
-40.23
-37.744
-35.161
-32.493
-29.752
-26.951
-24.104
-21.228
-18.34
-15.46
-12.612
-9.817
-7.099
-4.484
-1.994
0.345
2.512
4.485
6.249
7.786
9.08
10.116
10.875
11.342
11.507
11.359
10.891
10.099
8.981
7.542
5.792
3.739
1.39
-1.255
-4.206
-7.463
-11.027
-14.896
-19.04
-23.428
-28.023
-32.769
-37.614
-42.518
-47.401
-52.19
-56.89
-61.485
-65.937
-70.209
-74.177
-77.688
-80.721
-83.301
-85.229
-86.299
-86.668
-86.381
-85.486
-84.553
-82.482
-78.21
-73.561
-69.172
-68.307
-74.921
-85.177
-96.503
-104.755
-104.079
-99.077
-93.591
-90.222
-93.31
-98.673
-102.378
-103.835
-101.536
-97.807
-95.452
-94.979
-97.353
-103.544
-112.427
-121.158
-126.961
-127.095
-122.676
-118.128
-114.578
-107.811
-85.595
-33.336
57.771
187.049
339.027
491.711
623.464
716.986
768.936
786.353
781.287
765.432
742.928
710.238
660.116
589.107
499.192
395.994
287.259
177.958
70.536
-31.622
-124.654
-205.219
-270.469
-319.679
-353.979
-374.117
-380.928
-376.567
-364.106
-347.063
-328.927
-311.522
-295.23
-280.476
-267.488
-255.997
-245.368
-234.316
-221.318
-205.89
-188.433
-169.277
-148.838
-127.849
-106.785
-86.284
-67.716
-50.163
-32.387
-16.349
-2.435
5.859
4.201
-2.396
-10.449
-14.872
-8.761
2.211
13.151
20.689
19.248
12.951
6.016
-0.493
-3.983
-5.855
-7.905
-9.707
-11.399
-12.721
-13.241
-13.213
-12.865
-12.185
-11.174
-9.838
-8.173
-6.184
-3.897
-1.329
1.532
4.661
7.998
11.489
15.05
18.576
22.011
25.337
28.541
31.634
34.623
37.5
40.283
43.001
45.677
48.337
50.994
53.655
56.341
59.09
61.941
64.941
68.123
71.497
75.072
78.849
82.825
86.993
91.335
95.824
100.439
105.163
109.979
114.874
119.829
124.821
129.824
134.814
139.767
144.658
149.466
154.166
158.738
163.16
167.416
171.488
175.358
179.006
182.413
185.558
188.423
190.988
193.237
195.151
196.716
197.919
198.749
199.197
199.256
198.92
198.185
197.05
195.514
193.579
191.247
188.524
185.417
181.934
178.086
173.885
169.342
164.474
159.295
153.822
148.073
142.067
135.824
129.365
122.712
115.888
108.918
101.827
94.641
87.385
80.085
72.764
65.452
58.174
50.957
43.826
36.804
29.908
23.166
16.605
10.232
4.055
-1.917
-7.684
-13.219
-18.491
-23.506
-28.277
-32.751
-36.89
-40.665
-44.033
-47.025
-49.71
-52.053
-53.989
-55.703
-57.412
-58.997
-60.477
-61.902
-62.829
-64.489
-68.081
-71.923
-75.508
-75.76
-68.986
-59.32
-49.534
-43.71
-47.447
-55.817
-64.646
-71.021
-70.158
-65.445
-60.298
-55.526
-53.309
-52.394
-51.148
-50.054
-49.127
-48.348
-48.05
-48.064
-47.768
-48.445
-51.303
-54.61
-57.848
-57.883
-50.957
-41.26
-31.595
-26.076
-30.358
-39.422
-49.004
-56.184
-56.141
-52.308
-48.168
-44.493
-43.407
-43.671
-43.692
-43.768
-43.693
-43.568
-43.714
-43.917
-44.005
-44.034
-44.013
-43.922
-43.765
-43.557
-43.304
-43.039
-42.801
-42.577
-42.357
-42.148
-41.954
-41.776
-41.623
-41.492
-41.383
-41.302
-41.255
-41.246
-41.278
-41.356
-41.482
-41.658
-41.887
-42.172
-42.513
-42.911
-43.368
-43.883
-44.457
-45.089
-45.778
-46.523
-47.322
-48.173
-49.07
-50.011
-50.991
-52.003
-53.043
-54.103
-55.179
-56.262
-57.346
-58.424
-59.488
-60.531
-61.544
-62.52
-63.449
-64.324
-65.135
-65.874
-66.533
-67.103
-67.577
-67.947
-68.207
-68.349
-68.368
-68.257
-68.012
-67.627
-67.098
-66.421
-65.595
-64.617
-63.487
-62.203
-60.768
-59.183
-57.452
-55.578
-53.568
-51.425
-49.158
-46.774
-44.283
-41.694
-39.019
-36.269
-33.458
-30.602
-27.714
-24.812
-21.913
-19.036
-16.201
-13.425
-10.731
-8.138
-5.667
-3.338
-1.171
0.817
2.609
4.187
5.536
6.639
7.481
8.048
8.326
8.301
7.962
7.3
6.311
4.996
3.358
1.403
-0.867
-3.454
-6.354
-9.558
-13.057
-16.837
-20.878
-25.157
-29.631
-34.242
-38.935
-43.653
-48.35
-52.993
-57.541
-61.953
-66.183
-70.172
-73.869
-77.236
-80.23
-82.818
-84.973
-86.694
-88.037
-89.102
-89.989
-90.786
-91.539
-92.289
-93.109
-94.087
-95.335
-96.977
-99.091
-101.795
-105.275
-109.601
-114.694
-120.283
-125.764
-130.445
-133.764
-135.098
-133.79
-129.611
-122.771
-113.979
-104.67
-96.38
-90.193
-87.129
-88.162
-93.195
-101.053
-109.812
-115.863
-114.946
-104.071
-80.048
-40.797
12.161
78.706
159.294
253.606
364.165
485.78
604.572
705.504
771.029
795.966
788.956
758.973
717.116
666.007
598.795
513.825
411.46
295.353
174.389
53.816
-63.305
-172.338
-269.77
-352.531
-417.294
-463.235
-491.11
-500.964
-493.512
-470.894
-435.803
-391.991
-343.84
-294.2
-245.346
-200.068
-160.462
-128.097
-103.918
-87.307
-76.732
-71.131
-69.11
-68.763
-68.734
-67.621
-64.391
-59.076
-52.181
-44.224
-36.146
-29.16
-23.992
-21.255
-21.256
-23.721
-28.248
-34.333
-41.228
-48.069
-54.233
-59.289
-62.996
-65.36
-66.393
-66.118
-64.637
-62.105
-58.668
-54.455
-49.573
-44.097
-38.139
-31.864
-25.442
-19.069
-12.898
-7.031
-1.536
3.545
8.19
12.391
16.159
19.528
22.541
25.237
27.654
29.825
31.796
33.628
35.389
37.157
38.991
40.931
43.009
45.247
47.661
50.263
53.058
56.038
59.197
62.535
66.053
69.753
73.633
77.685
81.9
86.263
90.765
95.393
100.137
104.982
109.914
114.918
119.979
125.084
130.214
135.349
140.465
145.538
150.543
155.456
160.249
164.898
169.375
173.656
177.716
181.532
185.08
188.338
191.286
193.904
196.173
198.078
199.603
200.737
201.468
201.786
201.686
201.162
200.212
198.833
197.029
194.802
192.159
189.107
185.657
181.822
177.616
173.056
168.16
162.948
157.441
151.661
145.632
139.38
132.929
126.306
119.538
112.65
105.67
98.625
91.541
84.443
77.358
70.308
63.319
56.412
49.61
42.932
36.399
30.029
23.838
17.843
12.057
6.493
1.162
-3.927
-8.766
-13.349
-17.673
-21.734
-25.532
-29.067
-32.341
-35.358
-38.122
-40.64
-42.917
-44.964
-46.789
-48.401
-49.812
-51.033
-52.074
-52.948
-53.667
-54.241
-54.684
-55.006
-55.219
-55.334
-55.363
-55.316
-55.204
-55.036
-54.824
-54.575
-54.3
-54.004
-53.697
-53.384
-53.072
-52.765
-52.467
-52.182
-51.914
-51.664
-51.433
-51.222
-51.03
-50.859
-50.705
-50.568
-50.444
-50.333
-50.23
-50.133
-50.04
-49.947
-49.851
-49.749
-49.638
-49.516
-49.38
-49.226
-49.051
-48.852
-48.626
-48.371
-48.084
-47.763
-47.406
-47.01
-46.576
-46.106
-45.599
-45.05
-44.456
-43.817
-43.134
-42.415
-41.66
-40.859
-40.022
-39.176
-38.343
-37.549
-36.8
-36.062
-35.338
-34.67
-34.035
-33.355
-32.574
-31.624
-30.504
-29.33
-28.135
-26.812
-25.489
-24.585
-24.185
-24.177
-24.619
-25.067
-26.376
-31.106
-38.653
-46.697
-51.321
-45.236
-29.037
-10.001
4.566
4.301
-11.246
-32.309
-51.352
-60.174
-57.498
-50.626
-43.984
-40.651
-41.48
-43.474
-45.303
-47.046
-48.592
-50.381
-52.502
-54.538
-56.359
-58.018
-59.491
-60.746
-61.786
-62.614
-63.257
-63.772
-64.17
-64.408
-64.471
-64.354
-64.05
-63.558
-62.875
-61.988
-60.897
-59.607
-58.123
-56.45
-54.594
-52.563
-50.367
-48.015
-45.52
-42.898
-40.163
-37.332
-34.425
-31.458
-28.453
-25.429
-22.407
-19.408
-16.453
-13.566
-10.768
-8.085
-5.542
-3.163
-0.974
1.002
2.743
4.23
5.444
6.374
7.009
7.339
7.353
7.044
6.406
5.438
4.143
2.526
0.594
-1.641
-4.162
-6.944
-9.968
-13.218
-16.686
-20.373
-24.275
-28.38
-32.671
-37.128
-41.728
-46.446
-51.243
-56.062
-60.846
-65.539
-70.093
-74.468
-78.603
-82.418
-85.823
-88.719
-91.019
-92.669
-93.638
-93.889
-93.427
-92.268
-90.422
-87.964
-84.997
-81.646
-78.089
-74.528
-71.145
-68.173
-66.024
-65.043
-65.334
-66.727
-68.656
-70.455
-71.703
-72.073
-70.818
-67.185
-61.443
-54.837
-49.283
-47.21
-48.893
-52.376
-58.931
-70.86
-90.568
-122.687
-162.023
-195.525
-211.519
-195.486
-143.193
-63.431
35.71
143.195
251.942
363.761
476.478
585.311
685.157
766.423
824.447
860.265
869.819
849.593
796.065
702.961
576.633
431.92
281.907
142.675
22.012
-83.244
-173.211
-249.494
-313.664
-360.658
-389.354
-401.421
-397.457
-382.529
-361.447
-336.942
-312.559
-289.945
-269.103
-250.369
-233.645
-218.074
-203.087
-187.979
-171.539
-153.475
-133.959
-112.943
-90.986
-69.035
-47.93
-28.784
-12.835
-0.738
6.688
8.232
3.678
-6.442
-21.076
-38.371
-56.624
-74.611
-90.578
-102.29
-108.524
-108.928
-104.076
-95.708
-85.147
-73.118
-60.837
-49.832
-41.067
-35.036
-31.407
-28.891
-26.714
-24.682
-22.447
-19.674
-16.123
-11.595
-6.348
-1.097
3.737
8.028
11.728
14.941
17.703
19.964
21.811
23.431
24.964
26.524
28.147
29.792
31.45
33.149
34.917
36.797
38.805
40.935
43.188
45.573
48.1
50.787
53.64
56.657
59.836
63.18
66.696
70.393
74.275
78.335
82.562
86.948
91.488
96.16
100.941
105.81
110.734
115.704
120.72
125.743
130.728
135.694
140.647
145.586
150.526
155.406
160.134
164.723
169.216
173.41
177.073
180.306
183.078
185.327
187.488
188.324
186.63
184.091
181.213
181.106
187.499
196.256
204.622
208.497
202.249
190.871
178.596
168.33
164.871
164.813
164.709
163.805
160.01
154.573
149.094
143.297
137.408
131.348
124.822
118.068
111.279
104.428
97.528
90.626
83.745
76.897
70.102
63.354
56.639
49.995
43.456
37.038
30.759
24.636
18.68
12.91
7.343
1.985
-3.157
-8.074
-12.763
-17.218
-21.437
-25.416
-29.157
-32.659
-35.924
-38.953
-41.751
-44.321
-46.668
-48.798
-50.717
-52.431
-53.948
-55.276
-56.422
-57.395
-58.204
-58.858
-59.367
-59.74
-59.988
-60.12
-60.147
-60.078
-59.922
-59.688
-59.385
-59.02
-58.603
-58.139
-57.636
-57.101
-56.539
-55.958
-55.364
-54.761
-54.155
-53.551
-52.955
-52.37
-51.801
-51.251
-50.725
-50.225
-49.756
-49.319
-48.918
-48.553
-48.226
-47.937
-47.688
-47.476
-47.301
-47.161
-47.055
-46.98
-46.934
-46.914
-46.918
-46.943
-46.986
-47.045
-47.116
-47.197
-47.286
-47.378
-47.472
-47.564
-47.653
-47.737
-47.812
-47.877
-47.931
-47.972
-47.999
-48.01
-48.006
-47.986
-47.95
-47.9
-47.835
-47.758
-47.673
-47.58
-47.485
-47.39
-47.301
-47.221
-47.156
-47.109
-47.087
-47.092
-47.132
-47.209
-47.329
-47.495
-47.712
-47.983
-48.311
-48.698
-49.146
-49.656
-50.228
-50.862
-51.557
-52.311
-53.121
-53.983
-54.895
-55.849
-56.842
-57.865
-58.911
-59.972
-61.039
-62.102
-63.151
-64.176
-65.166
-66.11
-66.997
-67.816
-68.555
-69.204
-69.751
-70.185
-70.496
-70.673
-70.708
-70.591
-70.315
-69.873
-69.26
-68.469
-67.499
-66.347
-65.012
-63.494
-61.796
-59.921
-57.874
-55.663
-53.295
-50.78
-48.131
-45.359
-42.48
-39.508
-36.459
-33.351
-30.201
-27.026
-23.847
-20.681
-17.552
-14.48
-11.49
-8.607
-5.855
-3.26
-0.847
1.361
3.341
5.073
6.542
7.731
8.625
9.208
9.467
9.39
8.971
8.204
7.087
5.623
3.815
1.674
-0.783
-3.543
-6.597
-9.941
-13.579
-17.512
-21.729
-26.217
-30.959
-35.932
-41.111
-46.457
-51.91
-57.411
-62.902
-68.328
-73.642
-78.779
-83.655
-88.177
-92.241
-95.75
-98.644
-100.883
-102.423
-103.252
-103.365
-102.766
-101.547
-99.827
-97.737
-95.449
-93.122
-90.912
-89.078
-87.975
-87.84
-88.724
-90.423
-92.441
-94.327
-95.806
-96.518
-95.905
-93.645
-89.953
-85.718
-82.581
-82.112
-85.063
-91.85
-102.979
-118.29
-136.455
-154.882
-169.372
-175.393
-169.801
-150.16
-113.868
-59.25
13.776
103.5
205.476
313.744
423.35
529.629
626.791
709.099
771.479
809.949
823.405
812.931
779.083
722.537
645.905
552.901
448.468
338.376
226.813
116.734
12.115
-82.622
-164.096
-229.799
-279.298
-314.028
-335.01
-343.201
-340.777
-330.755
-316.478
-301.274
-286.862
-273.487
-261.417
-250.758
-241.165
-231.965
-221.951
-209.75
-194.913
-177.841
-159.16
-139.623
-119.917
-100.643
-82.58
-66.6
-53.232
-42.608
-34.634
-29.031
-25.532
-23.944
-24.018
-25.396
-27.732
-30.699
-33.972
-37.333
-40.591
-43.507
-45.899
-47.61
-48.496
-48.501
-47.627
-45.878
-43.292
-39.927
-35.837
-31.13
-25.941
-20.397
-14.645
-8.812
-3.005
2.642
8.023
13.068
17.706
21.914
25.693
29.037
31.958
34.489
36.655
38.497
40.071
41.419
42.592
43.647
44.638
45.629
46.677
47.821
49.094
50.522
52.12
53.906
55.891
58.072
60.453
63.036
65.817
68.802
71.987
75.365
78.927
82.66
86.549
90.581
94.742
99.015
103.383
107.827
112.329
116.871
121.433
125.991
130.522
135
139.399
143.695
147.861
151.872
155.701
159.325
162.721
165.868
168.745
171.332
173.613
175.571
177.192
178.461
179.369
179.906
180.064
179.836
179.216
178.203
176.802
175.021
172.865
170.343
167.459
164.225
160.669
156.801
152.612
148.102
143.269
138.128
132.739
127.132
121.289
115.257
109.146
103.045
97.05
91.198
85.406
79.654
74.08
68.603
62.825
56.649
50.23
43.535
36.995
29.922
19.703
6.685
-6.612
-16.415
-15.29
-3.046
12.708
24.614
22.183
3.886
-20.175
-42.132
-53.758
-52.926
-47.141
-41.23
-38.235
-39.383
-41.647
-43.493
-45.071
-46.257
-47.503
-48.974
-50.262
-51.233
-51.97
-52.474
-52.735
-52.777
-52.63
-52.341
-51.99
-51.615
-51.193
-50.722
-50.215
-49.681
-49.131
-48.57
-47.998
-47.417
-46.84
-46.274
-45.726
-45.201
-44.702
-44.233
-43.798
-43.4
-43.04
-42.722
-42.447
-42.215
-42.029
-41.888
-41.795
-41.75
-41.751
-41.793
-41.875
-41.992
-42.144
-42.33
-42.543
-42.77
-43.023
-43.306
-43.626
-43.993
-44.39
-44.793
-45.217
-45.678
-46.129
-46.532
-46.86
-47.066
-47.186
-47.287
-47.329
-47.241
-47.205
-47.438
-47.808
-48.328
-49.037
-49.469
-50.88
-54.492
-58.558
-62.55
-63.259
-56.845
-47.561
-38.239
-33.1
-37.94
-47.633
-57.834
-65.566
-65.908
-62.377
-58.537
-55.181
-54.478
-55.166
-55.62
-56.145
-56.532
-56.884
-57.526
-58.24
-58.848
-59.403
-59.912
-60.35
-60.716
-61.019
-61.26
-61.464
-61.665
-61.841
-61.974
-62.064
-62.105
-62.092
-62.022
-61.887
-61.676
-61.387
-61.017
-60.561
-60.016
-59.379
-58.647
-57.817
-56.889
-55.861
-54.732
-53.504
-52.177
-50.752
-49.233
-47.62
-45.917
-44.13
-42.261
-40.317
-38.304
-36.226
-34.093
-31.91
-29.687
-27.432
-25.154
-22.864
-20.572
-18.291
-16.033
-13.81
-11.637
-9.529
-7.5
-5.57
-3.754
-2.07
-0.534
0.838
2.028
3.018
3.797
4.361
4.701
4.813
4.687
4.309
3.674
2.787
1.639
0.204
-1.538
-3.604
-5.986
-8.637
-11.534
-14.71
-18.141
-21.739
-25.434
-29.148
-32.856
-36.645
-40.526
-44.344
-48.134
-52.249
-56.748
-61.448
-66.36
-71.038
-76.117
-84.119
-94.681
-105.275
-112.18
-108.066
-92.638
-73.367
-57.498
-55.384
-68.742
-87.763
-104.806
-111.891
-106.93
-97.388
-88.146
-82.344
-81.366
-82.403
-84.14
-86.823
-90.344
-94.93
-100.128
-104.782
-108.071
-109.325
-107.945
-103.795
-96.791
-87.7
-78.639
-71.301
-67.267
-67.123
-68.999
-72.451
-78.338
-87.447
-101.65
-116.293
-120.471
-104.193
-57.873
18.064
114.212
225.461
346.441
473.4
602.641
717.355
798.696
836.641
830.287
793.495
743.505
687.573
624.963
549.999
458.468
353.634
244.179
137.886
38.53
-55.271
-148.064
-241.828
-332.68
-408.237
-453.414
-457.058
-417.768
-350.695
-278.348
-222.949
-198.762
-203.028
-223.575
-244.6
-253.264
-246.781
-228.582
-205.299
-182.64
-162.358
-143.879
-125.532
-106.699
-88.16
-71.054
-56.564
-45.093
-36.382
-30.137
-26.016
-23.686
-22.923
-23.461
-24.984
-27.213
-29.863
-32.616
-35.208
-37.461
-39.222
-40.371
-40.807
-40.419
-39.155
-37.043
-34.13
-30.486
-26.191
-21.31
-15.939
-10.228
-4.334
1.569
7.321
12.823
18.005
22.805
27.181
31.09
34.51
37.463
39.979
42.087
43.817
45.195
46.255
47.062
47.684
48.195
48.669
49.162
49.715
50.371
51.164
52.121
53.265
54.605
56.144
57.89
59.853
62.043
64.469
67.13
70.022
73.138
76.471
80.01
83.745
87.664
91.754
96.001
100.393
104.915
109.552
114.287
119.097
123.96
128.849
133.737
138.596
143.398
148.112
152.709
157.161
161.439
165.518
169.371
172.973
176.3
179.331
182.044
184.42
186.441
188.093
189.362
190.236
190.708
190.769
190.417
189.649
188.465
186.865
184.854
182.436
179.618
176.409
172.821
168.866
164.559
159.918
154.961
149.709
144.185
138.411
132.413
126.214
119.842
113.322
106.681
99.944
93.14
86.293
79.43
72.577
65.758
58.996
52.315
45.737
39.28
32.966
26.811
20.833
15.047
9.468
4.108
-1.02
-5.905
-10.539
-14.914
-19.025
-22.866
-26.435
-29.732
-32.759
-35.517
-38.012
-40.248
-42.235
-43.98
-45.494
-46.786
-47.87
-48.759
-49.465
-50.002
-50.382
-50.623
-50.741
-50.751
-50.668
-50.506
-50.276
-49.995
-49.679
-49.328
-48.942
-48.525
-48.08
-47.622
-47.177
-46.747
-46.331
-45.987
-45.767
-45.691
-45.78
-46.019
-46.36
-46.794
-47.358
-47.84
-47.98
-47.937
-47.763
-47.372
-47.155
-46.034
-42.995
-39.644
-36.515
-36.834
-43.965
-54.894
-67.987
-77.338
-76.662
-67.935
-51.74
-35.178
-25.899
-24.506
-33.088
-45.869
-56.458
-63.214
-62.967
-58.835
-54.498
-50.624
-49.005
-48.634
-48.109
-47.68
-47.141
-46.624
-46.452
-46.41
-46.33
-46.245
-46.134
-46
-45.867
-45.745
-45.646
-45.603
-45.652
-45.784
-45.991
-46.276
-46.636
-47.071
-47.581
-48.161
-48.803
-49.506
-50.267
-51.081
-51.941
-52.843
-53.776
-54.735
-55.71
-56.693
-57.674
-58.644
-59.593
-60.51
-61.387
-62.212
-62.976
-63.671
-64.286
-64.815
-65.248
-65.581
-65.807
-65.922
-65.921
-65.802
-65.562
-65.201
-64.717
-64.11
-63.381
-62.53
-61.56
-60.473
-59.273
-57.964
-56.551
-55.039
-53.434
-51.743
-49.973
-48.132
-46.228
-44.269
-42.265
-40.226
-38.162
-36.082
-33.997
-31.917
-29.852
-27.813
-25.807
-23.845
-21.932
-20.079
-18.291
-16.577
-14.943
-13.396
-11.944
-10.597
-9.363
-8.251
-7.272
-6.433
-5.744
-5.214
-4.849
-4.654
-4.632
-4.787
-5.121
-5.64
-6.348
-7.247
-8.34
-9.629
-11.115
-12.795
-14.667
-16.72
-18.942
-21.325
-23.864
-26.565
-29.433
-32.466
-35.662
-39.014
-42.508
-46.12
-49.814
-53.537
-57.229
-60.837
-64.312
-67.62
-70.724
-73.584
-76.146
-78.345
-80.124
-81.44
-82.263
-82.564
-82.345
-81.651
-80.565
-79.226
-77.773
-76.319
-74.98
-73.891
-73.181
-73.003
-73.524
-74.864
-77.19
-80.718
-85.477
-91.357
-98.063
-105.014
-111.643
-117.511
-121.99
-124.338
-124.319
-122.079
-118.282
-114.226
-110.795
-108.278
-107.209
-108.251
-111.123
-114.746
-116.959
-114.421
-104.599
-86.009
-56.773
-14.781
40.908
110.072
190.687
278.677
370.371
462.626
551.024
630.02
694.233
738.653
759.898
756.698
727.869
672.648
592.243
490.149
371.645
243.33
111.666
-17.504
-138.068
-244.254
-331.241
-396.254
-438.958
-460.719
-463.9
-451.599
-427.321
-394.709
-358.122
-321.124
-285.92
-254.237
-226.808
-203.504
-184.455
-169.758
-158.292
-149.027
-141.121
-133.208
-124.77
-115.94
-106.283
-95.317
-83.34
-70.662
-57.941
-46.479
-36.832
-29.065
-23.462
-20.16
-19.049
-20.002
-22.495
-25.623
-28.853
-31.856
-34.363
-36.278
-37.454
-37.739
-37.151
-35.803
-33.787
-31.177
-28.009
-24.285
-20.08
-15.499
-10.674
-5.751
-0.85
3.906
8.42
12.623
16.446
19.858
22.856
25.445
27.65
29.508
31.048
32.302
33.321
34.151
34.849
35.485
36.121
36.829
37.669
38.683
39.912
41.385
43.124
45.144
47.454
50.056
52.949
56.139
59.623
63.403
67.474
71.825
76.445
81.317
86.422
91.742
97.258
102.946
108.784
114.745
120.805
126.938
133.116
139.306
145.475
151.588
157.61
163.506
169.239
174.775
180.077
185.114
189.853
194.265
198.322
201.997
205.267
208.108
210.501
212.428
213.874
214.826
215.274
215.21
214.63
213.534
211.922
209.8
207.174
204.054
200.455
196.391
191.881
186.945
181.605
175.888
169.82
163.431
156.749
149.807
142.637
135.273
127.747
120.094
112.348
104.54
96.704
88.872
81.075
73.343
65.706
58.191
50.826
43.635
36.643
29.871
23.339
17.065
11.065
5.353
-0.061
-5.165
-9.953
-14.421
-18.565
-22.383
-25.879
-29.054
-31.914
-34.466
-36.72
-38.686
-40.375
-41.801
-42.979
-43.925
-44.653
-45.181
-45.527
-45.707
-45.741
-45.647
-45.442
-45.146
-44.775
-44.347
-43.879
-43.387
-42.886
-42.39
-41.913
-41.466
-41.061
-40.706
-40.411
-40.183
-40.028
-39.95
-39.952
-40.038
-40.208
-40.461
-40.795
-41.207
-41.695
-42.252
-42.873
-43.551
-44.28
-45.05
-45.853
-46.68
-47.522
-48.369
-49.21
-50.036
-50.836
-51.601
-52.323
-52.992
-53.601
-54.143
-54.612
-55.001
-55.307
-55.526
-55.654
-55.691
-55.636
-55.488
-55.248
-54.919
-54.504
-54.007
-53.432
-52.785
-52.073
-51.302
-50.479
-49.614
-48.714
-47.789
-46.849
-45.903
-44.962
-44.037
-43.139
-42.276
-41.46
-40.699
-40.003
-39.379
-38.835
-38.377
-38.011
-37.74
-37.57
-37.501
-37.536
-37.676
-37.92
-38.267
-38.714
-39.257
-39.893
-40.617
-41.423
-42.305
-43.256
-44.269
-45.335
-46.448
-47.597
-48.775
-49.97
-51.173
-52.374
-53.562
-54.727
-55.859
-56.947
-57.984
-58.959
-59.866
-60.697
-61.446
-62.106
-62.672
-63.14
-63.506
-63.767
-63.92
-63.964
-63.897
-63.721
-63.436
-63.043
-62.544
-61.94
-61.235
-60.431
-59.53
-58.536
-57.451
-56.281
-55.029
-53.701
-52.302
-50.838
-49.314
-47.738
-46.116
-44.454
-42.758
-41.034
-39.289
-37.529
-35.761
-33.991
-32.226
-30.475
-28.745
-27.046
-25.389
-23.783
-22.241
-20.772
-19.388
-18.101
-16.92
-15.854
-14.911
-14.098
-13.425
-12.902
-12.54
-12.349
-12.339
-12.521
-12.901
-13.486
-14.279
-15.275
-16.47
-17.861
-19.451
-21.252
-23.273
-25.519
-27.994
-30.695
-33.614
-36.728
-40.001
-43.376
-46.801
-50.226
-53.611
-56.929
-60.144
-63.221
-66.109
-68.744
-71.069
-73.035
-74.6
-75.722
-76.396
-76.664
-76.617
-76.392
-76.11
-75.855
-75.707
-75.767
-76.153
-77.006
-78.494
-80.72
-83.838
-88.105
-93.58
-100.165
-107.531
-114.938
-121.612
-126.996
-130.387
-131.031
-128.873
-124.23
-118.012
-112.182
-108.266
-107.098
-109.738
-116.777
-127.321
-139.677
-150.788
-155.763
-150.752
-132.942
-99.025
-46.834
23.772
111.562
212.658
320.487
429.341
533.991
627.865
705.098
760.911
791.464
795.988
776.34
733.931
670.339
588.789
492.632
386.129
274.333
160.293
47.37
-60.484
-161.171
-251.415
-330.751
-400.413
-455.412
-492.479
-506.936
-493.185
-458.012
-409.273
-354.424
-303.075
-256.02
-212.767
-175.295
-144.322
-122.151
-109.623
-104.567
-104.05
-104.924
-105.228
-103.827
-99.315
-90.994
-79.053
-64.349
-48.823
-34.536
-22.486
-13.223
-7.258
-4.667
-5.316
-8.859
-14.345
-20.659
-27.134
-33.317
-38.852
-43.578
-47.306
-49.854
-51.252
-51.604
-50.964
-49.382
-46.883
-43.477
-39.259
-34.363
-28.922
-23.096
-17.028
-10.852
-4.732
1.193
6.827
12.098
16.97
21.429
25.465
29.078
32.297
35.154
37.694
39.965
42.008
43.877
45.629
47.324
49.03
50.798
52.664
54.654
56.789
59.078
61.533
64.156
66.94
69.878
72.965
76.199
79.579
83.101
86.756
90.532
94.417
98.399
102.47
106.617
110.829
115.09
119.388
123.71
128.042
132.37
136.674
140.935
145.131
149.241
153.246
157.126
160.855
164.412
167.775
170.923
173.838
176.51
178.918
181.038
182.874
184.421
185.672
186.637
187.3
187.613
187.58
187.209
186.434
185.225
183.574
181.419
178.78
175.784
172.43
168.675
164.773
160.939
156.975
152.948
148.987
144.417
140.421
138.494
136.721
134.5
128.786
114.12
93.987
73.265
57.145
55.22
65.695
79.575
90.784
89.727
74.528
54.233
34.06
19.382
13.727
11.825
10.483
8.697
4.438
-0.665
-5.224
-9.726
-13.897
-17.823
-21.85
-25.757
-29.356
-32.697
-35.759
-38.483
-40.895
-43.028
-44.888
-46.518
-47.959
-49.198
-50.235
-51.089
-51.767
-52.283
-52.645
-52.852
-52.926
-52.89
-52.767
-52.582
-52.338
-52.023
-51.667
-51.302
-50.893
-50.417
-49.857
-49.18
-48.428
-47.678
-46.896
-46.02
-45.235
-44.759
-44.466
-44.369
-44.509
-44.423
-45.358
-48.526
-52.191
-55.822
-56.228
-49.589
-40.127
-30.654
-25.358
-29.995
-39.465
-49.446
-56.973
-57.149
-53.466
-49.461
-45.916
-44.986
-45.411
-45.574
-45.777
-45.81
-45.778
-46.003
-46.27
-46.404
-46.462
-46.453
-46.359
-46.185
-45.943
-45.644
-45.32
-45.012
-44.708
-44.397
-44.087
-43.782
-43.486
-43.204
-42.936
-42.681
-42.445
-42.234
-42.053
-41.905
-41.794
-41.724
-41.698
-41.719
-41.79
-41.914
-42.093
-42.328
-42.62
-42.971
-43.381
-43.849
-44.375
-44.957
-45.593
-46.28
-47.014
-47.789
-48.602
-49.447
-50.318
-51.208
-52.113
-53.025
-53.938
-54.844
-55.738
-56.612
-57.458
-58.268
-59.036
-59.753
-60.413
-61.008
-61.531
-61.976
-62.336
-62.605
-62.777
-62.847
-62.809
-62.657
-62.387
-61.993
-61.474
-60.826
-60.047
-59.136
-58.093
-56.918
-55.614
-54.181
-52.625
-50.947
-49.153
-47.248
-45.24
-43.135
-40.942
-38.67
-36.33
-33.933
-31.49
-29.013
-26.514
-24.006
-21.5
-19.009
-16.548
-14.13
-11.771
-9.49
-7.304
-5.233
-3.296
-1.512
0.102
1.529
2.756
3.772
4.568
5.133
5.457
5.53
5.343
4.894
4.178
3.196
1.95
0.441
-1.32
-3.316
-5.537
-7.977
-10.639
-13.535
-16.671
-20.041
-23.635
-27.439
-31.436
-35.603
-39.903
-44.275
-48.656
-52.99
-57.227
-61.329
-65.236
-68.868
-72.135
-74.934
-77.184
-78.841
-79.886
-80.295
-80.08
-79.258
-77.869
-76.048
-73.945
-71.722
-69.56
-67.616
-66.055
-65.138
-65.224
-66.532
-69.058
-72.537
-76.403
-80.152
-83.456
-85.899
-86.849
-85.936
-83.386
-80.087
-77.718
-77.874
-81.29
-88.4
-99.709
-114.966
-132.76
-150.489
-163.999
-168.842
-161.897
-140.575
-102.177
-45.239
30.162
122.282
226.827
338.21
451.317
560.702
660.02
743.059
803.999
838.473
844.417
822.588
776.056
706.39
615.442
504.594
372.923
228.04
83.417
-47.625
-148.881
-216.252
-258.125
-282.45
-299.988
-314.824
-321.796
-319.576
-308.35
-290.382
-271.911
-255.892
-242.318
-231.03
-221.015
-211.292
-201.506
-190.794
-177.935
-162.706
-145.626
-127.389
-108.852
-90.742
-73.542
-57.906
-44.652
-34.179
-26.554
-21.646
-19.086
-18.546
-19.779
-22.466
-26.198
-30.582
-35.211
-39.708
-43.854
-47.483
-50.441
-52.607
-53.839
-54.041
-53.2
-51.354
-48.567
-44.918
-40.483
-35.351
-29.67
-23.615
-17.377
-11.158
-5.089
0.743
6.262
11.412
16.134
20.385
24.168
27.51
30.436
32.971
35.133
36.944
38.46
39.746
40.873
41.916
42.929
43.953
45.027
46.183
47.446
48.839
50.371
52.041
53.854
55.822
57.955
60.265
62.755
65.424
68.27
71.291
74.482
77.841
81.362
85.038
88.863
92.83
96.931
101.159
105.501
109.943
114.467
119.053
123.679
128.324
132.963
137.572
142.125
146.598
150.965
155.204
159.289
163.198
166.906
170.392
173.634
176.61
179.301
181.689
183.755
185.484
186.861
187.873
188.507
188.755
188.607
188.058
187.103
185.739
183.967
181.788
179.207
176.229
172.865
169.122
165.015
160.558
155.766
150.658
145.251
139.565
133.621
127.441
121.048
114.465
107.716
100.825
93.817
86.717
79.551
72.344
65.121
57.906
50.726
43.603
36.562
29.627
22.82
16.163
9.675
3.377
-2.715
-8.583
-14.213
-19.594
-24.712
-29.558
-34.125
-38.404
-42.391
-46.082
-49.477
-52.572
-55.371
-57.874
-60.087
-62.019
-63.676
-65.06
-66.178
-67.039
-67.653
-68.039
-68.208
-68.162
-67.919
-67.521
-66.999
-66.394
-65.722
-64.963
-64.127
-63.268
-62.376
-61.381
-60.234
-58.875
-57.306
-55.647
-53.946
-52.1
-50.227
-48.754
-47.791
-47.218
-47.094
-46.997
-47.697
-51.788
-58.832
-66.404
-70.692
-64.345
-47.494
-27.595
-11.965
-11.013
-25.828
-46.467
-65.213
-73.868
-70.646
-62.944
-55.407
-51.075
-51.015
-52.211
-53.21
-54.124
-54.827
-55.758
-57.044
-58.269
-59.292
-60.179
-60.915
-61.473
-61.864
-62.102
-62.22
-62.285
-62.318
-62.286
-62.177
-61.997
-61.745
-61.427
-61.046
-60.595
-60.079
-59.508
-58.89
-58.234
-57.548
-56.839
-56.117
-55.388
-54.663
-53.949
-53.254
-52.588
-51.956
-51.367
-50.828
-50.344
-49.921
-49.564
-49.278
-49.065
-48.929
-48.873
-48.896
-49.001
-49.188
-49.456
-49.803
-50.227
-50.725
-51.292
-51.923
-52.61
-53.347
-54.124
-54.932
-55.762
-56.603
-57.445
-58.277
-59.087
-59.865
-60.599
-61.277
-61.888
-62.422
-62.867
-63.214
-63.454
-63.579
-63.581
-63.454
-63.193
-62.792
-62.248
-61.557
-60.718
-59.729
-58.59
-57.301
-55.865
-54.287
-52.57
-50.721
-48.748
-46.659
-44.466
-42.178
-39.808
-37.368
-34.871
-32.333
-29.767
-27.189
-24.618
-22.071
-19.569
-17.133
-14.784
-12.543
-10.429
-8.464
-6.665
-5.049
-3.627
-2.412
-1.415
-0.649
-0.127
0.138
0.141
-0.127
-0.669
-1.488
-2.587
-3.96
-5.593
-7.478
-9.607
-11.983
-14.617
-17.516
-20.673
-24.08
-27.721
-31.575
-35.619
-39.811
-44.091
-48.398
-52.674
-56.869
-60.95
-64.87
-68.558
-71.933
-74.901
-77.383
-79.334
-80.725
-81.54
-81.781
-81.486
-80.72
-79.587
-78.216
-76.736
-75.285
-74.017
-73.104
-72.724
-73.127
-74.646
-77.444
-81.483
-86.488
-91.931
-97.344
-102.415
-106.693
-109.515
-110.496
-109.761
-108.149
-107.199
-108.083
-111.205
-116.706
-124.8
-135.48
-147.842
-159.496
-166.618
-165.588
-154.02
-130.403
-93.152
-40.452
28.354
111.796
205.98
305.858
407.13
506.272
598.77
678.758
740.68
780.258
795.777
787.763
756.43
701.577
624.752
529.574
421.153
305.483
187.214
69.607
-43.078
-145.891
-234.586
-306.093
-359.691
-396.452
-417.175
-422.81
-415.614
-398.611
-375.626
-350.471
-325.081
-300.611
-278.205
-258.248
-240.683
-225.248
-210.678
-195.712
-180.25
-163.873
-146.358
-128.232
-109.785
-91.33
-73.717
-57.464
-42.595
-29.743
-19.27
-11.021
-5.059
-1.211
0.914
1.405
0.326
-1.846
-4.751
-8.198
-11.895
-15.751
-19.697
-23.481
-26.907
-29.892
-32.335
-34.158
-35.339
-35.816
-35.57
-34.665
-33.159
-31.123
-28.638
-25.742
-22.473
-18.886
-15.029
-10.96
-6.75
-2.457
1.843
6.054
10.108
13.963
17.6
21.035
24.284
27.366
30.307
33.14
35.892
38.587
41.246
43.879
46.509
49.165
51.883
54.713
57.689
60.832
64.158
67.67
71.364
75.24
79.284
83.474
87.79
92.218
96.744
101.359
106.05
110.798
115.584
120.385
125.18
129.949
134.671
139.324
143.887
148.341
152.668
156.852
160.877
164.725
168.378
171.815
175.019
177.973
180.659
183.058
185.154
186.931
188.378
189.482
190.233
190.624
190.646
190.294
189.567
188.461
186.978
185.116
182.88
180.273
177.301
173.972
170.295
166.282
161.944
157.297
152.356
147.137
141.659
135.943
130.004
123.863
117.538
111.051
104.425
97.688
90.857
83.951
77.006
70.057
63.135
56.276
49.491
42.78
36.181
29.734
23.413
17.205
11.099
5.071
-0.83
-6.523
-12.034
-17.42
-22.494
-27.04
-31.178
-34.892
-38.141
-41.377
-43.38
-42.962
-41.827
-40.494
-42.092
-50.363
-61.184
-71.808
-78.144
-74.567
-66.078
-56.917
-49.997
-50.12
-53.878
-57.818
-61.187
-61.885
-61.156
-60.593
-59.91
-59.324
-58.743
-57.861
-56.9
-56.038
-55.231
-54.477
-53.805
-53.216
-52.707
-52.276
-51.897
-51.538
-51.216
-50.948
-50.728
-50.556
-50.432
-50.35
-50.312
-50.317
-50.361
-50.436
-50.537
-50.66
-50.798
-50.947
-51.101
-51.256
-51.407
-51.548
-51.675
-51.785
-51.875
-51.941
-51.982
-51.996
-51.982
-51.939
-51.868
-51.77
-51.645
-51.495
-51.323
-51.13
-50.92
-50.696
-50.461
-50.219
-49.976
-49.734
-49.499
-49.277
-49.071
-48.888
-48.733
-48.61
-48.526
-48.485
-48.492
-48.551
-48.667
-48.842
-49.079
-49.381
-49.749
-50.182
-50.682
-51.247
-51.875
-52.565
-53.313
-54.116
-54.969
-55.868
-56.808
-57.782
-58.785
-59.809
-60.849
-61.897
-62.946
-63.988
-65.016
-66.022
-66.998
-67.937
-68.829
-69.667
-70.442
-71.145
-71.77
-72.307
-72.749
-73.09
-73.323
-73.442
-73.443
-73.321
-73.072
-72.694
-72.184
-71.541
-70.765
-69.856
-68.816
-67.647
-66.352
-64.935
-63.399
-61.751
-59.995
-58.138
-56.184
-54.14
-52.014
-49.812
-47.542
-45.213
-42.832
-40.41
-37.956
-35.482
-32.997
-30.513
-28.041
-25.594
-23.182
-20.817
-18.512
-16.277
-14.126
-12.074
-10.132
-8.315
-6.637
-5.109
-3.746
-2.557
-1.554
-0.743
-0.132
0.275
0.471
0.449
0.203
-0.274
-0.989
-1.946
-3.147
-4.596
-6.288
-8.217
-10.371
-12.741
-15.32
-18.11
-21.113
-24.323
-27.736
-31.339
-35.116
-39.04
-43.073
-47.161
-51.251
-55.292
-59.236
-63.051
-66.703
-70.151
-73.347
-76.227
-78.729
-80.804
-82.408
-83.507
-84.089
-84.183
-83.85
-83.202
-82.341
-81.339
-80.282
-79.261
-78.393
-77.831
-77.722
-78.196
-79.425
-81.657
-85.005
-89.404
-94.557
-99.859
-104.688
-108.565
-110.963
-111.237
-109.076
-104.716
-98.974
-93.376
-89.377
-87.696
-88.831
-93.374
-101.203
-111.051
-120.542
-125.922
-123.274
-110.05
-84.18
-43.238
14.105
87.55
175.276
272.994
375.335
478.136
576.967
665.866
739.476
793.374
823.604
828.822
809.314
764.239
695.28
608.105
506.364
393.399
271.883
139.524
1.589
-128.803
-239.61
-316.934
-358.216
-374.347
-375.235
-371.133
-366.859
-357.691
-341.733
-321.475
-298.979
-281.195
-273.361
-270.647
-269.5
-263.999
-246.66
-221.782
-193.432
-165.055
-142.55
-123.166
-104.036
-85.083
-64.921
-45.812
-30.011
-17.39
-8.081
-1.653
2.516
4.412
4.142
2.147
-1.171
-5.445
-10.336
-15.596
-20.982
-26.196
-30.911
-34.875
-37.923
-39.962
-40.973
-40.96
-39.933
-37.93
-35.032
-31.361
-27.07
-22.308
-17.213
-11.902
-6.496
-1.13
4.038
8.879
13.313
17.299
20.834
23.916
26.544
28.737
30.542
32.021
33.24
34.256
35.116
35.868
36.572
37.295
38.11
39.073
40.224
41.591
43.196
45.055
47.185
49.591
52.266
55.202
58.394
61.839
65.536
69.479
73.653
78.046
82.637
87.412
92.354
97.443
102.661
107.988
113.401
118.872
124.379
129.893
135.388
140.84
146.217
151.477
156.597
161.569
166.381
171.027
175.479
179.676
183.591
187.236
190.565
193.478
195.894
197.729
198.96
199.677
199.9
199.511
198.616
197.607
196.567
195.379
194.096
192.3
190.781
192.01
195.48
198.94
198.69
187.739
166.504
142.046
121.394
114.52
122.126
134.819
145.341
145.869
135.021
119.864
104.756
92.67
84.539
77.52
70.328
63.089
55.725
48.692
42.124
35.656
29.192
22.818
16.544
10.369
4.326
-1.554
-7.222
-12.598
-17.653
-22.407
-26.865
-31.016
-34.859
-38.39
-41.61
-44.529
-47.154
-49.483
-51.523
-53.279
-54.759
-55.975
-56.937
-57.658
-58.15
-58.426
-58.501
-58.39
-58.109
-57.672
-57.097
-56.399
-55.594
-54.699
-53.73
-52.701
-51.63
-50.529
-49.413
-48.295
-47.186
-46.099
-45.042
-44.024
-43.054
-42.139
-41.283
-40.492
-39.77
-39.12
-38.543
-38.041
-37.613
-37.257
-36.972
-36.755
-36.601
-36.506
-36.464
-36.47
-36.517
-36.599
-36.708
-36.839
-36.982
-37.132
-37.281
-37.423
-37.552
-37.661
-37.745
-37.8
-37.821
-37.807
-37.753
-37.659
-37.523
-37.341
-37.113
-36.846
-36.543
-36.208
-35.843
-35.447
-35.024
-34.593
-34.153
-33.688
-33.186
-32.634
-32.039
-31.443
-30.858
-30.256
-29.67
-29.186
-28.871
-28.802
-28.991
-29.344
-29.834
-30.573
-31.455
-32.092
-32.398
-32.49
-32.317
-32.289
-31.645
-27.953
-21.699
-15.12
-11.853
-18.798
-35.613
-55.338
-71.067
-72.988
-60.351
-42.435
-26.421
-20.024
-24.68
-33.436
-41.989
-47.434
-48.84
-49.024
-49.279
-49.495
-49.763
-49.651
-49.038
-48.299
-47.546
-46.708
-45.791
-44.811
-43.753
-42.601
-41.32
-39.847
-38.166
-36.312
-34.301
-32.134
-29.82
-27.366
-24.783
-22.09
-19.303
-16.43
-13.483
-10.476
-7.424
-4.345
-1.257
1.826
4.885
7.903
10.862
13.744
16.531
19.205
21.747
24.138
26.357
28.385
30.204
31.799
33.152
34.25
35.083
35.643
35.925
35.925
35.64
35.064
34.194
33.03
31.576
29.837
27.819
25.531
22.989
20.213
17.225
14.041
10.672
7.116
3.377
-0.531
-4.597
-8.798
-13.107
-17.495
-21.918
-26.317
-30.636
-34.82
-38.825
-42.62
-46.163
-49.398
-52.263
-54.677
-56.579
-57.927
-58.681
-58.831
-58.393
-57.402
-55.927
-54.056
-51.881
-49.51
-47.08
-44.729
-42.625
-40.921
-39.814
-39.59
-40.401
-42.211
-44.792
-47.63
-50.146
-51.906
-52.403
-50.96
-47.32
-41.797
-35.243
-29.272
-25.504
-24.909
-28.305
-36.536
-49.49
-65.727
-82.579
-95.901
-101.351
-95.774
-76.202
-39.538
15.863
89.598
179.094
279.212
383.977
488.406
586.809
672.344
738.938
781.796
798.367
789.075
755.168
697.343
617.865
521.008
411.99
296.938
180.968
67.318
-40.364
-137.617
-220.984
-288.062
-338.028
-372.125
-391.45
-396.341
-388.41
-370.216
-344.223
-313.513
-280.451
-245.94
-211.387
-178.831
-149.308
-123.497
-102.148
-84.837
-71.109
-61.086
-53.991
-48.408
-43.583
-38.734
-32.912
-26.045
-18.218
-9.379
-0.216
8.227
15.406
20.861
24.155
25.376
24.708
22.357
18.907
15.091
11.4
8.209
5.803
4.236
3.534
3.724
4.709
6.351
8.558
11.245
14.334
17.787
21.531
25.458
29.474
33.468
37.315
40.925
44.225
47.165
49.734
51.938
53.786
55.302
56.525
57.493
58.258
58.867
59.357
59.779
60.187
60.645
61.225
61.986
62.967
64.206
65.724
67.542
69.678
72.138
74.919
78.017
81.429
85.151
89.184
93.52
98.146
103.046
108.198
113.583
119.179
124.965
130.914
137.001
143.197
149.473
155.805
162.161
168.508
174.811
181.036
187.147
193.108
198.883
204.438
209.736
214.745
219.434
223.774
227.738
231.298
234.43
237.115
239.332
241.064
242.298
243.022
243.226
242.904
242.052
240.67
238.76
236.326
233.376
229.92
225.972
221.547
216.663
211.341
205.603
199.475
192.983
186.154
179.019
171.608
163.953
156.086
148.041
139.849
131.545
123.161
114.729
106.281
97.848
89.461
81.147
72.936
64.854
56.927
49.179
41.634
34.313
27.235
20.418
13.878
7.63
1.685
-3.947
-9.259
-14.246
-18.904
-23.232
-27.23
-30.902
-34.253
-37.287
-40.014
-42.442
-44.582
-46.447
-48.048
-49.401
-50.52
-51.42
-52.117
-52.626
-52.964
-53.148
-53.193
-53.117
-52.936
-52.667
-52.325
-51.928
-51.491
-51.03
-50.558
-50.09
-49.638
-49.213
-48.827
-48.489
-48.208
-47.991
-47.843
-47.771
-47.779
-47.869
-48.043
-48.303
-48.649
-49.08
-49.593
-50.188
-50.861
-51.609
-52.429
-53.316
-54.268
-55.278
-56.343
-57.456
-58.614
-59.809
-61.036
-62.288
-63.559
-64.843
-66.133
-67.424
-68.71
-69.987
-71.248
-72.491
-73.712
-74.906
-76.071
-77.206
-78.308
-79.375
-80.409
-81.408
-82.373
-83.304
-84.203
-85.071
-85.91
-86.72
-87.505
-88.264
-89.002
-89.72
-90.42
-91.106
-91.78
-92.447
-93.109
-93.77
-94.435
-95.108
-95.791
-96.489
-97.206
-97.946
-98.711
-99.504
-100.328
-101.185
-102.076
-103.001
-103.962
-104.958
-105.987
-107.05
-108.144
-109.268
-110.421
-111.599
-112.8
-114.022
-115.261
-116.514
-117.776
-119.043
-120.309
-121.57
-122.82
-124.052
-125.262
-126.44
-127.582
-128.679
-129.724
-130.709
-131.625
-132.466
-133.222
-133.887
-134.454
-134.917
-135.27
-135.51
-135.632
-135.634
-135.512
-135.266
-134.893
-134.391
-133.76
-133
-132.111
-131.096
-129.958
-128.703
-127.34
-125.878
-124.326
-122.696
-120.999
-119.246
-117.449
-115.617
-113.757
-111.88
-109.994
-108.114
-106.254
-104.427
-102.642
-100.911
-99.244
-97.648
-96.131
-94.693
-93.331
-92.048
-90.85
-89.753
-88.784
-87.963
-87.301
-86.803
