Name,John Breau
Date of Birth,"Dec 20, 1971"
Recorded Date,2023-05-17 10:23:11 -0500
Classification,Sinus Rhythm
Symptoms,
Software Version,1.90
Device,"Watch6,3"
Sample Rate,512 hertz


Lead,Lead I
Unit,µV

-62.345
-62.037
-61.583
-61.607
-61.376
-61.212
-59.179
-52.026
-41.457
-28.734
-19.355
-23.212
-41.819
-74.009
-110.45
-131.855
-126.487
-88.794
-25.482
41.328
91.149
109.597
93.377
54.281
8.018
-34.618
-69.315
-101.486
-141.849
-193.487
-252.73
-307.864
-338.972
-334.124
-289.032
-207.857
-107.524
-3.401
91.382
167.408
225.799
270.107
305.466
336.888
364.347
385.855
398.547
400.702
393.605
380.333
364.732
349.6
335.996
324.07
313.526
303.999
295.086
285.914
275.22
261.913
245.58
226.306
204.257
179.786
153.544
126.624
100.603
76.19
52.726
29.239
5.713
-14.679
-27.557
-30.477
-24.988
-20.847
-29.747
-59.229
-111.948
-177.412
-239.551
-286.494
-308.845
-309.967
-301.269
-290.172
-283.361
-280.287
-274.611
-264.394
-249.116
-230.327
-212.261
-196.667
-183.994
-175.114
-169.627
-166.742
-165.9
-165.811
-165.399
-164.31
-162.067
-158.069
-152.149
-144.4
-135.139
-125.126
-114.85
-104.405
-93.952
-83.628
-73.501
-63.65
-53.988
-44.246
-34.298
-24.157
-13.861
-3.511
6.825
17.131
27.333
37.318
46.993
56.278
65.117
73.483
81.344
88.667
95.427
101.607
107.199
112.205
116.633
120.495
123.796
126.539
128.727
130.361
131.448
131.999
132.027
131.543
130.56
129.091
127.155
124.773
121.96
118.731
115.097
111.066
106.65
101.864
96.721
91.234
85.414
79.273
72.826
66.088
59.076
51.802
44.275
36.504
28.502
20.284
11.868
3.268
-5.5
-14.423
-23.479
-32.644
-41.894
-51.207
-60.576
-69.992
-79.443
-88.912
-98.38
-107.821
-117.213
-126.53
-135.725
-144.751
-153.55
-162.06
-170.231
-178.012
-185.356
-192.223
-198.555
-204.286
-209.345
-213.662
-217.194
-219.933
-221.906
-223.138
-223.641
-223.494
-222.895
-222.156
-221.61
-221.482
-221.774
-222.476
-223.808
-225.888
-228.599
-231.462
-233.619
-234.45
-233.944
-232.258
-229.203
-224.652
-218.693
-212.086
-206.57
-203.601
-203.666
-206.623
-212.409
-221.001
-231.934
-243.75
-252.682
-253.953
-244.878
-224.136
-192.22
-151.519
-100.59
-36.389
44.127
145.736
266.78
400.515
536.86
660.678
760.667
830.134
867.668
877.94
864.882
831.407
777.808
702.45
606.823
494.104
369.793
241.337
114.389
-5.858
-114.279
-207.512
-283.071
-339.291
-376.562
-396.236
-399.723
-389.612
-369.291
-341.919
-310.619
-278.208
-246.294
-215.993
-188.548
-164.425
-143.438
-125.34
-109.592
-95.474
-82.735
-71.213
-60.406
-50.027
-39.976
-30.032
-20.105
-10.367
-0.904
8.219
16.79
24.674
31.78
37.851
42.598
46.01
48.246
49.535
50.171
50.401
50.429
50.593
51.364
53.056
55.83
59.752
64.769
70.842
77.976
86.114
95.12
104.846
115.114
125.748
136.665
147.775
158.975
170.159
181.155
191.819
202.075
211.838
221.004
229.459
237.074
243.795
249.717
254.955
259.663
264.143
268.754
273.83
279.474
285.427
291.287
297.358
304.721
313.973
324.463
332.906
334.672
328.246
317.049
309.224
314.113
335.6
368.752
404.389
434.152
454.124
469.155
483.515
494.673
497.264
479.751
435.716
372.501
301.927
241.099
203.629
189.075
191.606
202.547
213.37
223.975
237.422
253.675
272.381
289.65
300.001
304.317
304.275
302.221
302.014
302.716
303.478
304.491
304.49
304.182
304.171
303.49
302.606
301.732
299.178
294.563
286.056
271.367
253.158
233.261
214.209
199.487
186.13
171.587
154.205
131.274
105.105
78.117
51.057
25.426
0.689
-23.934
-48.103
-71.769
-94.715
-116.622
-137.427
-156.996
-175.063
-191.382
-205.825
-218.353
-228.975
-237.765
-244.778
-250.036
-253.615
-255.6
-256.072
-255.133
-252.874
-249.364
-244.735
-239.193
-232.947
-226.225
-219.185
-211.885
-204.373
-196.675
-188.815
-180.846
-172.807
-164.713
-156.591
-148.487
-140.459
-132.606
-124.999
-117.642
-110.532
-103.661
-97.048
-90.776
-84.926
-79.55
-74.71
-70.477
-66.896
-63.995
-61.827
-60.429
-59.794
-59.904
-60.683
-61.98
-63.706
-65.889
-68.377
-70.799
-73.033
-75.086
-76.827
-78.64
-80.11
-79.282
-76.419
-73.268
-72.222
-79.295
-95.261
-113.737
-129.198
-132.247
-119.593
-100.957
-83.602
-75.956
-82.963
-96.1
-109.26
-118.38
-119.55
-117.087
-114.248
-111.426
-110.067
-109.094
-107.462
-105.718
-103.874
-101.993
-100.311
-98.755
-97.274
-95.947
-94.815
-93.867
-93.12
-92.651
-92.513
-92.736
-93.344
-94.272
-95.404
-96.674
-98.016
-99.378
-100.769
-102.116
-103.244
-103.938
-103.882
-102.753
-100.338
-96.382
-90.555
-82.743
-73.133
-62.234
-50.969
-40.253
-30.662
-22.723
-17.048
-13.962
-13.335
-14.567
-16.352
-17.164
-16.122
-12.593
-5.786
4.526
18.881
38.55
63.297
91.243
117.286
131.843
127.131
101.726
64.029
31.236
16.44
18.748
17.807
-20.499
-125.331
-307.399
-549.896
-816.392
-1068.702
-1278.325
-1438.315
-1554.434
-1633.357
-1680.021
-1689.437
-1660.183
-1602.409
-1532.445
-1474.182
-1441.535
-1432.127
-1434.945
-1432.073
-1413.886
-1382.197
-1343.493
-1307.826
-1279.942
-1258.63
-1241.61
-1225.453
-1208.346
-1190.414
-1171.464
-1151.149
-1129.45
-1106.378
-1082.049
-1056.923
-1031.464
-1006.055
-981.379
-958.238
-936.952
-917.556
-899.93
-883.72
-868.663
-854.573
-841.066
-827.713
-814.243
-800.479
-786.375
-772.004
-757.354
-742.377
-727.058
-711.379
-695.377
-679.149
-662.76
-646.261
-629.746
-613.343
-597.197
-581.465
-566.246
-551.565
-537.471
-524.068
-511.344
-499.125
-487.433
-476.413
-466.079
-456.704
-447.772
-437.792
-427.112
-417.016
-409.724
-409.343
-415.337
-423.453
-429.394
-427.116
-416.425
-402.835
-390.571
-384.266
-384.446
-386.834
-388.852
-388.647
-385.709
-381.73
-377.456
-372.916
-368.279
-363.377
-358.216
-353.087
-348.134
-343.407
-338.972
-334.859
-331.065
-327.66
-324.834
-322.728
-321.361
-320.712
-320.724
-321.21
-321.81
-321.895
-320.524
-317.627
-314.325
-311.381
-308.567
-303.173
-290.995
-270.811
-246.507
-225.977
-216.684
-221.493
-235.424
-249.838
-259.63
-260.209
-250.353
-228.5
-184.95
-114.134
-13.389
116.331
260.561
405.35
537.047
639.84
708.685
741.927
741.029
715.426
671.057
610.397
533.971
436.607
315.374
174.357
23.378
-121.412
-244.736
-339.062
-404.921
-450.532
-484.897
-512.513
-533.578
-544.317
-541.846
-526.625
-501.227
-469.554
-434.511
-397.558
-359.475
-321.196
-284.45
-251.02
-222.326
-199.158
-181.577
-169.372
-162.338
-159.719
-160.118
-161.979
-163.655
-164.105
-163.057
-160.44
-156.322
-151.062
-145.248
-139.69
-135.325
-132.601
-131.457
-131.671
-132.865
-134.63
-136.594
-138.254
-139.067
-138.741
-137.184
-134.423
-130.596
-125.812
-120.151
-113.757
-106.802
-99.434
-91.802
-84.026
-76.207
-68.471
-60.933
-53.69
-46.819
-40.355
-34.312
-28.69
-23.476
-18.647
-14.175
-10.02
-6.14
-2.498
0.957
4.277
7.518
10.749
14.029
17.403
20.912
24.587
28.446
32.508
36.782
41.265
45.964
50.882
56.027
61.418
67.06
72.952
79.088
85.45
92.013
98.749
105.623
112.597
119.639
126.727
133.847
141
148.187
155.405
162.64
169.863
177.046
184.166
191.205
198.149
205.001
211.777
218.503
225.215
231.932
238.649
245.332
251.919
258.331
264.477
270.281
275.69
280.657
285.139
289.095
292.484
295.25
297.329
298.642
299.095
298.619
297.178
294.777
291.464
287.318
282.45
276.955
270.916
264.406
257.487
250.218
242.655
234.862
226.906
218.877
210.881
203.012
195.343
187.92
180.753
173.827
167.104
160.552
154.147
147.875
141.736
135.736
129.885
124.197
118.687
113.355
108.186
103.169
98.293
93.558
88.979
84.581
80.396
76.455
72.784
69.402
66.32
63.541
61.063
58.875
56.966
55.324
53.944
52.821
51.95
51.326
50.938
50.774
50.82
51.059
51.476
52.054
52.781
53.643
54.629
55.729
56.937
58.245
59.642
61.122
62.672
64.284
65.946
67.651
69.386
71.144
72.916
74.694
76.471
78.241
79.997
81.735
83.448
85.132
86.78
88.391
89.958
91.478
92.947
94.363
95.723
97.024
98.265
99.444
100.56
101.613
102.601
103.526
104.387
105.185
105.921
106.597
107.213
107.772
108.276
108.728
109.131
109.487
109.8
110.073
110.309
110.512
110.685
110.831
110.954
111.057
111.145
111.219
111.284
111.342
111.398
111.453
111.511
111.573
111.641
111.718
111.804
111.899
112.005
112.121
112.245
112.377
112.514
112.656
112.799
112.941
113.078
113.208
113.327
113.431
113.515
113.576
113.608
113.607
113.569
113.488
113.359
113.177
112.937
112.634
112.263
111.819
111.298
110.694
110.003
109.221
108.345
107.371
106.296
105.118
103.837
102.45
100.959
99.364
97.665
95.864
93.963
91.966
89.875
87.693
85.426
83.077
80.653
78.158
75.598
72.981
70.312
67.599
64.849
62.069
59.267
56.451
53.629
50.81
48.002
45.214
42.457
39.738
37.067
34.452
31.903
29.428
27.034
24.728
22.519
20.411
18.413
16.529
14.765
13.128
11.62
10.248
9.015
7.923
6.976
6.177
5.526
5.026
4.677
4.482
4.439
4.55
4.814
5.23
5.797
6.512
7.373
8.374
9.512
10.783
12.179
13.695
15.326
17.064
18.902
20.832
22.846
24.935
27.089
29.298
31.55
33.832
36.131
38.435
40.729
42.999
45.227
47.397
49.493
51.501
53.408
55.199
56.862
58.382
59.746
60.947
61.973
62.816
63.466
63.909
64.141
64.165
63.987
63.618
63.062
62.314
61.371
60.236
58.912
57.402
55.714
53.851
51.833
49.695
47.483
45.256
43.059
40.919
38.852
36.863
34.983
33.276
31.808
30.646
29.846
29.421
29.397
29.832
30.676
31.816
33.054
34.052
34.607
34.703
34.311
33.445
32.205
30.6
28.803
27.329
26.417
26.091
26.401
27.149
28.147
29.551
31.362
33.122
34.572
35.357
34.952
33.321
30.296
25.336
18.076
8.471
-2.283
-11.395
-16.206
-14.082
-4.856
8.588
26.788
51.622
88.078
147.634
235.479
351.031
489.555
633.439
764.691
870.685
940.384
974.582
981.2
965.15
930.632
877.853
801.711
701.302
582.51
452.657
322.619
201.96
92.083
-5.371
-89.646
-161.986
-218.862
-258.593
-282.097
-289.32
-283.357
-268.09
-246.06
-220.35
-193.425
-166.411
-140.548
-117.274
-97.331
-81.111
-68.515
-58.662
-50.66
-44.192
-38.852
-33.898
-28.616
-22.181
-14.266
-5.321
4.098
13.62
22.877
31.5
39.017
44.715
48.219
49.637
49.208
47.305
44.3
40.423
35.983
31.439
27.138
23.347
20.283
17.987
16.475
15.793
15.921
16.821
18.456
20.734
23.557
26.847
30.504
34.459
38.657
43.015
47.437
51.812
56.018
59.978
63.657
67.021
70.053
72.745
75.094
77.136
78.925
80.507
81.929
83.226
84.426
85.576
86.725
87.927
89.241
90.708
92.352
94.202
96.28
98.608
101.208
104.084
107.225
110.624
114.266
118.132
122.197
126.427
130.779
135.223
139.73
144.286
148.888
153.534
158.221
162.939
167.66
172.363
177.029
181.643
186.195
190.689
195.142
199.579
204.035
208.528
213.05
217.567
222.015
226.314
230.369
234.104
237.464
240.399
242.867
244.827
246.236
247.038
247.169
246.552
245.091
242.721
239.404
235.146
229.998
224.041
217.386
210.134
202.369
194.169
185.598
176.717
167.586
158.274
148.853
139.415
130.071
120.92
112.041
103.484
95.262
87.366
79.759
72.411
65.299
58.412
51.75
45.318
39.128
33.191
27.522
22.117
16.96
12.034
7.323
2.824
-1.454
-5.493
-9.266
-12.749
-15.922
-18.773
-21.301
-23.51
-25.412
-27.025
-28.373
-29.474
-30.345
-31.001
-31.454
-31.72
-31.818
-31.77
-31.599
-31.328
-30.98
-30.578
-30.143
-29.692
-29.242
-28.804
-28.388
-28.004
-27.662
-27.37
-27.137
-26.971
-26.88
-26.871
-26.949
-27.117
-27.38
-27.737
-28.188
-28.73
-29.363
-30.08
-30.88
-31.756
-32.702
-33.713
-34.783
-35.903
-37.068
-38.268
-39.496
-40.744
-42.002
-43.263
-44.517
-45.757
-46.976
-48.164
-49.317
-50.426
-51.486
-52.491
-53.434
-54.311
-55.117
-55.846
-56.494
-57.059
-57.536
-57.923
-58.219
-58.424
-58.535
-58.554
-58.48
-58.315
-58.06
-57.717
-57.287
-56.774
-56.181
-55.512
-54.772
-53.964
-53.095
-52.17
-51.194
-50.173
-49.114
-48.022
-46.904
-45.766
-44.615
-43.457
-42.299
-41.148
-40.011
-38.894
-37.803
-36.746
-35.728
-34.755
-33.833
-32.969
-32.167
-31.434
-30.775
-30.194
-29.697
-29.287
-28.969
-28.745
-28.619
-28.592
-28.667
-28.843
-29.123
-29.506
-29.992
-30.579
-31.267
-32.054
-32.938
-33.917
-34.988
-36.148
-37.393
-38.72
-40.126
-41.606
-43.157
-44.772
-46.448
-48.18
-49.961
-51.787
-53.652
-55.548
-57.47
-59.412
-61.368
-63.33
-65.292
-67.248
-69.193
-71.12
-73.023
-74.898
-76.739
-78.542
-80.303
-82.017
-83.68
-85.289
-86.84
-88.329
-89.753
-91.108
-92.392
-93.601
-94.731
-95.781
-96.748
-97.628
-98.422
-99.126
-99.74
-100.262
-100.691
-101.028
-101.272
-101.422
-101.48
-101.445
-101.319
-101.103
-100.798
-100.407
-99.93
-99.369
-98.725
-98.001
-97.196
-96.314
-95.355
-94.322
-93.218
-92.045
-90.807
-89.509
-88.155
-86.75
-85.298
-83.806
-82.278
-80.721
-79.14
-77.54
-75.931
-74.32
-72.718
-71.134
-69.581
-68.067
-66.606
-65.214
-63.895
-62.655
-61.503
-60.442
-59.49
-58.671
-57.983
-57.424
-57.037
-56.855
-56.902
-57.21
-57.76
-58.512
-59.497
-60.764
-62.187
-63.618
-65.132
-66.716
-68.352
-70.349
-71.889
-72.169
-72.315
-72.656
-75.267
-82.625
-91.922
-101.266
-107.859
-107.869
-104.6
-100.844
-98.513
-100.784
-105.308
-109.693
-113.364
-114.851
-114.952
-114.752
-114.054
-112.987
-111.575
-109.753
-107.929
-106.603
-105.955
-106.014
-106.802
-108.361
-110.753
-113.988
-117.698
-121.07
-123.491
-124.702
-124.682
-123.5
-120.993
-117.055
-112.111
-107.293
-104.011
-103.359
-105.929
-112.147
-121.641
-132.701
-143.588
-151.954
-157.603
-163.741
-170.615
-175.224
-168.628
-136.044
-69.548
30.338
154.405
285.317
410.604
524.058
623.075
708.878
779.833
831.27
859.03
859.801
832.741
779.43
702.811
606.985
496.726
377.696
255.818
136.148
23.402
-78.313
-166.103
-237.835
-292.492
-330.956
-355.055
-366.709
-368.214
-361.759
-349.305
-333.068
-314.937
-295.689
-275.554
-254.687
-233.375
-212.405
-192.614
-174.436
-157.988
-143.543
-131.555
-122.406
-115.994
-111.544
-107.994
-104.379
-100.28
-95.6
-90.224
-84.102
-77.371
-70.466
-64.093
-59.028
-55.622
-53.867
-53.644
-54.711
-56.854
-59.85
-63.332
-66.839
-70.025
-72.68
-74.673
-75.997
-76.646
-76.59
-75.855
-74.495
-72.577
-70.179
-67.372
-64.206
-60.722
-56.961
-52.964
-48.8
-44.552
-40.306
-36.154
-32.152
-28.337
-24.739
-21.367
-18.221
-15.284
-12.521
-9.886
-7.341
-4.856
-2.405
0.034
2.497
5.024
7.657
10.447
13.427
16.624
20.06
23.75
27.701
31.915
36.381
41.084
46.009
51.143
56.472
61.983
67.66
73.481
79.423
85.459
91.563
97.707
103.863
110
116.089
122.099
128.002
133.77
139.375
144.785
149.97
154.9
159.543
163.871
167.855
171.467
174.682
177.476
179.828
181.72
183.135
184.061
184.485
184.4
183.8
182.683
181.049
178.902
176.248
173.094
169.452
165.337
160.766
155.756
150.329
144.51
138.322
131.795
124.955
117.834
110.464
102.875
95.102
87.179
79.14
71.02
62.855
54.678
46.525
38.429
30.422
22.537
14.803
7.249
-0.099
-7.214
-14.075
-20.66
-26.951
-32.929
-38.582
-43.895
-48.861
-53.471
-57.719
-61.603
-65.121
-68.276
-71.069
-73.507
-75.596
-77.346
-78.765
-79.868
-80.666
-81.176
-81.413
-81.395
-81.139
-80.666
-79.994
-79.145
-78.139
-76.995
-75.735
-74.379
-72.946
-71.456
-69.927
-68.376
-66.819
-65.274
-63.753
-62.271
-60.839
-59.467
-58.166
-56.943
-55.805
-54.759
-53.808
-52.956
-52.206
-51.557
-51.012
-50.568
-50.224
-49.976
-49.821
-49.754
-49.768
-49.858
-50.016
-50.236
-50.507
-50.823
-51.173
-51.551
-51.946
-52.35
-52.755
-53.153
-53.535
-53.895
-54.226
-54.523
-54.779
-54.99
-55.153
-55.263
-55.319
-55.317
-55.257
-55.137
-54.958
-54.719
-54.42
-54.064
-53.651
-53.185
-52.668
-52.104
-51.496
-50.849
-50.167
-49.457
-48.723
-47.971
-47.208
-46.439
-45.671
-44.909
-44.16
-43.431
-42.725
-42.05
-41.409
-40.808
-40.25
-39.739
-39.279
-38.871
-38.519
-38.224
-37.988
-37.812
-37.697
-37.643
-37.651
-37.719
-37.848
-38.037
-38.283
-38.585
-38.941
-39.348
-39.804
-40.306
-40.849
-41.431
-42.046
-42.691
-43.362
-44.055
-44.764
-45.485
-46.214
-46.948
-47.681
-48.41
-49.132
-49.844
-50.542
-51.223
-51.886
-52.529
-53.148
-53.743
-54.313
-54.855
-55.369
-55.855
-56.312
-56.74
-57.138
-57.507
-57.848
-58.162
-58.449
-58.711
-58.949
-59.166
-59.363
-59.542
-59.705
-59.855
-59.993
-60.121
-60.241
-60.356
-60.467
-60.576
-60.684
-60.792
-60.901
-61.013
-61.127
-61.243
-61.362
-61.484
-61.607
-61.732
-61.857
-61.982
-62.105
-62.225
-62.341
-62.449
-62.548
-62.634
-62.706
-62.759
-62.791
-62.797
-62.775
-62.719
-62.628
-62.497
-62.322
-62.101
-61.829
-61.504
-61.122
-60.68
-60.175
-59.604
-58.964
-58.253
-57.469
-56.612
-55.679
-54.67
-53.583
-52.419
-51.176
-49.856
-48.457
-46.982
-45.43
-43.803
-42.104
-40.337
-38.503
-36.609
-34.658
-32.656
-30.609
-28.522
-26.402
-24.254
-22.086
-19.905
-17.718
-15.534
-13.362
-11.212
-9.097
-7.029
-5.02
-3.083
-1.23
0.524
2.167
3.688
5.078
6.33
7.435
8.383
9.163
9.766
10.187
10.42
10.462
10.308
9.955
9.404
8.662
7.74
6.642
5.366
3.901
2.237
0.372
-1.689
-3.94
-6.372
-8.974
-11.718
-14.559
-17.444
-20.321
-23.144
-25.874
-28.48
-30.915
-33.118
-35.026
-36.558
-37.658
-38.301
-38.459
-38.131
-37.354
-36.137
-34.54
-32.762
-30.986
-29.407
-28.253
-27.554
-27.355
-27.966
-29.615
-32.288
-35.875
-39.909
-43.872
-47.767
-51.476
-54.478
-56.4
-57.068
-56.708
-56.459
-57.386
-59.892
-64.615
-72.227
-83.051
-96.493
-110.24
-120.733
-125.326
-124.565
-120.127
-112.5
-98.939
-69.608
-14.186
72.088
188.339
321.462
453.581
571.614
664.796
732.082
779.093
807.953
820.471
815.067
786.312
732.551
655.116
557.459
445.872
326.759
205.691
87.84
-22.511
-122.572
-210.155
-282.545
-335.949
-366.869
-374.796
-364.099
-344.635
-327.074
-317.365
-314.988
-313.468
-305.239
-287.448
-263.393
-238.453
-216.267
-196.994
-175.441
-148.207
-119.193
-94.43
-82.447
-89.259
-108.329
-128.071
-138.095
-128.19
-99.994
-65.886
-34.916
-16.661
-14.851
-20.88
-29.058
-35.157
-35.439
-33.932
-33.334
-33.652
-35.822
-38.36
-39.895
-40.703
-40.734
-40.025
-38.794
-36.963
-34.435
-31.255
-27.493
-23.176
-18.375
-13.222
-7.798
-2.172
3.546
9.278
14.931
20.379
25.555
30.432
34.985
39.205
43.089
46.633
49.869
52.852
55.627
58.242
60.732
63.125
65.464
67.797
70.175
72.655
75.279
78.071
81.06
84.266
87.705
91.391
95.323
99.489
103.885
108.505
113.344
118.399
123.657
129.105
134.724
140.498
146.404
152.421
158.527
164.695
170.899
177.112
183.307
189.459
195.538
201.513
207.354
213.027
218.5
223.742
228.722
233.408
237.77
241.782
245.417
248.652
251.463
253.832
255.739
257.169
258.109
258.547
258.476
257.888
256.783
255.16
253.021
250.371
247.22
243.578
239.459
234.879
229.857
224.414
218.573
212.359
205.801
198.926
191.765
184.348
176.709
168.879
160.893
152.784
144.586
136.332
128.055
119.787
111.56
103.403
95.348
87.421
79.649
72.059
64.675
57.517
50.607
43.964
37.603
31.539
25.784
20.349
15.241
10.466
6.027
1.927
-1.836
-5.265
-8.363
-11.139
-13.599
-15.753
-17.614
-19.193
-20.503
-21.561
-22.38
-22.977
-23.369
-23.572
-23.603
-23.48
-23.221
-22.843
-22.362
-21.797
-21.163
-20.476
-19.752
-19.005
-18.251
-17.5
-16.767
-16.061
-15.394
-14.774
-14.209
-13.707
-13.273
-12.912
-12.627
-12.421
-12.295
-12.25
-12.284
-12.396
-12.585
-12.848
-13.181
-13.58
-14.041
-14.559
-15.13
-15.747
-16.405
-17.097
-17.818
-18.562
-19.321
-20.091
-20.864
-21.634
-22.397
-23.145
-23.874
-24.578
-25.253
-25.894
-26.496
-27.055
-27.569
-28.035
-28.449
-28.811
-29.119
-29.372
-29.569
-29.71
-29.796
-29.825
-29.8
-29.72
-29.586
-29.4
-29.164
-28.88
-28.549
-28.174
-27.759
-27.305
-26.816
-26.295
-25.746
-25.172
-24.578
-23.967
-23.343
-22.712
-22.077
-21.444
-20.817
-20.201
-19.6
-19.02
-18.465
-17.94
-17.448
-16.995
-16.585
-16.223
-15.913
-15.659
-15.467
-15.34
-15.283
-15.299
-15.392
-15.567
-15.825
-16.17
-16.603
-17.129
-17.747
-18.459
-19.266
-20.168
-21.165
-22.256
-23.44
-24.714
-26.076
-27.524
-29.052
-30.659
-32.339
-34.088
-35.901
-37.773
-39.699
-41.672
-43.688
-45.739
-47.82
-49.924
-52.043
-54.173
-56.305
-58.435
-60.554
-62.658
-64.741
-66.797
-68.822
-70.811
-72.759
-74.665
-76.524
-78.335
-80.096
-81.808
-83.469
-85.081
-86.645
-88.163
-89.638
-91.072
-92.468
-93.832
-95.166
-96.476
-97.766
-99.041
-100.307
-101.567
-102.826
-104.09
-105.362
-106.648
-107.949
-109.271
-110.614
-111.983
-113.378
-114.8
-116.249
-117.724
-119.224
-120.745
-122.284
-123.835
-125.394
-126.952
-128.503
-130.037
-131.545
-133.019
-134.446
-135.815
-137.115
-138.334
-139.459
-140.477
-141.376
-142.142
-142.764
-143.231
-143.531
-143.653
-143.589
-143.33
-142.868
-142.198
-141.315
-140.215
-138.894
-137.353
-135.593
-133.615
-131.424
-129.027
-126.434
-123.657
-120.712
-117.614
-114.381
-111.033
-107.591
-104.074
-100.507
-96.91
-93.308
-89.726
-86.192
-82.732
-79.377
-76.153
-73.087
-70.2
-67.514
-65.044
-62.806
-60.809
-59.063
-57.578
-56.366
-55.44
-54.808
-54.47
-54.422
-54.655
-55.153
-55.894
-56.848
-57.972
-59.229
-60.585
-62.01
-63.477
-64.944
-66.367
-67.697
-68.888
-69.913
-70.756
-71.389
-71.784
-71.926
-71.805
-71.473
-70.993
-70.368
-69.667
-69.015
-68.593
-68.74
-69.777
-71.864
-75.142
-79.736
-85.457
-91.932
-98.557
-104.218
-107.835
-108.66
-106.05
-99.657
-89.86
-77.376
-63.299
-49.841
-39.353
-33.544
-34.036
-41.004
-52.541
-67.754
-85.798
-105.372
-126.555
-144.667
-151.166
-137.882
-96.701
-27.845
61.621
164.345
273.908
390.883
517.154
648.683
774.208
874.868
935.501
951.286
928.464
880.178
815.118
735.204
636.909
518.411
385.876
249.707
122.42
10.496
-87.484
-173.631
-251.176
-319.462
-373.522
-411.083
-430.865
-433.373
-421.948
-399.415
-368.258
-331.23
-290.662
-248.65
-207.593
-170.055
-138.026
-112.465
-93.462
-80.392
-72.177
-67.832
-66.111
-65.08
-62.914
-58.623
-51.906
-43.095
-32.879
-21.817
-10.533
-0.068
8.484
14.498
17.802
18.623
17.456
14.737
10.845
6.284
1.643
-2.624
-6.203
-8.913
-10.742
-11.7
-11.779
-11.022
-9.499
-7.281
-4.463
-1.144
2.597
6.671
10.992
15.496
20.087
24.66
29.109
33.322
37.228
40.799
44.013
46.86
49.349
51.497
53.35
54.969
56.408
57.716
58.936
60.105
61.273
62.494
63.827
65.329
67.046
69.009
71.246
73.78
76.624
79.787
83.266
87.046
91.117
95.473
100.104
105.003
110.159
115.554
121.172
126.995
133.001
139.168
145.47
151.876
158.357
164.879
171.408
177.913
184.358
190.71
196.931
202.986
208.843
214.465
219.817
224.858
229.544
233.84
237.713
241.141
244.108
246.606
248.637
250.208
251.33
252.008
252.243
252.023
251.327
250.135
248.426
246.193
243.446
240.193
236.442
232.197
227.459
222.214
216.439
210.104
203.171
195.623
187.469
178.747
169.531
159.909
149.99
139.863
129.601
119.271
108.935
98.656
88.5
78.547
68.886
59.624
50.883
42.76
35.322
28.593
22.555
17.16
12.327
7.989
4.095
0.601
-2.526
-5.314
-7.792
-9.998
-11.974
-13.785
-15.515
-17.238
-19.008
-20.853
-22.767
-24.721
-26.661
-28.544
-30.333
-32.005
-33.55
-34.968
-36.262
-37.441
-38.514
-39.48
-40.321
-41.022
-41.572
-41.973
-42.241
-42.403
-42.495
-42.553
-42.608
-42.685
-42.802
-42.967
-43.185
-43.454
-43.767
-44.121
-44.516
-44.955
-45.44
-45.972
-46.547
-47.158
-47.797
-48.454
-49.119
-49.782
-50.434
-51.069
-51.682
-52.27
-52.832
-53.367
-53.873
-54.348
-54.789
-55.191
-55.553
-55.87
-56.138
-56.355
-56.519
-56.628
-56.681
-56.677
-56.618
-56.502
-56.33
-56.103
-55.823
-55.489
-55.104
-54.669
-54.187
-53.66
-53.092
-52.485
-51.845
-51.174
-50.476
-49.756
-49.017
-48.263
-47.498
-46.725
-45.947
-45.168
-44.392
-43.621
-42.86
-42.113
-41.382
-40.672
-39.986
-39.327
-38.699
-38.103
-37.544
-37.024
-36.545
-36.11
-35.723
-35.384
-35.098
-34.866
-34.689
-34.569
-34.506
-34.501
-34.554
-34.665
-34.833
-35.058
-35.339
-35.675
-36.064
-36.506
-36.998
-37.54
-38.128
-38.761
-39.437
-40.154
-40.909
-41.701
-42.526
-43.384
-44.271
-45.185
-46.123
-47.082
-48.059
-49.05
-50.052
-51.062
-52.076
-53.09
-54.103
-55.109
-56.107
-57.094
-58.067
-59.024
-59.962
-60.88
-61.776
-62.648
-63.495
-64.315
-65.108
-65.871
-66.604
-67.306
-67.975
-68.61
-69.209
-69.77
-70.291
-70.771
-71.207
-71.599
-71.944
-72.241
-72.489
-72.688
-72.836
-72.931
-72.975
-72.964
-72.9
-72.779
-72.603
-72.371
-72.081
-71.734
-71.328
-70.863
-70.338
-69.753
-69.106
-68.397
-67.625
-66.789
-65.891
-64.929
-63.906
-62.823
-61.681
-60.482
-59.23
-57.928
-56.579
-55.189
-53.761
-52.301
-50.815
-49.309
-47.79
-46.266
-44.744
-43.236
-41.75
-40.299
-38.896
-37.555
-36.29
-35.114
-34.036
-33.069
-32.22
-31.5
-30.916
-30.476
-30.188
-30.061
-30.107
-30.333
-30.745
-31.343
-32.116
-33.053
-34.144
-35.383
-36.773
-38.317
-40.014
-41.867
-43.877
-46.045
-48.368
-50.82
-53.353
-55.917
-58.473
-60.993
-63.482
-65.935
-68.315
-70.577
-72.639
-74.425
-75.901
-77.01
-77.661
-77.843
-77.609
-77.099
-76.624
-76.448
-76.642
-77.268
-78.347
-79.695
-81.115
-82.346
-82.909
-82.491
-81.188
-79.117
-76.467
-73.803
-71.581
-70.175
-70.138
-71.709
-74.639
-78.851
-84.378
-90.725
-97.688
-105.29
-113.285
-122.008
-131.058
-138.186
-141.043
-137.505
-128.232
-117.749
-108.149
-98.655
-82.046
-43.397
26.651
132.077
267.935
415.512
557.201
676.616
761.368
811.783
831.875
828.051
807.302
770.527
716.014
642.014
548.787
440.289
322.79
203.206
86.931
-21.872
-119.737
-204.364
-274.173
-328.336
-367.193
-391.871
-403.741
-404.508
-396.096
-380.414
-359.232
-334.193
-306.773
-277.97
-248.729
-220.228
-193.418
-169.084
-147.986
-130.383
-116.151
-105.354
-97.776
-92.643
-89.192
-86.529
-83.663
-80.206
-76.137
-71.341
-65.901
-60.175
-54.512
-49.484
-45.788
-43.638
-42.94
-43.553
-45.214
-47.646
-50.611
-53.698
-56.363
-58.291
-59.344
-59.488
-58.818
-57.382
-55.187
-52.307
-48.873
-45.005
-40.824
-36.413
-31.794
-27.017
-22.161
-17.325
-12.648
-8.222
-4.088
-0.27
3.224
6.392
9.23
11.763
14.051
16.148
18.105
19.965
21.752
23.504
25.268
27.096
29.051
31.182
33.523
36.113
38.98
42.142
45.606
49.367
53.392
57.661
62.152
66.838
71.7
76.728
81.909
87.255
92.773
98.458
104.296
110.254
116.299
122.418
128.602
134.843
141.155
147.543
154.013
160.6
167.313
174.125
180.991
187.818
194.497
200.949
207.111
212.933
218.379
223.392
227.911
231.892
235.271
237.983
239.956
241.081
241.279
240.525
238.829
236.254
232.901
228.835
224.115
218.798
212.926
206.553
199.735
192.507
184.917
177.026
168.913
160.688
152.451
144.257
136.135
128.083
120.065
112.073
104.106
96.155
88.229
80.341
72.502
64.749
57.117
49.626
42.286
35.087
28.02
21.094
14.33
7.758
1.422
-4.649
-10.425
-15.877
-20.984
-25.733
-30.116
-34.142
-37.823
-41.169
-44.184
-46.874
-49.24
-51.291
-53.041
-54.503
-55.694
-56.632
-57.336
-57.828
-58.13
-58.259
-58.235
-58.072
-57.784
-57.385
-56.89
-56.313
-55.669
-54.971
-54.234
-53.471
-52.695
-51.919
-51.152
-50.403
-49.681
-48.992
-48.34
-47.729
-47.164
-46.644
-46.173
-45.749
-45.372
-45.042
-44.756
-44.513
-44.309
-44.14
-44.004
-43.896
-43.812
-43.746
-43.695
-43.654
-43.618
-43.583
-43.545
-43.5
-43.446
-43.378
-43.295
-43.193
-43.071
-42.926
-42.757
-42.564
-42.348
-42.108
-41.846
-41.563
-41.263
-40.948
-40.62
-40.284
-39.941
-39.597
-39.253
-38.915
-38.585
-38.267
-37.964
-37.68
-37.419
-37.183
-36.975
-36.799
-36.657
-36.551
-36.483
-36.455
-36.468
-36.523
-36.622
-36.763
-36.948
-37.175
-37.443
-37.753
-38.101
-38.487
-38.908
-39.361
-39.844
-40.353
-40.887
-41.441
-42.012
-42.597
-43.194
-43.798
-44.407
-45.018
-45.629
-46.237
-46.839
-47.435
-48.021
-48.595
-49.157
-49.705
-50.237
-50.753
-51.253
-51.735
-52.199
-52.647
-53.078
-53.493
-53.892
-54.276
-54.646
-55.003
-55.349
-55.684
-56.011
-56.331
-56.646
-56.957
-57.267
-57.577
-57.889
-58.204
-58.524
-58.849
-59.181
-59.521
-59.87
-60.228
-60.597
-60.975
-61.365
-61.765
-62.174
-62.592
-63.017
-63.448
-63.884
-64.32
-64.756
-65.19
-65.617
-66.036
-66.444
-66.837
-67.212
-67.564
-67.891
-68.186
-68.446
-68.666
-68.841
-68.967
-69.04
-69.054
-69.006
-68.891
-68.704
-68.442
-68.1
-67.673
-67.159
-66.553
-65.853
-65.056
-64.162
-63.169
-62.078
-60.889
-59.604
-58.225
-56.756
-55.198
-53.557
-51.837
-50.045
-48.187
-46.27
-44.306
-42.303
-40.276
-38.24
-36.21
-34.201
-32.229
-30.309
-28.458
-26.693
-25.028
-23.48
-22.065
-20.798
-19.696
-18.779
-18.062
-17.558
-17.281
-17.235
-17.428
-17.865
-18.543
-19.464
-20.626
-22.028
-23.676
-25.573
-27.714
-30.095
-32.706
-35.524
-38.523
-41.669
-44.91
-48.205
-51.507
-54.773
-57.968
-61.043
-63.951
-66.645
-69.072
-71.201
-72.998
-74.42
-75.423
-75.989
-76.131
-75.935
-75.492
-74.836
-74.06
-73.281
-72.715
-72.732
-73.554
-75.224
-77.799
-81.324
-85.744
-90.965
-96.455
-101.127
-104.18
-105.133
-103.628
-99.665
-93.265
-84.442
-74.255
-64.769
-57.779
-54.942
-56.713
-61.669
-68.678
-76.67
-85.142
-95.847
-109.322
-122.974
-130.249
-119.178
-78.035
-0.962
108.975
240.535
379.098
510.834
628.113
726.7
803.71
859.895
893.664
902.997
887.977
846.203
778.179
688.486
581.253
462.016
334.467
199.548
61.322
-72.564
-190.721
-281.529
-340.274
-369.943
-379.872
-380.089
-375.556
-366.777
-351.561
-328.585
-299.373
-266.84
-233.823
-202.158
-172.957
-146.93
-124.514
-105.944
-90.972
-79.176
-70.414
-64.267
-59.86
-56.197
-52.18
-47.232
-41.453
-35.057
-28.186
-21.126
-14.309
-8.376
-4.177
-2.112
-2.087
-3.85
-7.028
-11.275
-16.3
-21.658
-26.744
-31.117
-34.546
-36.939
-38.355
-38.84
-38.383
-37.031
-34.881
-32.048
-28.663
-24.841
-20.658
-16.184
-11.511
-6.746
-2.026
2.514
6.786
10.745
14.368
17.648
20.575
23.148
25.398
27.373
29.126
30.707
32.155
33.502
34.792
36.079
37.424
38.89
40.522
42.349
44.398
46.686
49.233
52.051
55.141
58.493
62.103
65.966
70.081
74.445
79.051
83.885
88.932
94.174
99.593
105.172
110.89
116.722
122.646
128.637
134.671
140.723
146.766
152.771
158.705
164.537
170.234
175.765
181.096
186.195
191.03
195.572
199.791
203.662
207.157
210.253
212.929
215.162
216.937
218.236
219.047
219.358
219.162
218.453
217.23
215.492
213.243
210.488
207.235
203.497
199.287
194.621
189.518
183.999
178.087
171.807
165.186
158.252
151.034
143.565
135.875
127.997
119.965
111.811
103.569
95.272
86.953
78.644
70.377
62.182
54.09
46.128
38.325
30.706
23.294
16.112
9.18
2.516
-3.864
-9.945
-15.715
-21.166
-26.288
-31.077
-35.53
-39.645
-43.422
-46.866
-49.979
-52.769
-55.243
-57.411
-59.283
-60.873
-62.192
-63.255
-64.077
-64.674
-65.062
-65.258
-65.279
-65.142
-64.865
-64.465
-63.958
-63.362
-62.692
-61.963
-61.192
-60.39
-59.572
-58.75
-57.934
-57.134
-56.36
-55.62
-54.92
-54.266
-53.663
-53.114
-52.622
-52.189
-51.816
-51.503
-51.248
-51.05
-50.908
-50.817
-50.776
-50.78
-50.824
-50.906
-51.018
-51.158
-51.318
-51.495
-51.682
-51.874
-52.067
-52.255
-52.433
-52.597
-52.744
-52.869
-52.969
-53.041
-53.083
-53.094
-53.071
-53.014
-52.922
-52.795
-52.634
-52.439
-52.212
-51.953
-51.666
-51.352
-51.013
-50.652
-50.272
-49.875
-49.464
-49.043
-48.613
-48.179
-47.742
-47.307
-46.876
-46.452
-46.038
-45.637
-45.251
-44.882
-44.532
-44.204
-43.898
-43.617
-43.36
-43.13
-42.927
-42.751
-42.602
-42.479
-42.384
-42.313
-42.268
-42.245
-42.245
-42.265
-42.303
-42.358
-42.428
-42.511
-42.606
-42.711
-42.825
-42.946
-43.072
-43.202
-43.335
-43.47
-43.605
-43.74
-43.873
-44.004
-44.133
-44.258
-44.381
-44.499
-44.614
-44.725
-44.832
-44.935
-45.034
-45.129
-45.223
-45.314
-45.404
-45.494
-45.584
-45.677
-45.773
-45.873
-45.978
-46.088
-46.206
-46.33
-46.462
-46.602
-46.75
-46.904
-47.066
-47.233
-47.404
-47.578
-47.754
-47.928
-48.099
-48.266
-48.424
-48.573
-48.709
-48.829
-48.932
-49.013
-49.07
-49.1
-49.097
-49.06
-48.983
-48.863
-48.696
-48.478
-48.204
-47.871
-47.475
-47.011
-46.476
-45.865
-45.176
-44.405
-43.549
-42.607
-41.578
-40.461
-39.255
-37.962
-36.583
-35.119
-33.573
-31.947
-30.244
-28.467
-26.623
-24.716
-22.752
-20.737
-18.682
-16.598
-14.495
-12.388
-10.287
-8.207
-6.162
-4.168
-2.24
-0.394
1.356
2.994
4.507
5.876
7.086
8.12
8.967
9.618
10.064
10.295
10.304
10.086
9.639
8.968
8.072
6.946
5.585
3.985
2.145
0.075
-2.213
-4.703
-7.371
-10.183
-13.101
-16.078
-19.066
-22.016
-24.889
-27.645
-30.253
-32.679
-34.87
-36.768
-38.31
-39.44
-40.147
-40.467
-40.434
-40.077
-39.479
-38.778
-38.225
-38.181
-38.87
-40.328
-42.556
-45.592
-49.476
-54.184
-59.36
-64.197
-68.03
-70.556
-71.668
-71.343
-69.415
-65.795
-60.903
-55.906
-52.221
-50.942
-52.708
-58.046
-66.637
-76.914
-87.442
-95.885
-101.695
-107.264
-111.704
-111.843
-100.376
-65.373
-1.022
92.912
212.069
345.536
483.863
618.028
736.718
831.863
898.095
934.132
944.934
935.399
907.699
861.659
794.789
706.762
600.982
482.999
359.659
236.869
119.061
9.983
-87.226
-170.038
-236.81
-286.903
-320.723
-339.327
-343.929
-336.16
-318.353
-293.046
-262.677
-229.651
-195.872
-163.041
-133.312
-108.488
-89.297
-75.831
-67.622
-63.725
-63.302
-65.299
-67.86
-69.131
-68.044
-64.153
-57.65
-49.14
-39.167
-28.409
-17.978
-9.057
-2.377
1.782
3.533
3.247
1.273
-2.056
-6.282
-10.871
-15.456
-19.818
-23.816
-27.42
-30.569
-33.148
-35.113
-36.474
-37.229
-37.408
-37.051
-36.179
-34.845
-33.126
-31.068
-28.726
-26.149
-23.369
-20.452
-17.47
-14.491
-11.603
-8.871
-6.331
-4.008
-1.9
0.014
1.758
3.366
4.885
6.354
7.807
9.276
10.784
12.362
14.046
15.876
17.903
20.164
22.686
25.49
28.588
31.984
35.678
39.662
43.919
48.433
53.19
58.175
63.375
68.773
74.348
80.076
85.927
91.876
97.892
103.946
110.006
116.041
122.019
127.91
133.684
139.311
144.757
149.99
154.978
159.688
164.09
168.154
171.851
175.153
178.036
180.478
182.459
183.963
184.975
185.481
185.474
184.946
183.895
182.319
180.222
177.608
174.484
170.862
166.755
162.179
157.151
151.693
145.828
139.579
132.975
126.043
118.813
111.316
103.584
95.65
87.549
79.313
70.978
62.578
54.148
45.72
37.328
29.005
20.781
12.686
4.749
-3.003
-10.546
-17.857
-24.914
-31.697
-38.19
-44.378
-50.247
-55.787
-60.991
-65.85
-70.362
-74.524
-78.335
-81.799
-84.919
-87.7
-90.149
-92.276
-94.091
-95.605
-96.831
-97.784
-98.478
-98.93
-99.156
-99.173
-99
-98.655
-98.155
-97.52
-96.767
-95.915
-94.98
-93.979
-92.93
-91.846
-90.743
-89.635
-88.534
-87.452
-86.4
-85.387
-84.422
-83.512
-82.664
-81.884
-81.175
-80.543
-79.989
-79.515
-79.122
-78.811
-78.581
-78.43
-78.357
-78.359
-78.432
-78.571
-78.773
-79.031
-79.34
-79.693
-80.085
-80.508
-80.955
-81.421
-81.898
-82.379
-82.86
-83.332
-83.791
-84.232
-84.649
-85.038
-85.395
-85.716
-85.998
-86.238
-86.434
-86.583
-86.683
-86.733
-86.73
-86.675
-86.566
-86.403
-86.187
-85.917
-85.595
-85.222
-84.8
-84.332
-83.821
-83.27
-82.683
-82.064
-81.417
-80.748
-80.06
-79.359
-78.65
-77.937
-77.225
-76.518
-75.822
-75.139
-74.474
-73.83
-73.211
-72.619
-72.058
-71.53
-71.038
-70.585
-70.172
-69.802
-69.476
-69.198
-68.967
-68.785
-68.652
-68.569
-68.536
-68.552
-68.617
-68.727
-68.883
-69.08
-69.317
-69.59
-69.896
-70.231
-70.591
-70.972
-71.37
-71.783
-72.205
-72.633
-73.065
-73.497
-73.925
-74.348
-74.762
-75.165
-75.554
-75.928
-76.284
-76.621
-76.936
-77.228
-77.496
-77.737
-77.952
-78.138
-78.294
-78.421
-78.518
-78.585
-78.623
-78.632
-78.613
-78.566
-78.493
-78.395
-78.274
-78.131
-77.966
-77.781
-77.578
-77.357
-77.12
-76.865
-76.594
-76.304
-75.996
-75.67
-75.326
-74.963
-74.579
-74.172
-73.742
-73.286
-72.804
-72.291
-71.744
-71.159
-70.533
-69.865
-69.154
-68.402
-67.604
-66.753
-65.844
-64.873
-63.837
-62.732
-61.555
-60.301
-58.969
-57.562
-56.085
-54.547
-52.95
-51.293
-49.574
-47.788
-45.943
-44.06
-42.163
-40.283
-38.434
-36.609
-34.814
-33.065
-31.378
-29.79
-28.297
-26.829
-25.422
-24.2
-23.276
-22.804
-22.787
-23.005
-23.381
-24
-24.743
-25.384
-25.655
-25.114
-23.75
-22.091
-20.417
-18.801
-17.503
-16.774
-16.991
-18.824
-22.32
-26.827
-31.936
-37.385
-42.853
-48.192
-53.067
-56.845
-59.418
-61.195
-62.423
-63.292
-63.903
-64.136
-64.04
-63.858
-63.602
-63.114
-62.303
-61.104
-59.581
-57.921
-56.24
-54.607
-53.131
-51.948
-51.203
-51.028
-51.553
-52.939
-55.295
-58.628
-62.796
-67.432
-72.118
-76.484
-80.02
-82.098
-82.233
-80.176
-76.191
-71.105
-65.696
-60.675
-56.923
-55.271
-56.349
-59.404
-61.762
-60.583
-53.881
-42.502
-29.185
-13.093
11.008
52.247
119.846
214.747
328.504
448.154
561.15
660.486
746.189
817.769
870.432
897.838
891.764
849.665
777.404
682.42
573.88
458.107
337.09
214.258
93.255
-21.328
-123.513
-209.592
-277.781
-327.403
-359.674
-376.594
-380.027
-372.371
-356.289
-334.082
-307.918
-279.692
-250.473
-220.788
-191.3
-162.77
-135.772
-110.975
-88.945
-69.84
-53.937
-41.605
-32.796
-26.96
-23.413
-21.241
-19.45
-17.584
-15.356
-12.426
-8.737
-4.519
-0.115
3.883
6.765
8.301
8.543
7.543
5.519
2.722
-0.596
-3.96
-6.816
-8.866
-9.998
-10.197
-9.57
-8.168
-6.008
-3.204
0.096
3.76
7.666
11.759
16.03
20.428
24.87
29.25
33.441
37.374
41.026
44.38
47.433
50.186
52.644
54.85
56.861
58.732
60.507
62.221
63.896
65.57
67.29
69.106
71.08
73.251
75.646
78.29
81.202
84.395
87.88
91.652
95.696
100.004
104.566
109.375
114.422
119.695
125.174
130.839
136.667
142.636
148.719
154.891
161.122
167.384
173.647
179.881
186.059
192.148
198.118
203.934
209.565
214.975
220.133
225.008
229.568
233.782
237.624
241.068
244.089
246.667
248.781
250.416
251.557
252.193
252.315
251.916
250.994
249.55
247.585
245.106
242.12
238.639
234.676
230.248
225.374
220.074
214.37
208.289
201.857
195.102
188.052
180.74
173.196
165.451
157.539
149.493
141.345
133.128
124.875
116.617
108.384
100.207
92.115
84.133
76.289
68.607
61.108
53.814
46.743
39.913
33.339
27.033
21.008
15.27
9.829
4.688
-0.15
-4.682
-8.909
-12.834
-16.46
-19.792
-22.837
-25.603
-28.099
-30.334
-32.32
-34.069
-35.592
-36.904
-38.017
-38.945
-39.701
-40.3
-40.755
-41.079
-41.286
-41.387
-41.396
-41.323
-41.18
-40.977
-40.724
-40.428
-40.099
-39.743
-39.368
-38.979
-38.582
-38.181
-37.78
-37.384
-36.994
-36.614
-36.245
-35.888
-35.546
-35.218
-34.905
-34.608
-34.326
-34.059
-33.807
-33.57
-33.347
-33.139
-32.946
-32.766
-32.601
-32.451
-32.317
-32.198
-32.097
-32.015
-31.952
-31.912
-31.895
-31.903
-31.938
-32.002
-32.097
-32.224
-32.385
-32.581
-32.814
-33.085
-33.395
-33.746
-34.138
-34.572
-35.047
-35.565
-36.125
-36.727
-37.37
-38.052
-38.774
-39.533
-40.327
-41.155
-42.014
-42.901
-43.814
-44.749
-45.703
-46.673
-47.654
-48.642
-49.635
-50.628
-51.618
-52.601
-53.575
-54.536
-55.481
-56.408
-57.315
-58.199
-59.059
-59.893
-60.699
-61.476
-62.224
-62.942
-63.63
-64.288
-64.916
-65.514
-66.084
-66.626
-67.141
-67.631
-68.098
-68.544
-68.97
-69.379
-69.773
-70.155
-70.527
-70.891
-71.25
-71.605
-71.958
-72.31
-72.663
-73.017
-73.372
-73.73
-74.09
-74.451
-74.812
-75.172
-75.529
-75.88
-76.224
-76.559
-76.88
-77.187
-77.474
-77.74
-77.98
-78.192
-78.371
-78.513
-78.614
-78.671
-78.678
-78.632
-78.529
-78.365
-78.137
-77.842
-77.479
-77.044
-76.538
-75.958
-75.305
-74.58
-73.785
-72.922
-71.993
-71.006
-69.966
-68.883
-67.765
-66.622
-65.466
-64.307
-63.158
-62.031
-60.934
-59.88
-58.877
-57.937
-57.073
-56.297
-55.621
-55.059
-54.623
-54.323
-54.17
-54.173
-54.332
-54.649
-55.126
-55.767
-56.585
-57.588
-58.782
-60.17
-61.753
-63.522
-65.467
-67.564
-69.772
-72.05
-74.359
-76.661
-78.928
-81.133
-83.237
-85.201
-86.967
-88.489
-89.725
-90.638
-91.195
-91.393
-91.242
-90.795
-90.139
-89.349
-88.503
-87.693
-86.994
-86.498
-86.307
-86.505
-87.22
-88.639
-90.892
-94.013
-97.934
-102.421
-107.161
-111.801
-115.822
-118.587
-119.622
-118.779
-116.243
-112.522
-108.376
-104.746
-102.731
-103.526
-107.052
-111.605
-115.393
-117.152
-117.914
-119.883
-122.193
-119.343
-101.617
-60.163
8.344
100.118
206.11
318.055
428.727
531.406
619.138
683.072
717.235
721.477
700.787
663.032
614.437
555.815
484.527
398.165
295.578
182.396
68.778
-36.281
-123.699
-191.598
-244.864
-287.329
-323.898
-356.002
-380.241
-395.352
-400.672
-396.264
-384.607
-367.364
-345.369
-319.652
-290.742
-259.271
-226.588
-194.48
-164.642
-138.306
-116.144
-98.361
-84.977
-75.795
-70.119
-66.624
-63.827
-60.718
-56.818
-52.003
-46.304
-39.851
-32.988
-26.466
-21.198
-17.686
-16.012
-16.008
-17.384
-19.867
-23.176
-26.838
-30.234
-32.954
-34.801
-35.723
-35.802
-35.082
-33.561
-31.301
-28.426
-25.059
-21.324
-17.314
-13.06
-8.62
-4.083
0.445
4.822
8.955
12.804
16.346
19.578
22.498
25.102
27.413
29.486
31.374
33.129
34.797
36.407
38.001
39.633
41.36
43.248
45.346
47.681
50.278
53.153
56.321
59.79
63.561
67.616
71.944
76.534
81.377
86.464
91.78
97.304
103.012
108.879
114.881
120.991
127.182
133.423
139.685
145.937
152.149
158.291
164.332
170.238
175.974
181.507
186.801
191.825
196.546
200.931
204.951
208.579
211.79
214.561
216.872
218.704
220.043
220.875
221.191
220.984
220.248
218.984
217.192
214.878
212.05
208.716
204.892
200.592
195.835
190.642
185.037
179.045
172.693
166.01
159.027
151.775
144.288
136.599
128.743
120.753
112.665
104.513
96.33
88.151
80.007
71.929
63.948
56.091
48.387
40.859
33.532
26.427
19.564
12.961
6.632
0.592
-5.149
-10.582
-15.7
-20.5
-24.978
-29.135
-32.974
-36.497
-39.712
-42.625
-45.245
-47.583
-49.651
-51.462
-53.03
-54.369
-55.494
-56.422
-57.169
-57.751
-58.183
-58.483
-58.667
-58.749
-58.745
-58.67
-58.537
-58.36
-58.15
-57.919
-57.678
-57.434
-57.197
-56.973
-56.768
-56.586
-56.431
-56.304
-56.206
-56.137
-56.097
-56.083
-56.093
-56.122
-56.167
-56.223
-56.286
-56.349
-56.407
-56.455
-56.486
-56.496
-56.479
-56.43
-56.343
-56.214
-56.039
-55.815
-55.537
-55.204
-54.813
-54.362
-53.85
-53.279
-52.647
-51.956
-51.208
-50.406
-49.554
-48.655
-47.715
-46.739
-45.733
-44.703
-43.657
-42.602
-41.544
-40.492
-39.453
-38.434
-37.442
-36.486
-35.571
-34.704
-33.891
-33.138
-32.449
-31.83
-31.284
-30.814
-30.423
-30.114
-29.888
-29.746
-29.689
-29.716
-29.827
-30.02
-30.293
-30.642
-31.065
-31.556
-32.111
-32.724
-33.39
-34.1
-34.85
-35.63
-36.435
-37.255
-38.084
-38.913
-39.733
-40.538
-41.318
-42.066
-42.775
-43.436
-44.043
-44.591
-45.073
-45.483
-45.817
-46.07
-46.237
-46.314
-46.299
-46.188
-45.978
-45.668
-45.256
-44.743
-44.13
-43.417
-42.605
-41.699
-40.701
-39.615
-38.445
-37.198
-35.878
-34.492
-33.047
-31.551
-30.013
-28.443
-26.851
-25.249
-23.651
-22.067
-20.512
-18.997
-17.537
-16.142
-14.824
-13.592
-12.455
-11.422
-10.505
-9.713
-9.056
-8.541
-8.176
-7.966
-7.915
-8.028
-8.303
-8.734
-9.32
-10.056
-10.949
-12.007
-13.237
-14.635
-16.198
-17.916
-19.777
-21.765
-23.851
-25.992
-28.144
-30.267
-32.326
-34.299
-36.153
-37.846
-39.326
-40.53
-41.407
-41.93
-42.077
-41.83
-41.19
-40.171
-38.813
-37.208
-35.46
-33.666
-31.932
-30.354
-29.019
-28.066
-27.676
-27.977
-29.032
-30.78
-33
-35.459
-37.95
-40.157
-41.671
-42.172
-41.448
-39.623
-37.321
-35.179
-33.758
-33.682
-35.397
-39.082
-44.71
-51.537
-57.847
-61.731
-61.067
-53.566
-37.442
-11.155
26.578
75.922
135.784
204.345
278.701
355.217
430.314
499.974
559.944
606.472
636.479
647.757
639.31
612.027
567.4
506.498
432.033
345.6
249.027
148.833
50.089
-41.612
-120.058
-185.909
-240.047
-283.189
-317.825
-342.326
-355.122
-356.335
-345.898
-326.197
-299.851
-268.523
-234.567
-199.701
-165.599
-134.829
-108.11
-85.249
-67.45
-54.606
-47.668
-48.03
-51.944
-55.952
-56.47
-49.664
-38.359
-25.435
-13.215
-5.024
0.467
4.285
6.319
7.673
7.629
5.633
2.313
-2.14
-7.175
-11.996
-16.331
-19.99
-22.772
-24.698
-25.794
-26.04
-25.478
-24.17
-22.163
-19.551
-16.437
-12.902
-9.055
-4.995
-0.833
3.295
7.283
11.049
14.534
17.719
20.592
23.144
25.382
27.329
29.012
30.482
31.785
32.961
34.058
35.128
36.228
37.425
38.769
40.297
42.037
44.005
46.212
48.672
51.387
54.351
57.557
60.998
64.668
68.561
72.669
76.976
81.466
86.117
90.91
95.826
100.846
105.948
111.109
116.306
121.516
126.717
131.883
136.987
142
146.892
151.633
156.195
160.549
164.665
168.517
172.077
175.324
178.234
180.788
182.965
184.749
186.126
187.082
187.607
187.693
187.333
186.525
185.267
183.561
181.412
178.826
175.812
172.379
168.543
164.318
159.721
154.771
149.49
143.9
138.025
131.891
125.523
118.95
112.198
105.296
98.273
91.156
83.973
76.752
69.52
62.303
55.126
48.013
40.988
34.073
27.288
20.652
14.184
7.898
1.811
-4.067
-9.723
-15.149
-20.337
-25.28
-29.976
-34.421
-38.614
-42.556
-46.25
-49.699
-52.908
-55.882
-58.63
-61.159
-63.479
-65.598
-67.526
-69.275
-70.856
-72.278
-73.554
-74.694
-75.71
-76.613
-77.413
-78.121
-78.746
-79.297
-79.784
-80.213
-80.593
-80.929
-81.228
-81.494
-81.732
-81.944
-82.133
-82.302
-82.451
-82.581
-82.69
-82.779
-82.846
-82.888
-82.905
-82.892
-82.848
-82.769
-82.654
-82.498
-82.299
-82.054
-81.761
-81.418
-81.022
-80.573
-80.068
-79.508
-78.891
-78.218
-77.49
-76.708
-75.874
-74.991
-74.061
-73.089
-72.078
-71.032
-69.958
-68.86
-67.745
-66.619
-65.489
-64.361
-63.244
-62.144
-61.069
-60.026
-59.023
-58.066
-57.162
-56.318
-55.541
-54.835
-54.207
-53.661
-53.202
-52.834
-52.561
-52.384
-52.306
-52.328
-52.452
-52.677
-53.003
-53.428
-53.951
-54.568
-55.278
-56.077
-56.959
-57.92
-58.954
-60.055
-61.217
-62.432
-63.694
-64.994
-66.325
-67.678
-69.045
-70.418
-71.788
-73.148
-74.487
-75.799
-77.074
-78.304
-79.482
-80.598
-81.646
-82.619
-83.51
-84.313
-85.022
-85.631
-86.136
-86.531
-86.813
-86.978
-87.024
-86.948
-86.749
-86.425
-85.978
-85.407
-84.714
-83.902
-82.972
-81.928
-80.775
-79.517
-78.159
-76.708
-75.171
-73.556
-71.871
-70.126
-68.335
-66.508
-64.661
-62.805
-60.956
-59.127
-57.334
-55.59
-53.905
-52.293
-50.765
-49.333
-48.013
-46.816
-45.755
-44.84
-44.081
-43.487
-43.066
-42.823
-42.757
-42.867
-43.156
-43.629
-44.299
-45.178
-46.267
-47.568
-49.074
-50.776
-52.659
-54.698
-56.854
-59.084
-61.347
-63.605
-65.834
-68.004
-70.073
-71.993
-73.697
-75.13
-76.249
-77.026
-77.442
-77.495
-77.197
-76.592
-75.753
-74.767
-73.737
-72.756
-71.92
-71.335
-71.101
-71.357
-72.297
-74.04
-76.618
-79.936
-83.718
-87.663
-91.521
-94.928
-97.416
-98.668
-98.515
-97.181
-95.421
-93.947
-93.313
-94.045
-96.48
-100.694
-106.484
-112.827
-117.725
-119.071
-114.713
-102.598
-81.224
-49.262
-5.751
49.052
113.655
185.868
262.619
340.466
416.138
485.765
545.318
591.507
621.587
633.576
626.856
601.445
557.79
497.642
423.639
338.852
247.234
152.89
59.255
-30.257
-112.29
-184.216
-243.941
-290.15
-322.923
-343.052
-351.282
-348.679
-336.822
-317.66
-293.559
-266.761
-238.686
-210.373
-183.108
-158.387
-137.437
-120.763
-108.042
-98.579
-91.953
-87.816
-85.46
-83.622
-80.872
-76.359
-69.97
-62.026
-52.873
-42.799
-32.189
-21.777
-12.537
-5.077
0.436
4.12
6.254
7.07
6.719
5.451
3.658
1.618
-0.493
-2.558
-4.567
-6.486
-8.206
-9.63
-10.707
-11.395
-11.692
-11.624
-11.191
-10.402
-9.269
-7.794
-5.994
-3.894
-1.518
1.106
3.938
6.939
10.04
13.152
16.214
19.187
22.059
24.844
27.558
30.208
32.815
35.404
37.999
40.625
43.295
46.018
48.811
51.696
54.706
57.884
61.256
64.838
68.638
72.653
76.877
81.303
85.911
90.677
95.575
100.583
105.683
110.857
116.085
121.339
126.593
131.816
136.981
142.057
147.018
151.834
156.477
160.921
165.142
169.12
172.831
176.252
179.363
182.142
184.568
186.623
188.292
189.557
190.406
190.828
190.816
190.363
189.468
188.128
186.344
184.121
181.465
178.382
174.884
170.98
166.686
162.016
156.988
151.622
145.939
139.96
133.71
127.213
120.496
113.584
106.505
99.285
91.953
84.536
77.062
69.558
62.051
54.568
47.136
39.778
32.521
25.386
18.395
11.569
4.927
-1.513
-7.735
-13.724
-19.467
-24.952
-30.168
-35.107
-39.762
-44.128
-48.2
-51.978
-55.461
-58.65
-61.548
-64.159
-66.488
-68.543
-70.331
-71.861
-73.142
-74.185
-75.001
-75.602
-76.001
-76.212
-76.246
-76.117
-75.84
-75.427
-74.892
-74.248
-73.509
-72.686
-71.794
-70.844
-69.848
-68.818
-67.765
-66.699
-65.629
-64.565
-63.515
-62.485
-61.483
-60.514
-59.584
-58.695
-57.853
-57.061
-56.319
-55.631
-54.996
-54.417
-53.891
-53.42
-53.001
-52.634
-52.316
-52.045
-51.82
-51.638
-51.497
-51.394
-51.325
-51.289
-51.282
-51.302
-51.344
-51.406
-51.486
-51.579
-51.685
-51.8
-51.923
-52.051
-52.183
-52.318
-52.455
-52.592
-52.729
-52.864
-52.998
-53.13
-53.26
-53.388
-53.514
-53.638
-53.761
-53.883
-54.005
-54.127
-54.25
-54.374
-54.5
-54.629
-54.761
-54.898
-55.039
-55.186
-55.339
-55.498
-55.666
-55.841
-56.025
-56.217
-56.417
-56.626
-56.843
-57.068
-57.3
-57.54
-57.786
-58.039
-58.298
-58.562
-58.832
-59.107
-59.386
-59.67
-59.958
-60.249
-60.544
-60.841
-61.14
-61.441
-61.742
-62.044
-62.345
-62.644
-62.94
-63.232
-63.519
-63.799
-64.071
-64.333
-64.584
-64.822
-65.044
-65.25
-65.437
-65.603
-65.746
-65.864
-65.956
-66.019
-66.05
-66.047
-66.008
-65.929
-65.809
-65.643
-65.429
-65.164
-64.846
-64.474
-64.044
-63.555
-63.007
-62.399
-61.729
-60.999
-60.208
-59.356
-58.446
-57.48
-56.459
-55.39
-54.275
-53.123
-51.942
-50.739
-49.525
-48.308
-47.098
-45.905
-44.743
-43.622
-42.555
-41.552
-40.625
-39.789
-39.055
-38.437
-37.946
-37.588
-37.37
-37.296
-37.374
-37.611
-38.005
-38.554
-39.254
-40.102
-41.102
-42.254
-43.553
-44.99
-46.552
-48.227
-50.002
-51.864
-53.78
-55.722
-57.652
-59.528
-61.325
-63.019
-64.589
-66.019
-67.272
-68.309
-69.096
-69.601
-69.798
-69.676
-69.214
-68.38
-67.236
-65.901
-64.568
-63.514
-62.978
-63.116
-64.022
-65.805
-68.41
-71.558
-74.826
-77.48
-78.707
-77.954
-74.907
-69.349
-61.453
-51.837
-41.171
-30.711
-22.333
-17.462
-17.107
-22.184
-31.822
-44.553
-60.307
-77.305
-94.282
-110.285
-119.677
-117.928
-100.775
-63.518
-8.016
62.898
145.714
234.858
328.304
423.578
516.944
604.819
681.283
741.131
781.131
798.621
792.722
763.665
711.764
639.721
552.699
454.757
349.736
240.827
128.415
17.023
-84.963
-170.556
-232.12
-268.375
-285.93
-290.918
-289.699
-285.469
-276.465
-262.222
-243.148
-220.363
-196.358
-172.319
-148.846
-126.74
-106.369
-88.226
-72.583
-59.274
-48.394
-40.148
-34.261
-30.066
-26.634
-22.939
-18.557
-13.555
-7.931
-1.707
4.942
11.667
17.84
22.69
25.866
27.405
27.469
26.323
24.193
21.291
17.977
14.727
11.924
9.774
8.349
7.61
7.522
8.088
9.293
11.073
13.34
16.004
18.98
22.218
25.688
29.335
33.084
36.839
40.475
43.911
47.109
50.047
52.719
55.119
57.237
59.092
60.728
62.193
63.527
64.763
65.921
67.033
68.144
69.306
70.576
72
73.604
75.41
77.437
79.701
82.214
84.977
87.976
91.202
94.649
98.311
102.185
106.26
110.52
114.947
119.521
124.222
129.03
133.922
138.874
143.859
148.854
153.835
158.777
163.656
168.444
173.113
177.633
181.978
186.118
190.026
193.674
197.036
200.087
202.807
205.173
207.168
208.773
209.975
210.761
211.121
211.046
210.53
209.57
208.166
206.32
204.035
201.319
198.18
194.63
190.683
186.355
181.663
176.628
171.27
165.612
159.678
153.494
147.086
140.48
133.706
126.792
119.765
112.657
105.495
98.308
91.125
83.972
76.878
69.867
62.964
56.193
49.576
43.135
36.888
30.854
25.05
19.488
14.184
9.146
4.385
-0.093
-4.283
-8.18
-11.783
-15.092
-18.108
-20.834
-23.274
-25.435
-27.322
-28.944
-30.311
-31.432
-32.318
-32.983
-33.438
-33.696
-33.773
-33.681
-33.435
-33.051
-32.542
-31.922
-31.208
-30.412
-29.549
-28.631
-27.673
-26.685
-25.681
-24.67
-23.663
-22.669
-21.697
-20.754
-19.847
-18.981
-18.163
-17.396
-16.685
-16.032
-15.441
-14.913
-14.45
-14.052
-13.719
-13.451
-13.248
-13.106
-13.026
-13.003
-13.037
-13.123
-13.258
-13.44
-13.665
-13.928
-14.226
-14.556
-14.912
-15.291
-15.689
-16.103
-16.53
-16.965
-17.406
-17.85
-18.296
-18.74
-19.18
-19.616
-20.044
-20.464
-20.873
-21.272
-21.657
-22.029
-22.386
-22.727
-23.053
-23.361
-23.653
-23.928
-24.186
-24.427
-24.65
-24.858
-25.049
-25.226
-25.388
-25.537
-25.674
-25.8
-25.918
-26.027
-26.13
-26.229
-26.324
-26.417
-26.509
-26.601
-26.695
-26.792
-26.894
-27.001
-27.116
-27.24
-27.375
-27.523
-27.685
-27.863
-28.059
-28.275
-28.513
-28.775
-29.062
-29.377
-29.72
-30.095
-30.501
-30.941
-31.415
-31.925
-32.471
-33.053
-33.671
-34.326
-35.017
-35.743
-36.504
-37.299
-38.127
-38.987
-39.878
-40.798
-41.746
-42.719
-43.714
-44.729
-45.76
-46.805
-47.86
-48.92
-49.982
-51.04
-52.092
-53.131
-54.153
-55.153
-56.126
-57.065
-57.966
-58.823
-59.63
-60.382
-61.074
-61.7
-62.256
-62.737
-63.139
-63.459
-63.691
-63.832
-63.881
-63.832
-63.685
-63.436
-63.084
-62.628
-62.07
-61.408
-60.643
-59.779
-58.816
-57.758
-56.609
-55.374
-54.057
-52.665
-51.204
-49.681
-48.107
-46.489
-44.839
-43.17
-41.495
-39.828
-38.183
-36.577
-35.025
-33.541
-32.141
-30.839
-29.646
-28.575
-27.64
-26.853
-26.227
-25.777
-25.512
-25.445
-25.583
-25.934
-26.505
-27.295
-28.303
-29.525
-30.964
-32.627
-34.522
-36.651
-39.01
-41.593
-44.387
-47.373
-50.521
-53.787
-57.121
-60.475
-63.801
-67.066
-70.235
-73.267
-76.109
-78.695
-80.965
-82.87
-84.374
-85.453
-86.095
-86.309
-86.148
-85.704
-85.068
-84.339
-83.604
-82.941
-82.461
-82.286
-82.537
-83.364
-84.944
-87.395
-90.749
-94.914
-99.597
-104.402
-108.887
-112.486
-114.58
-114.718
-112.691
-108.697
-103.478
-97.982
-93.157
-90.001
-89.369
-91.68
-96.831
-103.816
-110.487
-114.114
-111.688
-100.105
-76.593
-38.91
14.346
83.197
165.973
259.55
359.607
461.01
558.28
645.65
717.541
769.178
797.013
798.998
775.414
727.794
657.601
568.373
462.903
344.56
221.562
100.535
-11.157
-105.652
-182.648
-242.526
-286.021
-316.588
-333.682
-336.743
-327.754
-308.638
-283.113
-254.978
-226.413
-198.913
-173.529
-151.474
-133.704
-120.264
-110.635
-103.97
-99.422
-96.552
-94.907
-93.444
-91.078
-87.283
-81.941
-75.364
-68.153
-60.571
-52.685
-45.147
-38.813
-34.075
-31.352
-29.901
-27.718
-24.915
-22.611
-22.885
-29.908
-42.845
-56.947
-67.516
-67.976
-58.243
-44.479
-31.456
-24.465
-24.221
-26.162
-27.599
-26.638
-22.904
-18.427
-14.134
-10.065
-6.334
-2.694
0.881
4.106
6.892
9.295
11.328
13
14.344
15.391
16.188
16.829
17.382
17.886
18.401
18.98
19.661
20.483
21.473
22.652
24.04
25.649
27.486
29.56
31.879
34.454
37.292
40.394
43.756
47.372
51.234
55.331
59.652
64.182
68.905
73.805
78.866
84.069
89.396
94.824
100.329
105.885
111.461
117.03
122.562
128.024
133.385
138.613
143.678
148.549
153.197
157.593
161.71
165.519
168.996
172.118
174.863
177.209
179.14
180.64
181.695
182.296
182.434
182.103
181.303
180.031
178.293
176.091
173.433
170.33
166.794
162.84
158.484
153.744
148.643
143.202
137.446
131.399
125.091
118.547
111.797
104.869
97.795
90.602
83.323
75.986
68.622
61.26
53.93
46.658
39.472
32.399
25.462
18.686
12.09
5.697
-0.477
-6.414
-12.099
-17.52
-22.666
-27.527
-32.096
-36.368
-40.338
-44.006
-47.371
-50.435
-53.202
-55.677
-57.866
-59.778
-61.42
-62.805
-63.942
-64.846
-65.529
-66.006
-66.292
-66.401
-66.35
-66.154
-65.829
-65.391
-64.856
-64.237
-63.551
-62.811
-62.031
-61.223
-60.4
-59.573
-58.752
-57.947
-57.166
-56.417
-55.706
-55.038
-54.418
-53.85
-53.335
-52.875
-52.472
-52.125
-51.832
-51.591
-51.401
-51.258
-51.157
-51.094
-51.061
-51.056
-51.073
-51.108
-51.154
-51.205
-51.252
-51.294
-51.328
-51.341
-51.321
-51.259
-51.142
-50.974
-50.766
-50.504
-50.174
-49.802
-49.41
-49.014
-48.641
-48.271
-47.859
-47.433
-47.039
-46.564
-45.875
-45.058
-44.108
-43.006
-42.05
-40.452
-37.441
-34.13
-30.86
-29.668
-32.991
-38.143
-43.336
-45.904
-42.183
-35.423
-28.381
-22.945
-22.236
-24.029
-26.068
-27.855
-28.015
-27.348
-26.883
-26.424
-26.102
-25.848
-25.453
-25.051
-24.749
-24.508
-24.318
-24.188
-24.111
-24.076
-24.074
-24.08
-24.068
-24.042
-24.006
-23.954
-23.88
-23.78
-23.649
-23.485
-23.288
-23.053
-22.776
-22.455
-22.089
-21.676
-21.217
-20.712
-20.161
-19.566
-18.929
-18.253
-17.54
-16.796
-16.025
-15.233
-14.425
-13.609
-12.791
-11.98
-11.182
-10.407
-9.662
-8.956
-8.297
-7.694
-7.155
-6.688
-6.301
-6.002
-5.799
-5.699
-5.707
-5.829
-6.071
-6.437
-6.928
-7.549
-8.302
-9.186
-10.203
-11.352
-12.632
-14.041
-15.576
-17.231
-19.002
-20.883
-22.865
-24.941
-27.1
-29.332
-31.63
-33.987
-36.396
-38.849
-41.329
-43.825
-46.331
-48.838
-51.324
-53.761
-56.116
-58.369
-60.535
-62.629
-64.642
-66.579
-68.476
-70.395
-72.416
-74.585
-76.839
-79.107
-81.406
-83.691
-85.758
-87.436
-88.668
-89.476
-90.214
-90.619
-89.2
-85.2
-79.574
-75.562
-79.118
-93.638
-115.558
-136.978
-147.35
-140.087
-120.526
-98.963
-86.024
-88.87
-102.863
-119.839
-133.787
-140.334
-142.004
-142.757
-143.963
-146.737
-150.182
-153.132
-155.783
-158.215
-160.505
-162.765
-164.842
-166.605
-168.061
-169.192
-169.977
-170.468
-170.759
-170.953
-171.157
-171.464
-171.948
-172.71
-173.873
-175.525
-177.771
-180.745
-184.537
-189.188
-194.599
-200.438
-206.28
-211.708
-216.223
-219.261
-220.363
-219.197
-215.825
-210.945
-205.343
-199.672
-194.724
-191.32
-190.072
-191.319
-193.784
-194.24
-189.674
-177.915
-159.492
-136.673
-109.547
-75.329
-25.846
47.657
148.487
274.192
411.036
540.843
649.658
726.591
771.55
791.248
789.396
770.01
733.017
674.623
595.573
498.663
388.574
272.842
157.623
47.568
-53.197
-141.706
-215.889
-274.348
-316.827
-344.39
-358.839
-362.079
-355.915
-342.248
-322.93
-299.765
-274.434
-247.902
-220.625
-193.392
-167.351
-143.537
-122.877
-105.724
-91.849
-81.258
-74.043
-69.726
-67.374
-65.8
-63.706
-60.483
-56.167
-50.771
-44.369
-37.248
-29.841
-22.867
-17.203
-13.257
-11.018
-10.359
-11.005
-12.709
-15.268
-18.323
-21.411
-24.193
-26.458
-28.083
-29.077
-29.447
-29.174
-28.29
-26.853
-24.93
-22.601
-19.937
-16.979
-13.764
-10.321
-6.683
-2.919
0.898
4.699
8.411
11.992
15.411
18.622
21.614
24.412
27.021
29.429
31.645
33.666
35.514
37.276
38.993
40.633
42.295
44.257
46.629
49.369
52.535
55.909
59.931
66.086
74.145
82.71
89.611
90.656
85.856
79.456
75.607
80.212
93.945
111.121
127.316
137.851
141.633
142.851
144.144
147.21
152.653
158.734
164.591
170.267
175.663
181.002
186.332
191.391
196.072
200.389
204.309
207.793
210.827
213.4
215.514
217.191
218.43
219.202
219.491
219.291
218.6
217.418
215.746
213.584
210.938
207.82
204.245
200.229
195.791
190.95
185.73
180.155
174.251
168.046
161.568
154.847
147.915
140.801
133.537
126.156
118.689
111.168
103.624
96.089
88.592
81.162
73.828
66.617
59.553
52.66
45.962
39.477
33.226
27.223
21.484
16.022
10.845
5.962
1.378
-2.904
-6.882
-10.557
-13.933
-17.013
-19.804
-22.313
-24.549
-26.522
-28.243
-29.724
-30.977
-32.017
-32.858
-33.513
-33.997
-34.326
-34.513
-34.575
-34.526
-34.38
-34.151
-33.854
-33.5
-33.104
-32.676
-32.228
-31.769
-31.309
-30.855
-30.414
-29.991
-29.592
-29.219
-28.875
-28.563
-28.282
-28.032
-27.814
-27.625
-27.465
-27.332
-27.222
-27.134
-27.065
-27.011
-26.972
-26.942
-26.92
-26.904
-26.889
-26.875
-26.857
-26.835
-26.807
-26.769
-26.722
-26.663
-26.592
-26.509
-26.413
-26.305
-26.187
-26.058
-25.922
-25.78
-25.635
-25.489
-25.345
-25.207
-25.077
-24.958
-24.854
-24.768
-24.702
-24.658
-24.639
-24.647
-24.682
-24.747
-24.841
-24.966
-25.121
-25.306
-25.52
-25.763
-26.035
-26.332
-26.655
-27.001
-27.367
-27.753
-28.155
-28.57
-28.996
-29.429
-29.865
-30.302
-30.737
-31.164
-31.581
-31.985
-32.371
-32.737
-33.079
-33.394
-33.681
-33.936
-34.159
-34.348
-34.502
-34.621
-34.705
-34.755
-34.771
-34.755
-34.709
-34.633
-34.532
-34.406
-34.259
-34.093
-33.912
-33.72
-33.519
-33.314
-33.108
-32.904
-32.708
-32.522
-32.349
-32.195
-32.063
-31.956
-31.879
-31.833
-31.823
-31.851
-31.92
-32.032
-32.189
-32.391
-32.64
-32.935
-33.276
-33.664
-34.095
-34.569
-35.084
-35.637
-36.225
-36.845
-37.492
-38.163
-38.853
-39.557
-40.27
-40.987
-41.704
-42.413
-43.11
-43.79
-44.445
-45.07
-45.659
-46.205
-46.702
-47.144
-47.525
-47.84
-48.081
-48.245
-48.327
-48.322
-48.226
-48.035
-47.747
-47.358
-46.867
-46.273
-45.576
-44.774
-43.871
-42.867
-41.766
-40.571
-39.286
-37.916
-36.464
-34.939
-33.347
-31.694
-29.99
-28.243
-26.464
-24.668
-22.868
-21.078
-19.312
-17.585
-15.914
-14.316
-12.808
-11.402
-10.112
-8.951
-7.934
-7.075
-6.39
-5.889
-5.58
-5.471
-5.569
-5.885
-6.422
-7.18
-8.154
-9.337
-10.727
-12.335
-14.166
-16.22
-18.493
-20.974
-23.651
-26.513
-29.536
-32.683
-35.908
-39.159
-42.385
-45.542
-48.593
-51.502
-54.229
-56.719
-58.905
-60.713
-62.086
-62.998
-63.441
-63.442
-63.018
-62.161
-60.98
-59.697
-58.538
-57.756
-57.465
-57.556
-58.095
-59.392
-61.508
-64.292
-67.409
-70.163
-72.266
-73.976
-75.176
-75.388
-74.418
-72.226
-69.368
-67.235
-66.456
-67.1
-69.751
-74.744
-82.27
-91.743
-100.407
-105.761
-106.728
-103.184
-96.617
-84.826
-61.636
-20.971
43.602
131.382
234.552
344.532
450.621
546.746
632.627
708.508
776.092
833.586
873.457
885.996
862.425
799.83
703.931
587.328
462.894
339.739
222.291
110.413
4.901
-90.935
-173.485
-239.19
-286.697
-317.461
-333.656
-337.421
-331.144
-317.279
-298.352
-276.896
-254.665
-232.384
-210.48
-189.552
-170.373
-153.578
-139.212
-126.79
-115.908
-106.525
-98.667
-92.081
-85.894
-79.012
-70.91
-61.621
-51.439
-40.643
-29.428
-18.059
-7.201
2.247
9.752
15.168
18.613
20.378
20.693
19.741
17.813
15.303
12.502
9.607
6.749
3.949
1.257
-1.235
-3.443
-5.28
-6.682
-7.624
-8.112
-8.159
-7.792
-7.038
-5.914
-4.449
-2.676
-0.634
1.634
4.1
6.729
9.476
12.273
15.033
17.696
20.24
22.665
24.99
27.231
29.404
31.533
33.654
35.803
38.009
40.295
42.676
45.172
47.814
50.64
53.693
57.004
60.587
64.449
68.589
73.003
77.681
82.605
87.746
93.079
98.58
104.226
109.997
115.868
121.808
127.785
133.766
139.716
145.602
151.392
157.051
162.545
167.844
172.918
177.738
182.279
186.51
190.405
193.936
197.079
199.812
202.111
203.958
205.336
206.231
206.631
206.53
205.922
204.806
203.18
201.05
198.422
195.305
191.709
187.649
183.141
178.204
172.859
167.129
161.038
154.614
147.885
140.881
133.632
126.171
118.53
110.741
102.839
94.856
86.825
78.78
70.753
62.774
54.876
47.087
39.436
31.948
24.65
17.563
10.708
4.106
-2.229
-8.28
-14.036
-19.485
-24.621
-29.435
-33.925
-38.089
-41.925
-45.438
-48.63
-51.507
-54.078
-56.35
-58.335
-60.045
-61.493
-62.693
-63.66
-64.411
-64.962
-65.329
-65.531
-65.584
-65.506
-65.315
-65.025
-64.655
-64.22
-63.735
-63.214
-62.672
-62.119
-61.569
-61.032
-60.518
-60.034
-59.588
-59.187
-58.837
-58.54
-58.3
-58.121
-58.002
-57.944
-57.946
-58.008
-58.127
-58.299
-58.522
-58.792
-59.103
-59.451
-59.832
-60.239
-60.667
-61.112
-61.567
-62.028
-62.489
-62.946
-63.394
-63.829
-64.246
-64.643
-65.015
-65.361
-65.676
-65.96
-66.211
-66.427
-66.607
-66.752
-66.86
-66.933
-66.971
-66.974
-66.943
-66.881
-66.788
-66.667
-66.52
-66.347
-66.153
-65.938
-65.705
-65.457
-65.194
-64.919
-64.634
-64.34
-64.039
-63.733
-63.422
-63.108
-62.792
-62.476
-62.16
-61.846
-61.534
-61.225
-60.921
-60.622
-60.329
-60.042
-59.761
-59.488
-59.223
-58.966
-58.718
-58.478
-58.249
-58.029
-57.82
-57.621
-57.434
-57.26
-57.098
-56.95
-56.816
-56.699
-56.599
-56.518
-56.457
-56.417
-56.4
-56.407
-56.44
-56.498
-56.582
-56.693
-56.831
-56.996
-57.187
-57.405
-57.648
-57.916
-58.208
-58.523
-58.86
-59.216
-59.59
-59.982
-60.387
-60.805
-61.233
-61.668
-62.109
-62.553
-62.997
-63.436
-63.869
-64.29
-64.696
-65.082
-65.444
-65.778
-66.078
-66.341
-66.562
-66.738
-66.865
-66.939
-66.957
-66.916
-66.812
-66.644
-66.408
-66.102
-65.723
-65.271
-64.744
-64.142
-63.462
-62.705
-61.871
-60.958
-59.967
-58.898
-57.752
-56.528
-55.228
-53.854
-52.41
-50.897
-49.321
-47.685
-45.995
-44.257
-42.474
-40.654
-38.803
-36.927
-35.035
-33.133
-31.229
-29.334
-27.458
-25.615
-23.815
-22.071
-20.394
-18.796
-17.291
-15.893
-14.616
-13.47
-12.466
-11.615
-10.929
-10.421
-10.103
-9.982
-10.063
-10.35
-10.848
-11.564
-12.501
-13.655
-15.017
-16.577
-18.331
-20.28
-22.43
-24.773
-27.298
-29.992
-32.839
-35.823
-38.925
-42.102
-45.312
-48.502
-51.617
-54.626
-57.502
-60.223
-62.772
-65.1
-67.142
-68.845
-70.152
-71.032
-71.507
-71.574
-71.213
-70.509
-69.584
-68.682
-68.18
-68.29
-69.038
-70.403
-72.361
-74.908
-78.024
-81.356
-84.1
-85.608
-85.619
-84.18
-81.51
-77.628
-72.463
-66.377
-60.56
-56.477
-55.072
-56.614
-61.053
-68.45
-78.778
-91.706
-104.967
-114.338
-117.254
-112.227
-99.045
-79.776
-52.005
-10.118
49.862
131.986
233.675
345.388
458.382
563.437
654.139
728.775
785.104
821.039
834.632
823.551
787.194
726.66
644.937
546.507
436.095
318.983
200.385
84.819
-23.006
-118.823
-199.81
-264.113
-310.888
-340.858
-355.27
-355.431
-343.711
-322.923
-295.717
-264.877
-232.774
-200.788
-170.256
-142.755
-119.207
-100.131
-85.603
-74.929
-67.405
-62.739
-60.307
-59.072
-58.024
-56.08
-52.698
-48.104
-42.589
-36.334
-29.674
-23.031
-17.001
-12.411
-9.652
-8.631
-9.133
-10.812
-13.355
-16.55
-20.036
-23.304
-26.017
-27.971
-29.086
-29.443
-29.081
-27.998
-26.239
-23.873
-20.988
-17.703
-14.108
-10.261
-6.227
-2.062
2.154
6.304
10.304
14.091
17.625
20.907
23.931
26.687
29.186
31.452
33.522
35.447
37.271
39.024
40.743
42.465
44.239
46.126
48.171
50.407
52.859
55.543
58.475
61.669
65.132
68.855
72.835
77.06
81.526
86.228
91.157
96.296
101.629
107.132
112.784
118.565
124.451
130.416
136.434
142.477
148.518
154.532
160.49
166.36
172.113
177.714
183.132
188.335
193.292
197.969
202.338
206.37
210.037
213.317
216.185
218.62
220.605
222.122
223.159
223.705
223.751
223.29
222.322
220.844
218.862
216.381
213.41
209.96
206.044
201.681
196.888
191.686
186.099
180.151
173.868
167.279
160.412
153.299
145.97
138.457
130.793
123.01
115.142
107.221
99.278
91.344
83.451
75.626
67.898
60.294
52.837
45.553
38.463
31.586
24.941
18.544
12.408
6.546
0.967
-4.321
-9.314
-14.007
-18.399
-22.49
-26.283
-29.781
-32.988
-35.913
-38.562
-40.946
-43.074
-44.959
-46.612
-48.047
-49.277
-50.317
-51.18
-51.881
-52.434
-52.854
-53.154
-53.349
-53.451
-53.474
-53.43
-53.329
-53.184
-53.004
-52.797
-52.573
-52.337
-52.097
-51.857
-51.623
-51.397
-51.183
-50.983
-50.799
-50.632
-50.483
-50.35
-50.235
-50.136
-50.051
-49.981
-49.923
-49.875
-49.837
-49.807
-49.783
-49.765
-49.75
-49.74
-49.731
-49.725
-49.72
-49.718
-49.717
-49.72
-49.727
-49.739
-49.759
-49.789
-49.83
-49.886
-49.958
-50.05
-50.164
-50.303
-50.47
-50.668
-50.898
-51.164
-51.467
-51.81
-52.193
-52.619
-53.086
-53.597
-54.149
-54.743
-55.377
-56.05
-56.759
-57.502
-58.277
-59.08
-59.908
-60.756
-61.621
-62.497
-63.381
-64.267
-65.15
-66.025
-66.887
-67.732
-68.553
-69.347
-70.108
-70.832
-71.516
-72.155
-72.745
-73.285
-73.77
-74.2
-74.572
-74.887
-75.145
-75.345
-75.489
-75.579
-75.617
-75.606
-75.55
-75.451
-75.315
-75.147
-74.95
-74.731
-74.495
-74.248
-73.996
-73.745
-73.502
-73.272
-73.061
-72.876
-72.721
-72.602
-72.523
-72.49
-72.506
-72.576
-72.703
-72.89
-73.138
-73.45
-73.825
-74.264
-74.765
-75.327
-75.947
-76.622
-77.348
-78.12
-78.934
-79.784
-80.663
-81.566
-82.484
-83.412
-84.34
-85.26
-86.164
-87.044
-87.888
-88.69
-89.439
-90.128
-90.748
-91.291
-91.748
-92.111
-92.374
-92.53
-92.571
-92.492
-92.288
-91.954
-91.487
-90.885
-90.147
-89.272
-88.262
-87.119
-85.846
-84.446
-82.925
-81.289
-79.543
-77.695
-75.754
-73.73
-71.633
-69.475
-67.27
-65.033
-62.783
-60.535
-58.308
-56.12
-53.99
-51.937
-49.977
-48.125
-46.396
-44.806
-43.37
-42.105
-41.025
-40.143
-39.47
-39.018
-38.794
-38.805
-39.055
-39.539
-40.254
-41.197
-42.375
-43.799
-45.477
-47.408
-49.588
-52.012
-54.666
-57.535
-60.585
-63.767
-67.024
-70.304
-73.559
-76.751
-79.835
-82.754
-85.436
-87.803
-89.784
-91.328
-92.4
-92.964
-93.009
-92.545
-91.613
-90.313
-88.766
-87.098
-85.444
-83.932
-82.681
-81.841
-81.623
-82.206
-83.718
-86.152
-89.299
-92.929
-96.848
-100.77
-104.253
-106.823
-108.081
-107.989
-107.096
-106.024
-105.186
-105.108
-106.448
-109.835
-115.735
-123.052
-128.881
-130.499
-126.073
-116.12
-102.541
-84.693
-58.956
-18.458
44.052
131.293
241.416
367.043
497.003
619.531
722.063
795.444
835.866
844.382
827.508
791.603
739.801
672.76
589.161
489.613
378.253
261.149
144.762
34.358
-66.287
-154.397
-228.101
-286.283
-328.831
-356.663
-370.931
-373.016
-364.733
-348.253
-325.921
-299.878
-271.855
-243.11
-214.872
-188.628
-165.605
-146.23
-130.368
-117.609
-107.402
-99.357
-92.962
-87.089
-80.521
-72.677
-63.49
-53.267
-42.543
-31.699
-21.099
-11.47
-3.651
1.882
4.994
5.852
4.835
2.277
-1.522
-6.144
-11.112
-16.032
-20.606
-24.632
-27.998
-30.62
-32.44
-33.442
-33.656
-33.12
-31.88
-29.999
-27.543
-24.589
-21.223
-17.515
-13.525
-9.339
-5.05
-0.762
3.414
7.406
11.18
14.707
17.978
20.999
23.785
26.374
28.821
31.171
33.465
35.739
38.02
40.349
42.772
45.336
48.095
51.087
54.337
57.866
61.688
65.811
70.234
74.948
79.933
85.173
90.654
96.36
102.279
108.391
114.673
121.1
127.644
134.276
140.967
147.687
154.403
161.084
167.696
174.209
180.593
186.815
192.843
198.643
204.18
209.422
214.337
218.892
223.058
226.806
230.11
232.946
235.294
237.135
238.454
239.235
239.471
239.152
238.274
236.835
234.838
232.285
229.185
225.547
221.384
216.713
211.553
205.924
199.85
193.356
186.472
179.226
171.649
163.775
155.636
147.269
138.708
129.989
121.15
112.227
103.257
94.275
85.318
76.42
67.614
58.931
50.404
42.06
33.928
26.032
18.396
11.042
3.988
-2.747
-9.149
-15.207
-20.91
-26.251
-31.226
-35.83
-40.064
-43.93
-47.431
-50.573
-53.363
-55.811
-57.926
-59.723
-61.214
-62.414
-63.339
-64.007
-64.434
-64.638
-64.639
-64.454
-64.103
-63.605
-62.978
-62.24
-61.411
-60.507
-59.545
-58.542
-57.513
-56.472
-55.432
-54.405
-53.402
-52.433
-51.505
-50.627
-49.804
-49.042
-48.344
-47.712
-47.15
-46.657
-46.234
-45.879
-45.592
-45.369
-45.209
-45.108
-45.063
-45.069
-45.122
-45.218
-45.351
-45.518
-45.712
-45.928
-46.162
-46.408
-46.662
-46.918
-47.173
-47.423
-47.663
-47.891
-48.104
-48.3
-48.477
-48.634
-48.769
-48.883
-48.976
-49.047
-49.098
-49.128
-49.14
-49.134
-49.113
-49.076
-49.026
-48.964
-48.892
-48.81
-48.719
-48.622
-48.518
-48.41
-48.297
-48.182
-48.064
-47.944
-47.823
-47.701
-47.579
-47.456
-47.333
-47.21
-47.085
-46.959
-46.831
-46.699
-46.564
-46.424
-46.278
-46.125
-45.963
-45.792
-45.609
-45.415
-45.208
-44.987
-44.752
-44.502
-44.238
-43.958
-43.665
-43.358
-43.037
-42.705
-42.361
-42.007
-41.645
-41.277
-40.903
-40.525
-40.146
-39.767
-39.39
-39.017
-38.649
-38.288
-37.934
-37.591
-37.257
-36.935
-36.624
-36.325
-36.039
-35.766
-35.505
-35.255
-35.017
-34.79
-34.57
-34.358
-34.15
-33.944
-33.737
-33.526
-33.308
-33.078
-32.834
-32.57
-32.283
-31.968
-31.62
-31.235
-30.807
-30.332
-29.805
-29.221
-28.578
-27.87
-27.097
-26.254
-25.342
-24.359
-23.305
-22.18
-20.985
-19.721
-18.39
-16.995
-15.54
-14.029
-12.469
-10.869
-9.237
-7.586
-5.926
-4.271
-2.631
-1.02
0.547
2.056
3.493
4.843
6.091
7.224
8.221
9.069
9.752
10.259
10.581
10.714
10.648
10.38
9.908
9.232
8.354
7.276
5.993
4.505
2.816
0.929
-1.144
-3.387
-5.785
-8.313
-10.94
-13.634
-16.357
-19.068
-21.729
-24.298
-26.739
-29.02
-31.11
-32.976
-34.576
-35.863
-36.79
-37.33
-37.505
-37.339
-36.829
-36.05
-35.155
-34.36
-34.037
-34.518
-35.865
-38.148
-41.489
-45.711
-50.566
-55.588
-59.707
-61.989
-62.089
-59.694
-54.673
-47.501
-38.628
-28.942
-20.425
-14.898
-13.577
-17.53
-27.262
-41.592
-58.389
-75.31
-88.659
-97.526
-104.135
-107.533
-105.122
-89.489
-47.654
26.277
130.663
256.925
388.607
513.672
626.004
722.199
802.693
865.888
907.71
924.532
913.394
873.603
807.42
719.546
615.335
499.691
375.676
244.97
111.377
-17.679
-130.88
-217.307
-272.033
-297.606
-303.432
-299.437
-291.325
-280.879
-266.493
-247.248
-224.492
-200.179
-176.507
-154.619
-134.576
-116.1
-98.644
-81.879
-65.798
-50.608
-36.711
-24.452
-13.91
-5.091
1.967
7.381
11.415
14.317
16.337
17.683
18.398
18.439
17.76
16.19
13.442
9.449
4.315
-1.83
-8.746
-16.164
-23.815
-31.315
-38.2
-44.19
-49.162
-53.064
-55.949
-57.855
-58.804
-58.895
-58.27
-57.061
-55.39
-53.339
-50.95
-48.302
-45.506
-42.681
-39.955
-37.409
-35.072
-32.973
-31.123
-29.522
-28.161
-27.004
-25.997
-25.093
-24.252
-23.441
-22.636
-21.798
-20.88
-19.834
-18.604
-17.152
-15.454
-13.487
-11.237
-8.693
-5.849
-2.712
0.705
4.392
8.344
12.551
17.009
21.706
26.627
31.754
37.068
42.549
48.176
53.926
59.776
65.701
71.676
77.676
83.678
89.654
95.575
101.413
107.137
112.717
118.121
123.322
128.287
132.988
137.398
141.489
145.238
148.621
151.615
154.201
156.36
158.078
159.339
160.133
160.451
160.286
159.635
158.496
156.872
154.767
152.187
149.144
145.65
141.721
137.373
132.629
127.509
122.038
116.242
110.15
103.789
97.192
90.388
83.412
76.297
69.075
61.783
54.453
47.119
39.815
32.574
25.428
18.407
11.542
4.861
-1.609
-7.843
-13.816
-19.508
-24.898
-29.97
-34.708
-39.1
-43.137
-46.812
-50.119
-53.058
-55.63
-57.836
-59.683
-61.179
-62.334
-63.159
-63.669
-63.88
-63.81
-63.477
-62.903
-62.11
-61.119
-59.955
-58.641
-57.202
-55.662
-54.044
-52.375
-50.676
-48.973
-47.288
-45.642
-44.058
-42.555
-41.151
-39.865
-38.711
-37.704
-36.856
-36.177
-35.677
-35.362
-35.238
-35.307
-35.571
-36.031
-36.684
-37.528
-38.557
-39.766
-41.146
-42.688
-44.384
-46.223
-48.193
-50.282
-52.48
-54.773
-57.149
-59.595
-62.1
-64.65
-67.233
-69.838
-72.454
-75.069
-77.674
-80.26
-82.817
-85.338
-87.816
-90.246
-92.623
-94.941
-97.199
-99.394
-101.523
-103.587
-105.586
-107.521
-109.392
-111.204
-112.957
-114.656
-116.305
-117.905
-119.462
-120.979
-122.46
-123.907
-125.323
-126.712
-128.076
-129.416
-130.734
-132.031
-133.307
-134.562
-135.795
-137.005
-138.19
-139.347
-140.473
-141.566
-142.621
-143.635
-144.603
-145.521
-146.384
-147.187
-147.924
-148.59
-149.18
-149.688
-150.109
-150.438
-150.671
-150.802
-150.829
-150.747
-150.554
-150.247
-149.825
-149.286
-148.631
-147.86
-146.974
-145.975
-144.865
-143.649
-142.33
-140.913
-139.402
-137.804
-136.123
-134.365
-132.538
-130.646
-128.695
-126.693
-124.644
-122.557
-120.435
-118.286
-116.115
-113.927
-111.728
-109.521
-107.312
-105.102
-102.896
-100.696
-98.504
-96.321
-94.15
-91.991
-89.844
-87.709
-85.584
-83.469
-81.361
-79.257
-77.156
-75.055
-72.95
-70.839
-68.721
-66.594
-64.455
-62.304
-60.14
-57.964
-55.776
-53.577
-51.368
-49.152
-46.934
-44.715
-42.503
-40.302
-38.121
-35.969
-33.857
-31.796
-29.799
-27.878
-26.046
-24.317
-22.704
-21.217
-19.866
-18.664
-17.62
-16.749
-16.062
-15.57
-15.281
-15.204
-15.345
-15.71
-16.301
-17.11
-18.132
-19.362
-20.797
-22.445
-24.311
-26.395
-28.691
-31.193
-33.885
-36.751
-39.762
-42.87
-46.028
-49.185
-52.295
-55.326
-58.238
-60.985
-63.509
-65.738
-67.602
-69.045
-70.022
-70.498
-70.461
-69.921
-68.916
-67.517
-65.811
-63.904
-61.905
-59.923
-58.076
-56.46
-55.225
-54.609
-54.799
-55.888
-57.845
-60.43
-63.341
-66.32
-68.928
-70.538
-70.657
-68.996
-65.642
-61.258
-56.724
-52.923
-50.942
-52.086
-56.452
-62.69
-69.179
-73.271
-74.846
-77.045
-79.783
-80.349
-70.225
-34.682
34.196
136.397
263.174
396.412
522.442
633.543
725.571
799.522
853.924
884.532
888.932
865.923
815.259
738.608
638.134
515.115
376.274
232.682
94.542
-26.612
-125.564
-204.784
-266.615
-315.032
-351.925
-375.045
-383.826
-378.898
-362.508
-339.103
-312.102
-283.688
-255.117
-226.577
-198.581
-172.088
-147.581
-125.321
-105.427
-87.636
-71.946
-58.669
-47.762
-38.703
-30.99
-24.033
-17.223
-10.506
-3.893
2.779
9.448
15.862
21.741
26.598
29.881
31.483
31.517
30.137
27.628
24.247
20.253
16.073
12.208
9.002
6.633
5.152
4.51
4.679
5.649
7.359
9.702
12.561
15.826
19.414
23.28
27.386
31.651
35.977
40.251
44.357
48.229
51.844
55.182
58.239
61.024
63.553
65.87
68.033
70.096
72.099
74.081
76.07
78.105
80.24
82.527
85.024
87.771
90.795
94.116
97.751
101.708
105.988
110.583
115.471
120.638
126.07
131.751
137.668
143.799
150.119
156.601
163.215
169.929
176.711
183.527
190.341
197.119
203.824
210.421
216.876
223.154
229.218
235.031
240.555
245.754
250.593
255.039
259.058
262.621
265.698
268.266
270.302
271.787
272.703
273.039
272.782
271.927
270.47
268.41
265.75
262.497
258.66
254.253
249.29
243.792
237.781
231.28
224.319
216.925
209.132
200.972
192.481
183.695
174.652
165.39
155.947
146.363
136.678
126.929
117.157
107.398
97.69
88.069
78.568
69.221
60.058
51.109
42.4
33.956
25.8
17.952
10.43
3.249
-3.578
-10.041
-16.131
-21.844
-27.176
-32.128
-36.701
-40.899
-44.727
-48.194
-51.309
-54.082
-56.527
-58.655
-60.482
-62.024
-63.296
-64.316
-65.1
-65.665
-66.031
-66.214
-66.232
-66.102
-65.841
-65.465
-64.99
-64.432
-63.803
-63.119
-62.39
-61.628
-60.844
-60.046
-59.243
-58.441
-57.647
-56.864
-56.097
-55.349
-54.622
-53.916
-53.233
-52.573
-51.934
-51.316
-50.718
-50.138
-49.573
-49.022
-48.482
-47.951
-47.426
-46.905
-46.384
-45.862
-45.337
-44.805
-44.266
-43.716
-43.156
-42.582
-41.995
-41.394
-40.778
-40.149
-39.507
-38.852
-38.186
-37.511
-36.83
-36.143
-35.454
-34.764
-34.077
-33.396
-32.722
-32.058
-31.407
-30.771
-30.153
-29.555
-28.978
-28.425
-27.897
-27.397
-26.925
-26.484
-26.075
-25.699
-25.357
-25.051
-24.782
-24.55
-24.357
-24.202
-24.086
-24.01
-23.974
-23.977
-24.018
-24.098
-24.215
-24.37
-24.56
-24.785
-25.043
-25.334
-25.655
-26.008
-26.39
-26.801
-27.239
-27.701
-28.188
-28.698
-29.23
-29.781
-30.349
-30.933
-31.531
-32.145
-32.773
-33.413
-34.063
-34.719
-35.378
-36.042
-36.708
-37.374
-38.039
-38.7
-39.354
-40
-40.641
-41.277
-41.904
-42.515
-43.106
-43.673
-44.213
-44.738
-45.248
-45.713
-46.118
-46.442
-46.672
-46.847
-46.98
-47.04
-47.045
-47.04
-47.056
-47.186
-47.492
-47.855
-48.205
-48.553
-48.751
-48.643
-48.313
-47.826
-47.091
-46.503
-45.716
-43.355
-40.053
-37.166
-36.75
-43.288
-56.565
-71.792
-84.16
-86.753
-78.497
-65.661
-53.611
-47.841
-49.508
-54.144
-59.044
-62.616
-64.833
-67.707
-71.599
-76.044
-80.879
-85.65
-90.218
-94.674
-98.666
-101.913
-104.681
-107.199
-109.574
-111.88
-114.007
-115.857
-117.537
-119.153
-120.584
-121.697
-122.388
-122.545
-122.184
-121.366
-120.127
-118.492
-116.509
-114.287
-111.984
-109.886
-108.354
-107.593
-107.629
-108.481
-110.223
-112.84
-116.21
-119.782
-122.525
-123.719
-123.112
-120.586
-116.121
-109.75
-101.627
-92.763
-85.075
-80.024
-78.507
-81.096
-87.829
-98.676
-112.459
-125.809
-134.854
-136.79
-131.556
-121.201
-105.489
-79.823
-36.203
32.864
129.468
247.001
373.632
497.68
607.588
697.06
763.077
801.624
813.137
798.762
759.429
697.691
614.597
510.975
389.738
258.373
125.394
-0.378
-110.974
-205.379
-283.461
-345.473
-393.481
-426.101
-443.045
-445.624
-434.674
-413.455
-385.28
-352.481
-317.715
-282.454
-247.542
-214.514
-184.522
-158.223
-136.276
-118.537
-104.289
-93.265
-85.096
-78.862
-73.759
-68.914
-63.333
-56.815
-49.646
-41.934
-33.962
-26.2
-19.013
-13.011
-8.881
-6.783
-6.575
-8.035
-10.792
-14.52
-18.948
-23.623
-28.045
-31.884
-34.913
-37.051
-38.328
-38.745
-38.312
-37.085
-35.15
-32.613
-29.578
-26.128
-22.319
-18.207
-13.849
-9.337
-4.766
-0.231
4.17
8.383
12.376
16.123
19.622
22.889
25.944
28.83
31.6
34.297
36.96
39.625
42.316
45.074
47.941
50.962
54.183
57.64
61.354
65.344
69.622
74.189
79.045
84.179
89.569
95.2
101.054
107.113
113.363
119.784
126.353
133.046
139.837
146.699
153.604
160.527
167.435
174.298
181.082
187.752
194.276
200.62
206.75
212.63
218.228
223.511
228.448
233.013
237.176
240.908
244.18
246.955
249.205
250.914
252.07
252.669
252.721
252.231
251.208
249.674
247.642
245.117
242.1
238.573
234.518
229.935
224.835
219.246
213.199
206.705
199.774
192.413
184.614
176.376
167.691
158.529
148.881
138.776
128.263
117.438
106.415
95.277
84.094
72.923
61.807
50.814
40.013
29.459
19.229
9.397
0.05
-8.689
-16.727
-24.022
-30.569
-36.413
-41.638
-46.293
-50.419
-54.057
-57.228
-59.971
-62.323
-64.301
-65.935
-67.27
-68.363
-69.308
-70.188
-71.038
-71.873
-72.672
-73.383
-73.983
-74.456
-74.777
-74.943
-74.952
-74.805
-74.525
-74.139
-73.655
-73.075
-72.383
-71.561
-70.616
-69.562
-68.427
-67.252
-66.066
-64.896
-63.772
-62.717
-61.745
-60.866
-60.076
-59.366
-58.735
-58.181
-57.709
-57.323
-57.024
-56.807
-56.668
-56.601
-56.597
-56.65
-56.749
-56.884
-57.05
-57.239
-57.45
-57.682
-57.933
-58.199
-58.477
-58.766
-59.06
-59.356
-59.65
-59.937
-60.215
-60.479
-60.73
-60.965
-61.184
-61.387
-61.574
-61.746
-61.903
-62.047
-62.178
-62.298
-62.408
-62.511
-62.606
-62.697
-62.785
-62.872
-62.958
-63.046
-63.136
-63.229
-63.327
-63.43
-63.537
-63.65
-63.77
-63.895
-64.028
-64.168
-64.316
-64.472
-64.639
-64.814
-65
-65.196
-65.402
-65.619
-65.846
-66.084
-66.332
-66.591
-66.86
-67.141
-67.433
-67.735
-68.049
-68.375
-68.712
-69.062
-69.424
-69.799
-70.189
-70.593
-71.012
-71.446
-71.895
-72.36
-72.839
-73.332
-73.837
-74.355
-74.882
-75.418
-75.961
-76.508
-77.058
-77.605
-78.149
-78.684
-79.207
-79.713
-80.198
-80.656
-81.083
-81.473
-81.821
-82.122
-82.371
-82.562
-82.689
-82.747
-82.729
-82.63
-82.444
-82.166
-81.792
-81.317
-80.739
-80.055
-79.262
-78.361
-77.349
-76.227
-74.995
-73.655
-72.208
-70.659
-69.012
-67.273
-65.449
-63.549
-61.584
-59.567
-57.511
-55.428
-53.334
-51.245
-49.177
-47.151
-45.183
-43.29
-41.488
-39.795
-38.228
-36.805
-35.543
-34.453
-33.548
-32.838
-32.334
-32.052
-31.999
-32.173
-32.571
-33.19
-34.027
-35.093
-36.395
-37.928
-39.689
-41.668
-43.852
-46.234
-48.793
-51.485
-54.262
-57.063
-59.84
-62.567
-65.221
-67.791
-70.246
-72.515
-74.532
-76.238
-77.574
-78.533
-79.095
-79.209
-78.925
-78.373
-77.738
-77.36
-77.526
-78.311
-79.794
-81.999
-84.769
-88.045
-91.622
-94.883
-97.259
-98.387
-97.971
-96.076
-93.053
-88.932
-83.942
-78.833
-74.465
-71.921
-72.166
-75.506
-81.771
-90.876
-102.451
-115.599
-128.838
-139.616
-145.056
-142.588
-130.028
-105.331
-66.463
-12.021
58.445
142.926
237.176
337.662
441.085
544.819
647.455
742.58
820.325
871.828
887.676
866.186
813.615
736.111
642.069
537.174
422.568
301.841
179.422
60.3
-49.022
-143.95
-222.118
-282.355
-325.044
-351.734
-364.544
-365.857
-358
-343.276
-323.767
-301.305
-277.441
-252.971
-228.147
-203.486
-179.827
-157.915
-138.468
-121.766
-107.638
-96.181
-87.573
-81.454
-77.041
-73.338
-69.236
-64.244
-58.429
-51.804
-44.47
-36.711
-28.939
-21.824
-16.131
-12.192
-9.959
-9.276
-9.869
-11.498
-13.953
-16.884
-19.871
-22.598
-24.883
-26.634
-27.82
-28.417
-28.389
-27.746
-26.55
-24.878
-22.801
-20.383
-17.672
-14.701
-11.51
-8.142
-4.634
-1.047
2.563
6.137
9.602
12.906
16.02
18.923
21.623
24.144
26.512
28.764
30.946
33.09
35.228
37.391
39.597
41.875
44.258
46.782
49.489
52.414
55.581
59.007
62.703
66.67
70.906
75.401
80.137
85.096
90.262
95.618
101.15
106.838
112.659
118.588
124.595
130.651
136.727
142.79
148.809
154.751
160.585
166.28
171.807
177.138
182.242
187.088
191.646
195.887
199.784
203.31
206.439
209.149
211.417
213.226
214.56
215.405
215.75
215.588
214.912
213.721
212.015
209.796
207.072
203.85
200.143
195.965
191.332
186.265
180.785
174.915
168.682
162.112
155.236
148.084
140.686
133.074
125.283
117.344
109.292
101.159
92.98
84.788
76.615
68.493
60.454
52.526
44.739
37.119
29.691
22.48
15.507
8.792
2.352
-3.796
-9.641
-15.17
-20.374
-25.249
-29.788
-33.991
-37.857
-41.389
-44.589
-47.466
-50.025
-52.277
-54.232
-55.902
-57.3
-58.441
-59.339
-60.011
-60.473
-60.742
-60.835
-60.77
-60.565
-60.236
-59.802
-59.279
-58.683
-58.031
-57.338
-56.618
-55.884
-55.15
-54.426
-53.723
-53.05
-52.415
-51.825
-51.286
-50.801
-50.376
-50.011
-49.71
-49.471
-49.295
-49.18
-49.125
-49.127
-49.182
-49.286
-49.436
-49.627
-49.853
-50.11
-50.393
-50.695
-51.011
-51.336
-51.664
-51.99
-52.308
-52.614
-52.904
-53.173
-53.417
-53.634
-53.821
-53.975
-54.095
-54.179
-54.227
-54.238
-54.212
-54.151
-54.054
-53.924
-53.762
-53.57
-53.351
-53.108
-52.842
-52.558
-52.258
-51.945
-51.623
-51.294
-50.963
-50.632
-50.306
-49.986
-49.677
-49.381
-49.102
-48.842
-48.604
-48.39
-48.202
-48.042
-47.911
-47.811
-47.743
-47.708
-47.706
-47.739
-47.806
-47.908
-48.043
-48.211
-48.412
-48.644
-48.906
-49.198
-49.516
-49.861
-50.229
-50.621
-51.033
-51.464
-51.912
-52.374
-52.847
-53.33
-53.819
-54.312
-54.807
-55.3
-55.788
-56.27
-56.743
-57.203
-57.647
-58.073
-58.477
-58.856
-59.206
-59.523
-59.804
-60.046
-60.244
-60.396
-60.499
-60.55
-60.544
-60.48
-60.353
-60.16
-59.899
-59.566
-59.159
-58.674
-58.111
-57.467
-56.742
-55.935
-55.044
-54.07
-53.014
-51.877
-50.659
-49.362
-47.99
-46.546
-45.034
-43.46
-41.829
-40.151
-38.436
-36.694
-34.937
-33.177
-31.428
-29.703
-28.017
-26.382
-24.812
-23.318
-21.913
-20.611
-19.426
-18.373
-17.467
-16.721
-16.147
-15.757
-15.563
-15.572
-15.786
-16.205
-16.831
-17.67
-18.734
-20.036
-21.579
-23.363
-25.385
-27.632
-30.091
-32.73
-35.505
-38.366
-41.266
-44.158
-47.012
-49.791
-52.449
-54.936
-57.18
-59.12
-60.708
-61.901
-62.667
-63.002
-62.917
-62.468
-61.758
-60.876
-59.915
-58.985
-58.183
-57.628
-57.451
-57.743
-58.644
-60.357
-63.012
-66.654
-71.173
-76.239
-81.512
-86.684
-91.265
-94.635
-96.29
-95.904
-93.692
-90.381
-86.53
-82.719
-79.783
-78.546
-79.784
-82.922
-85.412
-84.553
-78.706
-69.003
-58.367
-46.448
-28.5
4.618
63.347
151.621
265.682
395.668
526.917
646.3
745.358
818.288
864.376
886.478
885.6
863.388
820.188
753.831
665.583
558.782
438.204
311.258
184.523
63.135
-48.272
-146.118
-227.965
-292.212
-338.38
-367.52
-381.5
-382.304
-372.322
-354.141
-330.008
-302.137
-272.58
-242.468
-212.571
-183.952
-157.318
-133.177
-112.186
-94.387
-79.43
-67.383
-58.134
-51.039
-45.527
-40.824
-35.941
-30.585
-24.866
-18.719
-12.271
-5.852
0.272
5.527
9.181
11.004
11.074
9.549
6.735
2.907
-1.72
-6.722
-11.546
-15.81
-19.255
-21.769
-23.378
-24.084
-23.874
-22.79
-20.926
-18.391
-15.302
-11.753
-7.789
-3.456
1.188
6.056
11.03
15.99
20.824
25.46
29.853
33.964
37.771
41.266
44.465
47.404
50.137
52.704
55.14
57.475
59.737
61.969
64.226
66.558
69.015
71.635
74.446
77.479
80.759
84.3
88.097
92.137
96.397
100.857
105.497
110.282
115.167
120.108
125.069
130.032
134.987
139.922
144.818
149.657
154.421
159.11
163.733
168.289
172.767
177.165
181.492
185.787
190.112
194.51
198.983
203.51
208.049
212.565
217.017
221.352
225.495
229.353
232.851
235.94
238.588
240.75
242.343
243.251
243.335
242.487
240.648
237.777
233.836
228.8
222.674
215.493
207.341
198.309
188.437
177.749
166.264
154.029
141.154
127.777
114.047
100.107
86.085
72.123
58.394
45.043
32.166
19.834
8.069
-3.093
-13.547
-23.197
-31.962
-39.79
-46.683
-52.661
-57.737
-61.953
-65.377
-68.11
-70.302
-72.069
-73.476
-74.578
-75.409
-76.018
-76.508
-76.962
-77.433
-77.968
-78.588
-79.313
-80.178
-81.182
-82.292
-83.448
-84.564
-85.581
-86.476
-87.232
-87.839
-88.279
-88.518
-88.544
-88.365
-87.988
-87.421
-86.671
-85.732
-84.621
-83.377
-82.042
-80.668
-79.292
-77.937
-76.623
-75.369
-74.19
-73.101
-72.106
-71.199
-70.376
-69.64
-68.993
-68.438
-67.975
-67.595
-67.289
-67.051
-66.873
-66.751
-66.679
-66.652
-66.665
-66.716
-66.804
-66.93
-67.091
-67.283
-67.504
-67.748
-68.011
-68.288
-68.575
-68.865
-69.153
-69.436
-69.708
-69.967
-70.209
-70.43
-70.629
-70.801
-70.946
-71.061
-71.144
-71.193
-71.206
-71.184
-71.125
-71.029
-70.894
-70.722
-70.512
-70.265
-69.983
-69.664
-69.311
-68.925
-68.508
-68.062
-67.588
-67.091
-66.572
-66.034
-65.483
-64.921
-64.351
-63.779
-63.207
-62.64
-62.08
-61.531
-60.996
-60.479
-59.982
-59.509
-59.063
-58.646
-58.26
-57.909
-57.594
-57.317
-57.079
-56.881
-56.725
-56.61
-56.536
-56.504
-56.513
-56.561
-56.648
-56.772
-56.931
-57.124
-57.346
-57.595
-57.868
-58.16
-58.468
-58.786
-59.111
-59.438
-59.763
-60.08
-60.384
-60.673
-60.939
-61.18
-61.39
-61.564
-61.697
-61.784
-61.821
-61.805
-61.73
-61.593
-61.392
-61.124
-60.785
-60.375
-59.89
-59.329
-58.691
-57.974
-57.179
-56.304
-55.352
-54.323
-53.219
-52.044
-50.801
-49.494
-48.127
-46.705
-45.232
-43.714
-42.157
-40.568
-38.954
-37.323
-35.684
-34.049
-32.43
-30.841
-29.293
-27.798
-26.371
-25.026
-23.779
-22.644
-21.633
-20.759
-20.031
-19.465
-19.074
-18.868
-18.857
-19.045
-19.438
-20.041
-20.862
-21.906
-23.168
-24.64
-26.313
-28.183
-30.255
-32.531
-35.008
-37.675
-40.526
-43.551
-46.732
-50.045
-53.446
-56.884
-60.312
-63.682
-66.948
-70.065
-73.033
-75.863
-78.516
-80.952
-83.092
-84.823
-86.133
-87.084
-87.556
-87.39
-86.746
-85.74
-84.609
-84.058
-83.55
-82.37
-81.579
-81.469
-84.023
-91.613
-101.275
-110.459
-115.964
-114.009
-107.831
-100.374
-93.459
-89.965
-88.071
-86.747
-86.814
-87.68
-90.4
-95.942
-104.16
-115.467
-128.714
-140.491
-147.703
-148.451
-143.574
-135.885
-125.067
-106.117
-69.412
-5.671
86.936
202.441
328.08
450.495
561.799
658.268
739.13
803.492
848.122
869.09
863.538
830.552
771.019
687.834
585.218
467.774
341.101
211.038
82.621
-39.002
-148.921
-243.513
-319.931
-376.368
-412.893
-430.413
-430.204
-414.784
-387.303
-351.03
-309.793
-267.125
-225.518
-187.287
-154.4
-127.898
-108.329
-95.481
-88.109
-84.848
-84.6
-85.961
-87.63
-88.516
-87.495
-84.211
-79.059
-72.534
-65.189
-57.696
-50.602
-44.551
-40.34
-38.235
-38.089
-39.62
-42.352
-45.877
-49.882
-53.93
-57.518
-60.321
-62.165
-63.011
-62.947
-62.025
-60.272
-57.754
-54.567
-50.83
-46.666
-42.166
-37.419
-32.505
-27.521
-22.588
-17.812
-13.274
-9.027
-5.091
-1.468
1.836
4.827
7.533
9.982
12.226
14.311
16.277
18.169
20.033
21.923
23.901
26.023
28.325
30.837
33.582
36.572
39.825
43.347
47.136
51.19
55.504
60.075
64.902
69.979
75.294
80.834
86.58
92.513
98.615
104.866
111.243
117.722
124.278
130.885
137.517
144.146
150.739
157.263
163.683
169.964
176.071
181.967
187.618
192.988
198.044
202.756
207.093
211.028
214.534
217.585
220.162
222.242
223.81
224.851
225.351
225.303
224.698
223.534
221.811
219.531
216.698
213.321
209.41
204.981
200.049
194.634
188.759
182.446
175.725
168.624
161.175
153.41
145.363
137.071
128.57
119.897
111.089
102.183
93.217
84.228
75.251
66.322
57.476
48.745
40.162
31.756
23.558
15.593
7.888
0.466
-6.652
-13.446
-19.899
-25.996
-31.725
-37.076
-42.041
-46.614
-50.794
-54.579
-57.973
-60.98
-63.606
-65.861
-67.756
-69.304
-70.52
-71.419
-72.018
-72.337
-72.395
-72.211
-71.807
-71.203
-70.421
-69.481
-68.405
-67.214
-65.928
-64.568
-63.152
-61.7
-60.23
-58.758
-57.302
-55.876
-54.495
-53.172
-51.918
-50.744
-49.658
-48.669
-47.781
-46.999
-46.327
-45.766
-45.316
-44.976
-44.744
-44.616
-44.589
-44.656
-44.812
-45.049
-45.361
-45.74
-46.178
-46.666
-47.197
-47.763
-48.354
-48.964
-49.585
-50.208
-50.827
-51.435
-52.024
-52.589
-53.124
-53.623
-54.082
-54.496
-54.862
-55.177
-55.44
-55.648
-55.802
-55.9
-55.945
-55.936
-55.876
-55.768
-55.614
-55.418
-55.184
-54.916
-54.618
-54.295
-53.951
-53.591
-53.218
-52.838
-52.453
-52.069
-51.688
-51.314
-50.95
-50.6
-50.266
-49.952
-49.659
-49.39
-49.146
-48.93
-48.743
-48.584
-48.456
-48.359
-48.292
-48.255
-48.249
-48.271
-48.322
-48.399
-48.502
-48.629
-48.777
-48.944
-49.129
-49.329
-49.542
-49.766
-50
-50.241
-50.489
-50.741
-50.996
-51.254
-51.511
-51.767
-52.02
-52.268
-52.511
-52.746
-52.971
-53.186
-53.389
-53.579
-53.753
-53.91
-54.048
-54.166
-54.26
-54.329
-54.371
-54.382
-54.361
-54.305
-54.212
-54.08
-53.906
-53.688
-53.423
-53.108
-52.74
-52.317
-51.836
-51.294
-50.689
-50.018
-49.28
-48.475
-47.6
-46.655
-45.641
-44.557
-43.405
-42.186
-40.903
-39.557
-38.154
-36.696
-35.191
-33.643
-32.06
-30.451
-28.826
-27.199
-25.58
-23.983
-22.423
-20.913
-19.47
-18.106
-16.835
-15.669
-14.621
-13.703
-12.929
-12.315
-11.872
-11.613
-11.549
-11.69
-12.044
-12.618
-13.41
-14.419
-15.644
-17.088
-18.761
-20.672
-22.826
-25.223
-27.856
-30.713
-33.775
-37.01
-40.369
-43.803
-47.259
-50.69
-54.058
-57.326
-60.448
-63.367
-66.014
-68.319
-70.223
-71.682
-72.664
-73.17
-73.225
-72.891
-72.268
-71.454
-70.559
-69.696
-68.969
-68.484
-68.347
-68.669
-69.625
-71.456
-74.305
-78.209
-83.053
-88.512
-94.228
-99.805
-104.619
-107.934
-109.24
-108.288
-105.239
-100.875
-96.082
-91.792
-89.368
-89.291
-90.518
-91.918
-91.693
-90.278
-91.686
-96.771
-102.733
-100.385
-73.642
-13.496
79.775
198.06
324.676
448.208
565.231
672.079
766.18
842.17
889.723
904.321
887.794
843.276
777.048
693.198
592.138
476.472
350.369
219.368
90.511
-30.137
-137.861
-229.248
-302.294
-356.001
-390.899
-408.587
-410.879
-400.481
-380.57
-353.991
-323.547
-291.687
-259.779
-228.74
-199.602
-172.895
-148.788
-127.528
-109.106
-93.239
-79.963
-69.314
-60.906
-54.314
-49.097
-44.573
-40.132
-35.582
-30.768
-25.582
-20.191
-14.803
-9.694
-5.386
-2.419
-0.976
-1.027
-2.43
-4.902
-8.201
-12.057
-16.038
-19.657
-22.575
-24.619
-25.753
-26.033
-25.502
-24.185
-22.158
-19.538
-16.441
-12.972
-9.203
-5.171
-0.913
3.496
7.958
12.367
16.616
20.642
24.421
27.934
31.178
34.163
36.907
39.454
41.858
44.168
46.423
48.656
50.893
53.173
55.544
58.055
60.761
63.702
66.901
70.381
74.156
78.236
82.621
87.303
92.265
97.493
102.975
108.697
114.647
120.808
127.158
133.671
140.32
147.078
153.914
160.798
167.696
174.575
181.402
188.143
194.767
201.239
207.524
213.586
219.388
224.894
230.071
234.883
239.299
243.288
246.82
249.872
252.418
254.44
255.918
256.839
257.189
256.96
256.146
254.743
252.753
250.179
247.026
243.306
239.03
234.215
228.879
223.043
216.732
209.972
202.791
195.22
187.292
179.041
170.502
161.712
152.708
143.528
134.21
124.794
115.317
105.818
96.334
86.899
77.55
68.319
59.238
50.339
41.649
33.194
24.999
17.087
9.477
2.188
-4.767
-11.373
-17.62
-23.501
-29.009
-34.141
-38.897
-43.278
-47.286
-50.928
-54.211
-57.144
-59.739
-62.008
-63.966
-65.628
-67.011
-68.131
-69.007
-69.657
-70.101
-70.357
-70.444
-70.382
-70.19
-69.885
-69.487
-69.012
-68.477
-67.897
-67.289
-66.665
-66.038
-65.42
-64.823
-64.254
-63.724
-63.24
-62.807
-62.43
-62.114
-61.861
-61.673
-61.55
-61.492
-61.497
-61.562
-61.686
-61.863
-62.091
-62.363
-62.676
-63.024
-63.401
-63.801
-64.219
-64.647
-65.08
-65.513
-65.94
-66.355
-66.754
-67.133
-67.486
-67.811
-68.104
-68.362
-68.582
-68.763
-68.902
-68.999
-69.052
-69.062
-69.03
-68.955
-68.84
-68.686
-68.496
-68.272
-68.017
-67.734
-67.427
-67.098
-66.751
-66.391
-66.022
-65.647
-65.27
-64.896
-64.529
-64.173
-63.83
-63.505
-63.201
-62.92
-62.666
-62.441
-62.248
-62.088
-61.965
-61.879
-61.832
-61.825
-61.86
-61.936
-62.054
-62.214
-62.416
-62.658
-62.941
-63.262
-63.622
-64.019
-64.451
-64.916
-65.413
-65.939
-66.492
-67.069
-67.667
-68.284
-68.916
-69.56
-70.213
-70.871
-71.53
-72.187
-72.838
-73.479
-74.107
-74.717
-75.306
-75.869
-76.403
-76.903
-77.365
-77.786
-78.161
-78.486
-78.757
-78.971
-79.124
-79.213
-79.233
-79.181
-79.053
-78.847
-78.56
-78.189
-77.731
-77.184
-76.548
-75.821
-75.004
-74.096
-73.099
-72.015
-70.844
-69.591
-68.258
-66.85
-65.371
-63.826
-62.223
-60.57
-58.873
-57.143
-55.39
-53.624
-51.858
-50.106
-48.382
-46.703
-45.085
-43.547
-42.105
-40.773
-39.565
-38.496
-37.577
-36.819
-36.233
-35.828
-35.611
-35.595
-35.787
-36.191
-36.805
-37.619
-38.621
-39.798
-41.143
-42.655
-44.334
-46.174
-48.174
-50.334
-52.65
-55.117
-57.709
-60.378
-63.078
-65.765
-68.416
-71.029
-73.594
-76.08
-78.441
-80.61
-82.515
-84.108
-85.332
-86.085
-86.352
-86.188
-85.73
-85.249
-84.985
-85.086
-85.658
-86.781
-88.297
-89.916
-91.321
-92.023
-91.661
-90.031
-86.961
-82.458
-76.967
-71.136
-65.499
-60.699
-57.207
-55.461
-56.088
-59.428
-65.383
-73.758
-84.473
-97.35
-111.341
-124.109
-133.142
-136.906
-136.703
-135.252
-132.317
-123.254
-98.217
-47.212
33.283
138.814
257.399
376.173
486.376
583.755
667.924
737.494
788.625
816.948
818.241
791.504
739.395
664.248
568.88
455.913
326.447
187.054
47.946
-81.214
-189.347
-272.724
-335.406
-381.245
-415.869
-441.588
-455.303
-455.956
-443.796
-420.723
-391.208
-358.378
-323.965
-289.335
-255.53
-224.072
-196.457
-173.203
-154.126
-138.78
-126.578
-117.036
-109.454
-102.501
-94.846
-85.883
-75.572
-64.26
-52.508
-40.725
-29.353
-19.2
-11.127
-5.582
-2.636
-2.039
-3.353
-6.202
-10.251
-15.05
-20.081
-24.919
-29.267
-32.948
-35.874
-37.992
-39.252
-39.643
-39.218
-38.039
-36.18
-33.727
-30.757
-27.351
-23.594
-19.562
-15.327
-10.985
-6.627
-2.345
1.766
5.65
9.275
12.619
15.687
18.503
21.096
23.517
25.825
28.071
30.3
32.557
34.876
37.304
39.885
42.668
45.7
49.019
52.646
56.601
60.891
65.514
70.465
75.732
81.29
87.122
93.21
99.537
106.085
112.836
119.764
126.839
134.03
141.3
148.615
155.936
163.226
170.448
177.565
184.543
191.349
197.952
204.319
210.411
216.188
221.608
226.631
231.226
235.365
239.029
242.208
244.902
247.115
248.855
250.126
250.925
251.24
251.047
250.324
249.05
247.216
244.829
241.897
238.427
234.422
229.88
224.788
219.121
212.849
205.931
198.352
190.117
181.265
171.866
162.009
151.799
141.328
130.664
119.877
109.027
98.18
87.402
76.776
66.393
56.362
46.807
37.829
29.497
21.839
14.842
8.459
2.614
-2.755
-7.697
-12.251
-16.444
-20.303
-23.852
-27.124
-30.156
-33.008
-35.761
-38.481
-41.22
-43.999
-46.806
-49.609
-52.348
-54.973
-57.445
-59.735
-61.829
-63.724
-65.42
-66.922
-68.239
-69.366
-70.286
-70.983
-71.445
-71.675
-71.688
-71.511
-71.184
-70.74
-70.213
-69.631
-69.01
-68.363
-67.696
-67.01
-66.3
-65.567
-64.815
-64.049
-63.277
-62.505
-61.732
-60.959
-60.182
-59.399
-58.605
-57.797
-56.973
-56.133
-55.277
-54.41
-53.537
-52.662
-51.788
-50.918
-50.054
-49.198
-48.351
-47.514
-46.688
-45.874
-45.074
-44.29
-43.526
-42.784
-42.069
-41.383
-40.73
-40.113
-39.536
-39.001
-38.512
-38.07
-37.68
-37.342
-37.059
-36.832
-36.662
-36.551
-36.499
-36.505
-36.568
-36.689
-36.865
-37.095
-37.376
-37.705
-38.082
-38.502
-38.963
-39.462
-39.997
-40.563
-41.159
-41.778
-42.419
-43.076
-43.746
-44.423
-45.104
-45.785
-46.461
-47.128
-47.783
-48.422
-49.041
-49.638
-50.209
-50.752
-51.266
-51.748
-52.197
-52.613
-52.996
-53.345
-53.66
-53.944
-54.197
-54.419
-54.613
-54.781
-54.924
-55.044
-55.144
-55.226
-55.293
-55.347
-55.391
-55.428
-55.458
-55.486
-55.512
-55.539
-55.567
-55.599
-55.634
-55.674
-55.719
-55.769
-55.823
-55.881
-55.94
-56
-56.058
-56.111
-56.156
-56.189
-56.206
-56.204
-56.178
-56.122
-56.034
-55.908
-55.74
-55.524
-55.256
-54.931
-54.544
-54.091
-53.568
-52.972
-52.298
-51.546
-50.714
-49.8
-48.806
-47.73
-46.575
-45.341
-44.033
-42.652
-41.204
-39.696
-38.132
-36.52
-34.871
-33.196
-31.507
-29.819
-28.143
-26.494
-24.889
-23.344
-21.879
-20.511
-19.254
-18.124
-17.137
-16.307
-15.651
-15.182
-14.908
-14.838
-14.979
-15.34
-15.93
-16.754
-17.806
-19.078
-20.562
-22.25
-24.146
-26.25
-28.556
-31.055
-33.736
-36.585
-39.593
-42.742
-45.992
-49.295
-52.592
-55.828
-58.976
-62.008
-64.912
-67.659
-70.178
-72.403
-74.268
-75.712
-76.722
-77.273
-77.309
-76.863
-76.047
-75.037
-74.179
-73.779
-73.934
-74.733
-76.189
-78.147
-80.56
-83.214
-85.48
-86.747
-86.596
-84.737
-81.31
-76.735
-71.097
-64.697
-58.355
-53.072
-50.109
-50.512
-54.477
-61.705
-72.184
-85.559
-100.814
-116.452
-128.913
-134.498
-131.483
-117.715
-92.878
-57.107
-6.486
60.657
144.996
246.923
359.378
474.962
586.722
685.632
767.414
828.719
865.774
877.052
860.783
816.502
746.181
653.435
543.422
422.036
295.416
169.547
49.822
-59.091
-153.439
-230.915
-290.493
-332.194
-357.367
-368.106
-366.638
-355.524
-337.413
-314.525
-288.892
-262.312
-235.728
-209.745
-185.181
-162.487
-141.908
-123.852
-108.26
-94.801
-83.55
-74.433
-66.93
-60.652
-55.081
-49.504
-43.764
-38
-32.156
-26.323
-20.768
-15.667
-11.432
-8.63
-7.38
-7.531
-8.899
-11.193
-14.153
-17.584
-21.118
-24.243
-26.649
-28.19
-28.823
-28.633
-27.663
-25.91
-23.435
-20.366
-16.829
-12.958
-8.855
-4.555
-0.114
4.387
8.848
13.133
17.151
20.863
24.251
27.314
30.047
32.448
34.54
36.378
38.016
39.506
40.893
42.203
43.473
44.754
46.1
47.575
49.226
51.085
53.177
55.522
58.139
61.043
64.237
67.711
71.457
75.47
79.746
84.281
89.066
94.083
99.315
104.74
110.336
116.082
121.953
127.919
133.954
140.029
146.114
152.182
158.201
164.139
169.961
175.633
181.119
186.385
191.398
196.122
200.527
204.58
208.254
211.521
214.357
216.738
218.645
220.058
220.962
221.344
221.194
220.505
219.273
217.496
215.178
212.323
208.939
205.037
200.632
195.74
190.379
184.573
178.344
171.718
164.725
157.392
149.753
141.84
133.685
125.325
116.793
108.126
99.36
90.53
81.672
72.819
64.007
55.268
46.634
38.137
29.805
21.668
13.75
6.077
-1.33
-8.449
-15.263
-21.756
-27.914
-33.726
-39.183
-44.278
-49.006
-53.365
-57.355
-60.978
-64.238
-67.142
-69.697
-71.912
-73.8
-75.371
-76.642
-77.626
-78.339
-78.8
-79.025
-79.033
-78.843
-78.474
-77.944
-77.275
-76.484
-75.59
-74.611
-73.567
-72.473
-71.346
-70.201
-69.054
-67.918
-66.804
-65.725
-64.691
-63.711
-62.792
-61.941
-61.163
-60.463
-59.844
-59.307
-58.853
-58.483
-58.194
-57.986
-57.855
-57.798
-57.811
-57.888
-58.025
-58.215
-58.452
-58.731
-59.043
-59.383
-59.743
-60.117
-60.499
-60.882
-61.259
-61.627
-61.978
-62.309
-62.614
-62.89
-63.134
-63.342
-63.514
-63.647
-63.74
-63.793
-63.805
-63.779
-63.714
-63.613
-63.476
-63.307
-63.107
-62.88
-62.63
-62.358
-62.07
-61.769
-61.458
-61.141
-60.823
-60.506
-60.195
-59.894
-59.604
-59.33
-59.075
-58.84
-58.629
-58.443
-58.285
-58.154
-58.052
-57.98
-57.938
-57.925
-57.941
-57.984
-58.054
-58.149
-58.267
-58.407
-58.567
-58.743
-58.936
-59.141
-59.357
-59.581
-59.811
-60.046
-60.282
-60.517
-60.751
-60.98
-61.204
-61.42
-61.629
-61.828
-62.017
-62.196
-62.363
-62.52
-62.665
-62.8
-62.924
-63.038
-63.145
-63.244
-63.337
-63.427
-63.514
-63.601
-63.689
-63.78
-63.876
-63.977
-64.086
-64.203
-64.329
-64.465
-64.611
-64.767
-64.934
-65.11
-65.296
-65.489
-65.689
-65.892
-66.098
-66.303
-66.504
-66.697
-66.879
-67.046
-67.194
-67.318
-67.413
-67.475
-67.499
-67.478
-67.408
-67.283
-67.096
-66.842
-66.517
-66.114
-65.63
-65.06
-64.401
-63.649
-62.801
-61.856
-60.813
-59.67
-58.427
-57.086
-55.649
-54.119
-52.499
-50.796
-49.016
-47.169
-45.265
-43.315
-41.332
-39.328
-37.32
-35.321
-33.347
-31.413
-29.532
-27.719
-25.99
-24.36
-22.847
-21.467
-20.237
-19.17
-18.282
-17.586
-17.093
-16.808
-16.736
-16.88
-17.248
-17.852
-18.705
-19.815
-21.188
-22.823
-24.715
-26.851
-29.209
-31.749
-34.428
-37.198
-40.016
-42.846
-45.65
-48.386
-51.003
-53.434
-55.614
-57.488
-59.002
-60.115
-60.814
-61.102
-61.022
-60.662
-60.111
-59.461
-58.827
-58.308
-58.017
-58.082
-58.595
-59.688
-61.557
-64.356
-68.173
-72.956
-78.437
-84.288
-90.177
-95.632
-100.047
-102.859
-103.649
-102.481
-99.953
-96.672
-93.369
-90.9
-90.09
-91.925
-96.08
-100.237
-101.901
-98.521
-90.173
-80.261
-68.974
-53.924
-28.088
21.191
100.237
210.255
345.814
490.61
629.474
747.881
834.067
886.598
907.922
903.499
879.571
837.483
776.08
693.861
591.364
472.862
345.07
215.48
90.423
-24.897
-126.119
-210.248
-275.223
-320.405
-346.736
-355.735
-349.68
-331.919
-306.086
-275.791
-244.408
-214.21
-186.729
-163.51
-145.502
-132.611
-124.119
-118.783
-115.157
-112.336
-109.617
-105.929
-100.305
-92.416
-82.43
-70.98
-58.967
-47.019
-35.625
-25.526
-17.455
-11.803
-8.666
-7.817
-8.798
-11.22
-14.731
-18.865
-23.158
-27.242
-30.822
-33.735
-35.904
-37.26
-37.772
-37.444
-36.307
-34.406
-31.794
-28.534
-24.713
-20.433
-15.798
-10.926
-5.918
-0.881
4.06
8.807
13.285
17.439
21.253
24.72
27.834
30.607
33.069
35.255
37.217
39.003
40.65
42.207
43.725
45.257
46.869
48.613
50.524
52.636
54.97
57.545
60.379
63.479
66.845
70.475
74.365
78.514
82.923
87.585
92.489
97.623
102.967
108.504
114.215
120.08
126.075
132.177
138.357
144.59
150.85
157.108
163.33
169.483
175.532
181.441
187.175
192.697
197.973
202.965
207.641
211.97
215.919
219.462
222.57
225.219
227.384
229.046
230.187
230.791
230.845
230.339
229.267
227.625
225.414
222.636
219.298
215.409
210.982
206.034
200.583
194.65
188.261
181.442
174.222
166.635
158.713
150.492
142.008
133.299
124.405
115.364
106.216
97.001
87.757
78.525
69.341
60.243
51.268
42.451
33.826
25.424
17.276
9.411
1.854
-5.371
-12.242
-18.741
-24.852
-30.563
-35.862
-40.742
-45.2
-49.232
-52.842
-56.031
-58.807
-61.18
-63.16
-64.761
-66
-66.894
-67.462
-67.725
-67.705
-67.426
-66.91
-66.182
-65.267
-64.191
-62.979
-61.656
-60.248
-58.779
-57.273
-55.755
-54.246
-52.769
-51.343
-49.988
-48.72
-47.557
-46.512
-45.598
-44.826
-44.205
-43.741
-43.441
-43.307
-43.342
-43.545
-43.914
-44.447
-45.138
-45.983
-46.975
-48.105
-49.365
-50.746
-52.237
-53.829
-55.511
-57.271
-59.098
-60.98
-62.907
-64.866
-66.847
-68.839
-70.831
-72.814
-74.777
-76.713
-78.612
-80.467
-82.272
-84.021
-85.71
-87.333
-88.888
-90.373
-91.786
-93.127
-94.397
-95.596
-96.726
-97.788
-98.786
-99.723
-100.601
-101.424
-102.195
-102.917
-103.594
-104.23
-104.828
-105.391
-105.923
-106.425
-106.902
-107.355
-107.788
-108.2
-108.596
-108.975
-109.34
-109.69
-110.026
-110.349
-110.657
-110.951
-111.228
-111.488
-111.729
-111.948
-112.144
-112.313
-112.454
-112.564
-112.64
-112.68
-112.681
-112.642
-112.561
-112.435
-112.264
-112.047
-111.782
-111.469
-111.107
-110.698
-110.241
-109.736
-109.185
-108.589
-107.949
-107.267
-106.544
-105.781
-104.982
-104.148
-103.281
-102.385
-101.461
-100.513
-99.544
-98.555
-97.551
-96.533
-95.504
-94.465
-93.419
-92.367
-91.309
-90.248
-89.183
-88.115
-87.043
-85.967
-84.887
-83.8
-82.705
-81.601
-80.485
-79.354
-78.206
-77.038
-75.846
-74.629
-73.382
-72.103
-70.788
-69.436
-68.041
-66.601
-65.114
-63.575
-61.983
-60.335
-58.628
-56.863
-55.037
-53.151
-51.205
-49.201
-47.14
-45.024
-42.858
-40.645
-38.389
-36.097
-33.775
-31.429
-29.069
-26.702
-24.341
-21.996
-19.683
-17.413
-15.203
-13.067
-11.021
-9.08
-7.259
-5.57
-4.024
-2.634
-1.412
-0.371
0.475
1.117
1.543
1.745
1.715
1.449
0.942
0.2
-0.771
-1.968
-3.391
-5.05
-6.954
-9.104
-11.499
-14.13
-16.984
-20.044
-23.279
-26.639
-30.074
-33.529
-36.955
-40.318
-43.577
-46.683
-49.576
-52.174
-54.402
-56.198
-57.514
-58.319
-58.601
-58.371
-57.678
-56.607
-55.261
-53.761
-52.231
-50.785
-49.553
-48.643
-48.208
-48.483
-49.665
-51.854
-54.996
-58.829
-63.01
-67.226
-71.037
-73.82
-75.054
-74.424
-72.093
-68.822
-65.463
-62.926
-62.225
-64.289
-69.892
-78.363
-87.156
-93.403
-93.98
-88.575
-79.945
-68.07
-50.958
-21.183
34.362
123.094
245.95
394.156
547.267
685.195
793.048
863.788
901.422
914.214
907.924
884.926
843.396
779.453
692.883
587.194
468.086
343.111
218.708
99.685
-9.683
-105.925
-186.486
-249.728
-295.2
-323.83
-337.211
-337.158
-326.028
-306.549
-281.398
-253.1
-223.77
-194.652
-166.811
-141.523
-119.629
-101.544
-87.223
-76.027
-67.303
-60.81
-56.079
-52.214
-48.324
-43.476
-37.263
-30.02
-22.125
-13.815
-5.442
2.582
9.704
15.153
18.558
20.015
19.732
18.056
15.327
11.762
7.703
3.629
-0.106
-3.222
-5.555
-7.113
-7.899
-7.899
-7.144
-5.675
-3.552
-0.879
2.253
5.77
9.596
13.686
17.978
22.382
26.799
31.104
35.208
39.073
42.675
46.003
49.051
51.82
54.332
56.645
58.813
60.881
62.89
64.862
66.835
68.857
70.98
73.263
75.749
78.463
81.429
84.665
88.185
91.998
96.103
100.483
105.124
110.018
115.155
120.526
126.118
131.91
137.88
144.004
150.258
156.617
163.052
169.533
176.029
182.508
188.938
195.289
201.526
207.615
213.518
219.199
224.623
229.754
234.558
239
243.05
246.677
249.856
252.561
254.77
256.464
257.625
258.24
258.297
257.788
256.706
255.048
252.817
250.014
246.646
242.722
238.255
233.26
227.756
221.763
215.307
208.414
201.113
193.436
185.417
177.092
168.498
159.672
150.654
141.483
132.2
122.845
113.457
104.076
94.74
85.485
76.347
67.362
58.56
49.975
41.633
33.564
25.791
18.338
11.226
4.474
-1.903
-7.891
-13.479
-18.659
-23.425
-27.775
-31.709
-35.229
-38.341
-41.053
-43.377
-45.324
-46.91
-48.153
-49.071
-49.686
-50.018
-50.092
-49.931
-49.56
-49.004
-48.289
-47.439
-46.481
-45.438
-44.336
-43.198
-42.047
-40.906
-39.796
-38.737
-37.749
-36.85
-36.056
-35.383
-34.844
-34.451
-34.214
-34.142
-34.242
-34.517
-34.972
-35.607
-36.421
-37.411
-38.575
-39.905
-41.396
-43.038
-44.821
-46.737
-48.772
-50.915
-53.154
-55.475
-57.866
-60.314
-62.805
-65.327
-67.867
-70.411
-72.949
-75.468
-77.958
-80.408
-82.807
-85.148
-87.422
-89.62
-91.738
-93.768
-95.707
-97.55
-99.295
-100.94
-102.484
-103.928
-105.272
-106.518
-107.67
-108.732
-109.706
-110.597
-111.412
-112.155
-112.833
-113.45
-114.012
-114.526
-114.996
-115.429
-115.829
-116.201
-116.549
-116.876
-117.187
-117.483
-117.768
-118.042
-118.309
-118.567
-118.819
-119.063
-119.3
-119.529
-119.748
-119.956
-120.151
-120.331
-120.493
-120.634
-120.751
-120.841
-120.902
-120.93
-120.921
-120.874
-120.784
-120.65
-120.469
-120.238
-119.957
-119.624
-119.239
-118.802
-118.313
-117.773
-117.185
-116.551
-115.873
-115.154
-114.399
-113.61
-112.792
-111.949
-111.085
-110.205
-109.314
-108.417
-107.516
-106.618
-105.725
-104.841
-103.97
-103.114
-102.276
-101.458
-100.661
-99.886
-99.136
-98.409
-97.707
-97.028
-96.371
-95.734
-95.115
-94.51
-93.915
-93.326
-92.736
-92.14
-91.532
-90.906
-90.256
-89.574
-88.854
-88.089
-87.272
-86.397
-85.458
-84.447
-83.361
-82.194
-80.942
-79.604
-78.176
-76.658
-75.05
-73.354
-71.569
-69.701
-67.751
-65.724
-63.626
-61.463
-59.241
-56.971
-54.661
-52.323
-49.973
-47.625
-45.295
-43.001
-40.76
-38.591
-36.511
-34.537
-32.685
-30.967
-29.398
-27.992
-26.767
-25.737
-24.915
-24.313
-23.939
-23.804
-23.914
-24.271
-24.869
-25.701
-26.763
-28.054
-29.586
-31.365
-33.389
-35.652
-38.147
-40.857
-43.761
-46.824
-49.99
-53.202
-56.401
-59.538
-62.575
-65.469
-68.168
-70.608
-72.714
-74.418
-75.668
-76.425
-76.66
-76.37
-75.579
-74.348
-72.776
-70.975
-69.077
-67.206
-65.491
-64.069
-63.051
-62.598
-62.948
-64.27
-66.631
-69.969
-74.023
-78.462
-82.996
-87.161
-90.292
-91.862
-91.571
-89.492
-86.229
-82.621
-79.444
-77.596
-78.242
-81.408
-85.796
-90.031
-91.771
-90.842
-89.806
-87.847
-81.763
-63.58
-21.276
49.557
147.067
262.755
383.509
503.686
619.234
725.95
818.642
883.907
912.561
902.905
858.501
790.522
704.957
602.109
482.608
347.987
208.001
75.96
-39.175
-134.073
-213.139
-282.456
-344.253
-396.959
-435.841
-457.307
-460.86
-448.355
-423.692
-390.365
-350.974
-308.099
-263.768
-220.227
-180.285
-146.096
-118.644
-98.074
-83.792
-74.683
-69.713
-67.592
-66.344
-64.123
-59.922
-53.427
-44.935
-35.121
-24.567
-13.908
-4.207
3.432
8.403
10.556
10.142
7.688
3.666
-1.511
-7.267
-12.947
-18.067
-22.289
-25.461
-27.608
-28.751
-28.894
-28.089
-26.415
-23.961
-20.838
-17.147
-12.968
-8.4
-3.536
1.519
6.634
11.68
16.535
21.109
25.359
29.262
32.812
36.009
38.869
41.428
43.741
45.864
47.845
49.733
51.566
53.395
55.279
57.278
59.452
61.845
64.486
67.397
70.594
74.088
77.883
81.973
86.345
90.987
95.888
101.041
106.434
112.054
117.88
123.891
130.062
136.37
142.788
149.289
155.845
162.426
169.002
175.544
182.022
188.404
194.657
200.746
206.635
212.291
217.679
222.765
227.518
231.905
235.898
239.471
242.599
245.259
247.431
249.097
250.242
250.852
250.918
250.431
249.386
247.783
245.621
242.905
239.642
235.84
231.512
226.673
221.342
215.538
209.283
202.603
195.524
188.075
180.287
172.192
163.822
155.212
146.397
137.413
128.295
119.079
109.801
100.496
91.199
81.944
72.763
63.689
54.752
45.982
37.407
29.054
20.946
13.108
5.559
-1.681
-8.594
-15.168
-21.387
-27.244
-32.728
-37.836
-42.561
-46.904
-50.865
-54.447
-57.654
-60.493
-62.973
-65.103
-66.896
-68.364
-69.522
-70.384
-70.969
-71.292
-71.372
-71.227
-70.877
-70.34
-69.636
-68.784
-67.804
-66.714
-65.534
-64.281
-62.973
-61.627
-60.259
-58.885
-57.519
-56.174
-54.862
-53.594
-52.382
-51.232
-50.153
-49.151
-48.232
-47.399
-46.655
-46.002
-45.441
-44.972
-44.593
-44.302
-44.097
-43.973
-43.928
-43.955
-44.049
-44.206
-44.418
-44.679
-44.984
-45.324
-45.693
-46.085
-46.492
-46.909
-47.329
-47.747
-48.155
-48.55
-48.926
-49.28
-49.607
-49.904
-50.169
-50.399
-50.592
-50.749
-50.868
-50.949
-50.993
-51.001
-50.974
-50.915
-50.825
-50.707
-50.565
-50.4
-50.217
-50.019
-49.809
-49.593
-49.373
-49.154
-48.94
-48.735
-48.543
-48.367
-48.212
-48.081
-47.977
-47.903
-47.862
-47.856
-47.889
-47.961
-48.074
-48.229
-48.428
-48.669
-48.953
-49.28
-49.649
-50.058
-50.506
-50.992
-51.513
-52.068
-52.653
-53.265
-53.903
-54.561
-55.236
-55.925
-56.623
-57.326
-58.029
-58.728
-59.417
-60.093
-60.75
-61.383
-61.986
-62.556
-63.086
-63.571
-64.005
-64.384
-64.702
-64.955
-65.137
-65.245
-65.275
-65.223
-65.085
-64.859
-64.541
-64.129
-63.621
-63.014
-62.308
-61.502
-60.595
-59.59
-58.486
-57.286
-55.993
-54.61
-53.141
-51.592
-49.967
-48.274
-46.518
-44.71
-42.856
-40.967
-39.055
-37.132
-35.212
-33.31
-31.442
-29.624
-27.874
-26.207
-24.641
-23.192
-21.873
-20.698
-19.679
-18.832
-18.17
-17.709
-17.459
-17.432
-17.637
-18.083
-18.775
-19.716
-20.901
-22.324
-23.982
-25.873
-28.006
-30.385
-33.008
-35.87
-38.959
-42.259
-45.749
-49.397
-53.15
-56.96
-60.775
-64.549
-68.251
-71.842
-75.277
-78.498
-81.432
-84.011
-86.184
-87.906
-89.145
-89.891
-90.152
-89.97
-89.427
-88.603
-87.594
-86.501
-85.417
-84.445
-83.691
-83.29
-83.453
-84.362
-86.108
-88.631
-91.707
-95.036
-98.295
-101.043
-102.695
-102.73
-100.822
-97.157
-92.441
-87.397
-82.994
-80.382
-80.354
-83.681
-90.022
-96.993
-102.775
-106.039
-105.879
-103.283
-95.191
-74.712
-35.429
29.311
118.491
223.545
335.604
444.629
544.819
634.763
711.12
770.738
810.002
824.361
812.342
774.335
711.35
626.518
523.983
408.215
284.883
159.723
37.497
-77.14
-179.865
-267.52
-337.888
-389.914
-424.28
-442.628
-446.654
-438.472
-420.61
-395.581
-365.906
-333.82
-300.656
-267.119
-234.063
-202.503
-173.139
-146.559
-123.118
-102.721
-85.453
-71.591
-60.974
-52.935
-46.772
-41.625
-36.664
-31.66
-26.475
-20.889
-14.968
-9.014
-3.415
1.261
4.412
5.898
5.815
4.29
1.592
-1.988
-6.126
-10.369
-14.208
-17.314
-19.547
-20.855
-21.288
-20.891
-19.688
-17.762
-15.239
-12.239
-8.865
-5.193
-1.256
2.897
7.176
11.488
15.727
19.788
23.617
27.184
30.468
33.47
36.206
38.699
40.996
43.156
45.228
47.255
49.277
51.324
53.44
55.673
58.077
60.707
63.603
66.79
70.29
74.117
78.273
82.761
87.568
92.674
98.061
103.715
109.617
115.752
122.098
128.63
135.319
142.135
149.044
156.016
163.016
170.009
176.959
183.831
190.591
197.205
203.639
209.856
215.819
221.493
226.841
231.83
236.427
240.6
244.319
247.559
250.295
252.506
254.175
255.285
255.826
255.788
255.164
253.953
252.154
249.77
246.809
243.279
239.193
234.566
229.416
223.764
217.633
211.048
204.038
196.632
188.863
180.762
172.364
163.705
154.821
145.748
136.525
127.188
117.774
108.322
98.867
89.444
80.087
70.83
61.702
52.735
43.955
35.387
27.056
18.984
11.191
3.693
-3.493
-10.353
-16.877
-23.056
-28.881
-34.35
-39.458
-44.207
-48.596
-52.63
-56.313
-59.654
-62.659
-65.34
-67.708
-69.775
-71.555
-73.063
-74.314
-75.325
-76.113
-76.694
-77.085
-77.303
-77.365
-77.286
-77.084
-76.774
-76.371
-75.888
-75.341
-74.742
-74.104
-73.438
-72.756
-72.067
-71.381
-70.707
-70.051
-69.42
-68.821
-68.257
-67.732
-67.251
-66.814
-66.424
-66.081
-65.785
-65.536
-65.333
-65.173
-65.055
-64.976
-64.933
-64.923
-64.944
-64.992
-65.065
-65.158
-65.269
-65.395
-65.533
-65.681
-65.834
-65.991
-66.149
-66.306
-66.458
-66.605
-66.745
-66.874
-66.994
-67.101
-67.196
-67.277
-67.345
-67.398
-67.438
-67.465
-67.479
-67.482
-67.473
-67.455
-67.43
-67.397
-67.36
-67.319
-67.275
-67.231
-67.188
-67.148
-67.111
-67.08
-67.056
-67.04
-67.035
-67.041
-67.061
-67.097
-67.149
-67.22
-67.312
-67.424
-67.56
-67.72
-67.905
-68.115
-68.353
-68.617
-68.909
-69.228
-69.574
-69.947
-70.346
-70.77
-71.22
-71.692
-72.187
-72.704
-73.24
-73.795
-74.368
-74.955
-75.557
-76.17
-76.793
-77.423
-78.057
-78.692
-79.325
-79.952
-80.57
-81.175
-81.763
-82.331
-82.875
-83.39
-83.873
-84.32
-84.728
-85.091
-85.407
-85.672
-85.881
-86.032
-86.122
-86.146
-86.103
-85.99
-85.804
-85.542
-85.201
-84.78
-84.276
-83.687
-83.011
-82.247
-81.395
-80.455
-79.426
-78.31
-77.11
-75.827
-74.464
-73.024
-71.512
-69.931
-68.287
-66.586
-64.834
-63.038
-61.205
-59.345
-57.47
-55.593
-53.724
-51.877
-50.067
-48.306
-46.611
-44.993
-43.464
-42.036
-40.719
-39.526
-38.472
-37.569
-36.829
-36.263
-35.883
-35.696
-35.711
-35.934
-36.359
-36.987
-37.815
-38.847
-40.096
-41.574
-43.283
-45.225
-47.399
-49.793
-52.395
-55.179
-58.098
-61.107
-64.156
-67.201
-70.213
-73.151
-75.971
-78.618
-81.02
-83.108
-84.831
-86.139
-87.003
-87.415
-87.389
-86.97
-86.242
-85.299
-84.262
-83.248
-82.364
-81.733
-81.459
-81.69
-82.673
-84.581
-87.496
-91.406
-96.094
-101.265
-106.663
-111.834
-116.108
-118.987
-120.161
-119.611
-117.89
-115.763
-113.97
-113.498
-115.557
-120.136
-125.995
-132.019
-136.02
-137.913
-140.149
-141.458
-138.697
-124.962
-89.017
-25.193
66.937
182.667
311.144
441.216
562.296
665.554
744.526
796.936
825.029
830.673
816.667
783.568
728.307
651.128
554.441
442.406
322.362
200.66
81.885
-29.325
-129.05
-214.432
-283.22
-334.432
-368.867
-388.098
-393.715
-387.847
-372.995
-351.534
-325.988
-298.58
-270.458
-242.251
-214.843
-189.118
-165.789
-145.489
-128.2
-113.51
-101.441
-92.161
-85.377
-80.442
-76.455
-72.361
-67.75
-62.741
-57.324
-51.481
-45.368
-39.276
-33.803
-29.753
-27.475
-26.885
-27.8
-29.919
-32.973
-36.739
-40.816
-44.649
-47.835
-50.169
-51.579
-52.132
-51.882
-50.822
-48.997
-46.505
-43.454
-39.958
-36.118
-31.987
-27.616
-23.08
-18.467
-13.896
-9.488
-5.32
-1.427
2.174
5.482
8.492
11.207
13.657
15.894
17.966
19.919
21.788
23.6
25.394
27.22
29.132
31.191
33.437
35.899
38.601
41.559
44.789
48.301
52.093
56.153
60.471
65.043
69.86
74.918
80.205
85.702
91.391
97.249
103.253
109.381
115.606
121.899
128.232
134.576
140.9
147.178
153.376
159.463
165.403
171.162
176.705
181.998
187.007
191.698
196.04
200.003
203.558
206.682
209.348
211.537
213.229
214.407
215.057
215.169
214.734
213.746
212.204
210.109
207.464
204.277
200.558
196.32
191.579
186.354
180.666
174.538
167.998
161.072
153.79
146.186
138.291
130.141
121.77
113.215
104.512
95.699
86.812
77.887
68.961
60.068
51.244
42.52
33.93
25.503
17.268
9.252
1.481
-6.023
-13.239
-20.147
-26.732
-32.98
-38.88
-44.421
-49.597
-54.403
-58.837
-62.9
-66.592
-69.919
-72.887
-75.503
-77.778
-79.722
-81.348
-82.67
-83.703
-84.462
-84.965
-85.229
-85.271
-85.11
-84.765
-84.253
-83.594
-82.806
-81.907
-80.914
-79.843
-78.712
-77.535
-76.327
-75.101
-73.869
-72.644
-71.436
-70.254
-69.106
-68
-66.941
-65.935
-64.986
-64.097
-63.271
-62.507
-61.809
-61.175
-60.605
-60.099
-59.654
-59.27
-58.942
-58.669
-58.447
-58.273
-58.142
-58.05
-57.995
-57.971
-57.975
-58.003
-58.05
-58.115
-58.192
-58.279
-58.372
-58.469
-58.568
-58.666
-58.761
-58.852
-58.937
-59.017
-59.089
-59.154
-59.21
-59.259
-59.298
-59.327
-59.347
-59.357
-59.355
-59.343
-59.32
-59.285
-59.238
-59.181
-59.112
-59.031
-58.94
-58.838
-58.724
-58.601
-58.467
-58.324
-58.171
-58.01
-57.842
-57.666
-57.484
-57.297
-57.104
-56.906
-56.705
-56.499
-56.29
-56.077
-55.863
-55.647
-55.431
-55.216
-55.004
-54.795
-54.592
-54.396
-54.209
-54.032
-53.867
-53.716
-53.579
-53.459
-53.357
-53.274
-53.212
-53.17
-53.15
-53.151
-53.173
-53.215
-53.277
-53.357
-53.454
-53.566
-53.69
-53.826
-53.97
-54.121
-54.276
-54.433
-54.587
-54.735
-54.874
-54.999
-55.105
-55.187
-55.242
-55.263
-55.246
-55.186
-55.077
-54.914
-54.692
-54.405
-54.049
-53.618
-53.107
-52.513
-51.832
-51.06
-50.196
-49.238
-48.184
-47.035
-45.79
-44.451
-43.019
-41.496
-39.885
-38.189
-36.413
-34.562
-32.642
-30.661
-28.627
-26.551
-24.445
-22.321
-20.194
-18.077
-15.985
-13.935
-11.942
-10.02
-8.183
-6.444
-4.82
-3.324
-1.974
-0.783
0.234
1.065
1.698
2.122
2.328
2.314
2.079
1.622
0.938
0.018
-1.15
-2.568
-4.239
-6.161
-8.322
-10.709
-13.296
-16.041
-18.896
-21.813
-24.744
-27.649
-30.489
-33.217
-35.783
-38.113
-40.139
-41.804
-43.055
-43.858
-44.205
-44.095
-43.578
-42.759
-41.736
-40.624
-39.553
-38.6
-37.877
-37.529
-37.622
-38.25
-39.599
-41.772
-44.839
-48.829
-53.509
-58.534
-63.715
-68.811
-73.226
-76.327
-77.732
-77.124
-75.39
-74.644
-75.224
-76.554
-77.503
-73.602
-63.442
-50.041
-35.745
-28.136
-32.966
-45.238
-57.611
-55.29
-20.017
52.922
160.518
291.404
425.394
550.126
659.754
751.617
828.292
888.94
929.369
945.835
934.809
895.645
830.338
742.356
636.471
517.955
392.609
266.431
144.698
31.927
-67.934
-152.08
-218.855
-267.747
-299.781
-316.964
-321.353
-314.968
-300.108
-279.055
-254.035
-227.045
-199.175
-170.892
-143.002
-116.633
-92.726
-72.042
-54.729
-40.425
-29.133
-21.003
-15.601
-12.011
-9.08
-5.582
-1.024
4.459
10.84
18.069
25.884
33.856
41.248
47.178
51.263
53.557
54.231
53.594
51.908
49.395
46.451
43.581
41.167
39.453
38.533
38.365
38.924
40.205
42.169
44.75
47.85
51.364
55.203
59.298
63.604
68.081
72.663
77.264
81.78
86.099
90.157
93.924
97.374
100.497
103.284
105.737
107.893
109.806
111.524
113.094
114.55
115.917
117.237
118.559
119.933
121.417
123.051
124.856
126.857
129.077
131.535
134.252
137.232
140.458
143.917
147.592
151.457
155.491
159.668
163.945
168.292
172.688
177.117
181.581
186.083
190.608
195.136
199.633
204.063
208.413
212.674
216.835
220.909
224.903
228.828
232.716
236.575
240.377
244.084
247.624
250.906
253.865
256.456
258.646
260.421
261.756
262.608
262.931
262.662
261.735
260.088
257.64
254.334
250.17
245.166
239.376
232.903
225.832
218.218
210.115
201.549
192.541
183.156
173.482
163.61
153.645
143.686
133.839
124.208
114.857
105.833
97.157
88.804
80.754
73.02
65.621
58.6
52.022
45.892
40.175
34.853
29.894
25.269
20.96
16.93
13.147
9.598
6.284
3.23
0.464
-2.02
-4.241
-6.232
-8.043
-9.686
-11.136
-12.39
-13.445
-14.301
-14.971
-15.453
-15.734
-15.824
-15.744
-15.523
-15.192
-14.768
-14.251
-13.642
-12.938
-12.152
-11.312
-10.437
-9.542
-8.641
-7.742
-6.861
-6.018
-5.223
-4.472
-3.764
-3.096
-2.468
-1.89
-1.363
-0.888
-0.464
-0.087
0.248
0.542
0.8
1.027
1.23
1.415
1.588
1.749
1.901
2.045
2.185
2.324
2.463
2.605
2.75
2.901
3.058
3.223
3.395
3.573
3.755
3.939
4.124
4.309
4.49
4.666
4.835
4.994
5.142
5.275
5.393
5.491
5.569
5.624
5.655
5.66
5.638
5.588
5.51
5.403
5.268
5.104
4.913
4.695
4.451
4.184
3.894
3.585
3.258
2.917
2.564
2.202
1.835
1.466
1.098
0.736
0.381
0.037
-0.293
-0.607
-0.903
-1.178
-1.432
-1.663
-1.872
-2.057
-2.22
-2.362
-2.483
-2.585
-2.672
-2.744
-2.806
-2.86
-2.91
-2.959
-3.01
-3.068
-3.138
-3.221
-3.324
-3.45
-3.602
-3.786
-4.004
-4.26
-4.557
-4.898
-5.287
-5.724
-6.212
-6.753
-7.346
-7.993
-8.691
-9.44
-10.238
-11.081
-11.967
-12.89
-13.847
-14.832
-15.839
-16.862
-17.893
-18.927
-19.956
-20.972
-21.967
-22.933
-23.861
-24.744
-25.575
-26.346
-27.049
-27.679
-28.228
-28.69
-29.06
-29.332
-29.502
-29.564
-29.515
-29.351
-29.071
-28.674
-28.159
-27.528
-26.782
-25.925
-24.959
-23.891
-22.724
-21.465
-20.122
-18.705
-17.221
-15.683
-14.103
-12.494
-10.874
-9.257
-7.661
-6.102
-4.597
-3.165
-1.825
-0.596
0.508
1.469
2.272
2.902
3.34
3.574
3.592
3.385
2.945
2.263
1.329
0.138
-1.304
-2.992
-4.917
-7.073
-9.464
-12.088
-14.937
-18.003
-21.276
-24.741
-28.388
-32.191
-36.108
-40.091
-44.081
-48.03
-51.908
-55.69
-59.359
-62.888
-66.225
-69.314
-72.107
-74.549
-76.61
-78.264
-79.463
-80.251
-80.758
-81.18
-81.815
-82.943
-84.727
-87.29
-90.702
-94.847
-99.54
-104.457
-109.03
-112.687
-114.915
-115.368
-113.966
-110.911
-106.546
-101.355
-96.093
-91.778
-89.665
-90.63
-95.255
-103.824
-116.045
-131.571
-148.864
-164.67
-175.785
-180.005
-177.648
-170.819
-159.096
-137.982
-98.783
-33.182
60.078
174.979
299.108
419.485
528.48
622.311
700.026
760.79
801.594
818.932
810.416
775.415
715.006
632.234
531.361
416.921
294.327
169.139
46.049
-70.154
-174.884
-264.93
-338.034
-392.863
-429.917
-450.541
-456.042
-448.784
-431.747
-407.64
-379.37
-349.677
-320.065
-291.64
-265.833
-243.327
-224.392
-209.323
-197.59
-188.337
-181.339
-176.316
-172.502
-169.38
-166.298
-162.427
-157.767
-152.667
-147.21
-141.617
-136.224
-131.252
-127.201
-124.754
-124.089
-125.091
-127.583
-131.222
-135.749
-140.982
-146.563
-152.008
-156.935
-161.112
-164.451
-166.997
-168.787
-169.816
-170.111
-169.748
-168.831
-167.47
-165.76
-163.759
-161.498
-159.035
-156.449
-153.843
-151.351
-149.06
-147.011
-145.224
-143.709
-142.47
-141.512
-140.815
-140.324
-139.989
-139.765
-139.622
-139.543
-139.502
-139.462
-139.379
-139.202
-138.898
-138.45
-137.839
-137.052
-136.072
-134.884
