Name,John Breau
Date of Birth,"Dec 20, 1971"
Recorded Date,2024-04-09 09:51:39 -0500
Classification,Sinus Rhythm
Symptoms,
Software Version,1.90
Device,"Watch6,3"
Sample Rate,512 hertz


Lead,Lead I
Unit,µV

-603.358
-826.386
-963.807
-991.94
-928.553
-819.879
-714.136
-640.803
-603.557
-589.75
-584.501
-577.68
-568.136
-558.559
-548.687
-538.159
-525.682
-509.546
-491.214
-471.522
-449.74
-425.274
-396.996
-364.657
-329.301
-292.325
-255.131
-218.758
-183.851
-151.015
-120
-89.563
-60.036
-32.344
-8.034
8.354
16.008
18.882
21.742
34.328
62.736
102.51
145.561
178.607
190.578
182.736
162.791
142.125
130.649
130.263
137.875
148.519
158.566
167.193
175.145
184.123
194.732
206.474
219.055
231.721
244.838
260.48
278.631
297.936
315.873
327.521
333.736
340.36
353.138
379.706
419.476
463.69
505.297
536.375
554.361
563.47
565.765
563.141
557.138
547.028
533.542
518.97
505.313
495.008
490.542
493.06
502.702
519.042
541.112
567.637
597.445
629.119
660.884
691.581
720.628
747.86
773.488
797.475
819.498
839.241
856.324
870.047
879.472
883.348
880.367
870.024
852.403
827.961
797.626
762.508
724.04
684.274
645.395
608.87
575.713
546.716
522.481
504.013
492.31
487.772
490.708
501.977
522.82
554.636
598.793
655.856
725.803
808.721
904.303
1011.431
1128.016
1250.931
1376.409
1500.351
1618.387
1725.907
1817.177
1886.421
1929.86
1943.99
1927.645
1880.996
1800.688
1684.738
1532.238
1344.225
1128.929
894.709
648.078
392.929
129.421
-137.77
-399.078
-640.536
-846.642
-1010.203
-1129.79
-1209.354
-1260.694
-1294.582
-1323.674
-1362.543
-1414.401
-1475.61
-1537.389
-1584.828
-1613.037
-1627.302
-1633.779
-1638.202
-1637.002
-1614.201
-1554.194
-1449.728
-1302.865
-1128.795
-947.218
-771.759
-614.034
-484.143
-392.487
-354.224
-379.797
-462.896
-581.209
-699.685
-782.649
-816.138
-807.909
-779.025
-754.76
-744.003
-740.139
-733.396
-716.243
-693.042
-676.177
-673.933
-687.065
-708.23
-727.849
-740.602
-746.649
-749.883
-753.079
-756.751
-759.942
-760.801
-758.794
-754.484
-748.464
-741.515
-734.261
-726.942
-719.774
-712.964
-706.564
-700.693
-695.555
-691.291
-687.985
-685.694
-684.421
-684.139
-684.841
-686.476
-688.946
-692.157
-696.012
-700.404
-705.234
-710.374
-715.626
-720.744
-725.432
-729.374
-732.287
-733.915
-734.015
-732.353
-728.717
-722.926
-714.818
-704.241
-691.01
-674.918
-655.755
-633.442
-608.073
-579.887
-549.232
-516.401
-481.679
-445.507
-408.354
-370.533
-332.065
-292.652
-252.069
-210.426
-167.808
-124.121
-79.408
-34.55
8.211
46.008
77.596
105.285
132.944
163.382
195.273
219.576
226.168
209.241
168.801
117.316
71.094
41.615
36.341
50.768
74.163
99.123
119.477
134.878
149.097
163.207
177.497
191.041
201.514
208.509
212.629
214.616
215.826
217.009
218.454
220.506
223.258
226.649
230.571
234.739
238.785
242.549
245.994
249.132
252.059
254.83
257.475
260.098
262.822
265.732
268.881
272.261
275.805
279.485
283.31
287.242
291.206
295.12
298.891
302.482
305.936
309.249
312.333
315.248
318.262
321.426
324.626
327.868
330.844
334.104
339.39
346.308
353.168
357.253
353.493
342.149
328.316
317.021
315.599
324.768
337.595
348.786
352.681
347.887
340.362
334.098
330.083
328.668
325.656
317.554
307.278
296.64
288.755
287.549
289.344
291.203
291.262
286.286
278.599
270.616
262.919
257.031
252.252
247.521
242.913
238.248
233.644
229.234
224.689
219.886
214.862
209.672
204.882
199.883
192.99
184.816
176.498
171.296
175.443
187.565
201.732
210.724
203.37
180.677
153.193
130.105
123.105
132.406
147.424
160.964
165.923
161.44
153.883
146.574
141.401
138.826
136.716
134.295
131.857
129.409
127.196
125.273
123.412
121.541
119.694
117.844
115.942
113.995
112.041
110.117
108.272
106.528
104.873
103.313
101.869
100.549
99.365
98.324
97.43
96.689
96.112
95.708
95.484
95.444
95.592
95.932
96.465
97.194
98.117
99.233
100.54
102.032
103.705
105.55
107.556
109.713
112.004
114.416
116.931
119.532
122.199
124.914
127.66
130.421
133.18
135.921
138.625
141.273
143.848
146.334
148.716
150.978
153.108
155.095
156.932
158.618
160.15
161.524
162.726
163.736
164.535
165.113
165.464
165.587
165.486
165.171
164.669
164.025
163.29
162.516
161.748
161.026
160.391
159.9
159.63
159.671
160.106
160.999
162.382
164.285
166.717
169.673
173.118
176.949
181.017
185.169
189.262
193.155
196.722
199.765
201.962
203.074
202.978
201.701
199.511
196.693
193.481
190.287
187.726
186.284
186.213
187.355
188.959
190.121
189.934
187.445
181.796
173.418
164.149
155.803
150.266
147.109
144.342
143.711
150.816
175.369
227.824
311.156
419.638
541.573
664.161
779.309
884.623
980.422
1065.651
1137.061
1190.598
1222.111
1229.641
1213.241
1172.868
1110.339
1029.724
935.017
830.27
717.208
593.959
461.291
324.594
195.073
88.793
15.788
-22.603
-33.694
-31.408
-24.771
-16.654
-5.89
11.793
37.229
68.136
101.886
135.359
166.55
194.456
218.288
237.933
253.766
266.12
275.15
281.075
284.447
286.416
288.242
290.522
293.198
295.96
298.536
300.731
302.278
302.49
300.471
295.814
288.563
279.049
267.769
255.109
241.387
227.119
212.972
199.463
186.964
175.657
165.538
156.634
148.986
142.586
137.383
133.286
130.177
127.952
126.528
125.822
125.753
126.208
127.041
128.11
129.275
130.443
131.568
132.613
133.553
134.379
135.097
135.737
136.351
136.981
137.663
138.425
139.292
140.297
141.487
142.904
144.593
146.577
148.865
151.461
154.362
157.556
161.028
164.749
168.681
172.794
177.061
181.452
185.944
190.504
195.101
199.7
204.269
208.775
213.186
217.473
221.605
225.554
229.292
232.795
236.042
239.009
241.673
244.012
246.005
247.631
248.874
249.719
250.151
250.159
249.736
248.877
247.578
245.84
243.666
241.059
238.028
234.58
230.727
226.484
221.864
216.885
211.566
205.928
199.991
193.779
187.315
180.623
173.73
166.659
159.438
152.091
144.644
137.123
129.553
121.96
114.367
106.798
99.275
91.821
84.456
77.2
70.07
63.082
56.252
49.593
43.116
36.832
30.749
24.874
19.214
13.773
8.554
3.559
-1.213
-5.761
-10.087
-14.193
-18.084
-21.764
-25.236
-28.506
-31.58
-34.464
-37.164
-39.686
-42.038
-44.228
-46.262
-48.149
-49.896
-51.511
-53.002
-54.377
-55.643
-56.807
-57.876
-58.857
-59.757
-60.581
-61.335
-62.025
-62.656
-63.232
-63.758
-64.237
-64.673
-65.07
-65.43
-65.757
-66.053
-66.32
-66.562
-66.781
-66.979
-67.16
-67.326
-67.479
-67.621
-67.755
-67.882
-68.004
-68.123
-68.239
-68.353
-68.467
-68.581
-68.696
-68.812
-68.928
-69.045
-69.163
-69.282
-69.4
-69.517
-69.632
-69.746
-69.855
-69.961
-70.061
-70.155
-70.242
-70.319
-70.386
-70.441
-70.481
-70.506
-70.513
-70.499
-70.464
-70.405
-70.32
-70.209
-70.069
-69.901
-69.703
-69.474
-69.216
-68.928
-68.611
-68.267
-67.896
-67.5
-67.083
-66.645
-66.192
-65.724
-65.247
-64.764
-64.278
-63.794
-63.316
-62.848
-62.395
-61.961
-61.551
-61.17
-60.821
-60.511
-60.242
-60.019
-59.847
-59.727
-59.664
-59.661
-59.719
-59.841
-60.027
-60.279
-60.596
-60.978
-61.423
-61.929
-62.493
-63.111
-63.78
-64.494
-65.248
-66.036
-66.852
-67.689
-68.538
-69.393
-70.245
-71.085
-71.903
-72.691
-73.438
-74.136
-74.774
-75.344
-75.835
-76.239
-76.547
-76.751
-76.842
-76.812
-76.654
-76.362
-75.929
-75.35
-74.622
-73.74
-72.703
-71.51
-70.16
-68.655
-66.996
-65.188
-63.233
-61.137
-58.906
-56.549
-54.074
-51.49
-48.808
-46.043
-43.21
-40.325
-37.407
-34.474
-31.546
-28.643
-25.787
-22.995
-20.286
-17.676
-15.184
-12.828
-10.627
-8.6
-6.764
-5.135
-3.728
-2.555
-1.63
-0.96
-0.545
-0.387
-0.487
-0.849
-1.492
-2.427
-3.661
-5.197
-7.032
-9.155
-11.555
-14.205
-17.056
-20.062
-23.168
-26.323
-29.493
-32.631
-35.685
-38.589
-41.253
-43.596
-45.552
-47.06
-48.084
-48.604
-48.616
-48.155
-47.299
-46.14
-44.8
-43.404
-42.068
-40.952
-40.195
-39.969
-40.55
-42.123
-44.788
-48.534
-53.065
-57.994
-63.018
-67.7
-71.436
-73.808
-74.514
-73.642
-72.11
-70.969
-71.035
-73.037
-77.633
-85.259
-95.808
-108.389
-119.985
-125.926
-123.098
-109.377
-83.94
-49.372
-4.951
53.66
129.131
227.706
351.397
491.089
636.368
770.469
874.271
941.184
969.566
963.928
936.85
894.366
838.391
769.898
685.884
586.852
477.281
362.157
247.283
137.291
35.095
-57.149
-137.737
-205.104
-258.401
-297.921
-324.411
-339.117
-343.425
-338.449
-325.667
-307.101
-284.707
-259.738
-233.057
-205.455
-177.887
-151.828
-128.588
-108.533
-91.487
-77.543
-66.886
-59.489
-55.008
-52.24
-49.713
-46.804
-43.427
-39.502
-35.028
-29.974
-24.395
-18.981
-14.672
-11.873
-10.61
-10.684
-11.71
-13.453
-15.725
-18.075
-19.961
-21.001
-20.98
-19.887
-17.843
-14.913
-11.129
-6.559
-1.308
4.486
10.691
17.212
23.967
30.883
37.863
44.777
51.517
58.002
64.177
70.03
75.563
80.773
85.671
90.279
94.628
98.762
102.729
106.559
110.292
113.972
117.645
121.375
125.213
129.194
133.346
137.683
142.216
146.955
151.903
157.049
162.385
167.901
173.585
179.431
185.427
191.556
197.795
204.12
210.505
216.927
223.36
229.777
236.151
242.452
248.653
254.728
260.647
266.381
271.898
277.166
282.153
286.83
291.166
295.133
298.703
301.852
304.556
306.797
308.557
309.82
310.574
310.809
310.517
309.696
308.344
306.461
304.053
301.127
297.693
293.764
289.356
284.485
279.172
273.439
267.308
260.807
253.96
246.798
239.348
231.642
223.711
215.586
207.299
198.884
190.371
181.792
173.18
164.562
155.97
147.43
138.968
130.611
122.38
114.298
106.384
98.656
91.131
83.822
76.741
69.9
63.306
56.965
50.884
45.064
39.507
34.214
29.182
24.409
19.892
15.623
11.599
7.81
4.249
0.906
-2.227
-5.162
-7.91
-10.48
-12.885
-15.136
-17.244
-19.221
-21.077
-22.824
-24.472
-26.03
-27.508
-28.915
-30.259
-31.546
-32.785
-33.98
-35.137
-36.261
-37.355
-38.424
-39.47
-40.495
-41.502
-42.491
-43.465
-44.422
-45.365
-46.293
-47.206
-48.103
-48.983
-49.847
-50.692
-51.517
-52.322
-53.104
-53.861
-54.593
-55.296
-55.969
-56.611
-57.219
-57.792
-58.327
-58.825
-59.283
-59.7
-60.075
-60.407
-60.695
-60.939
-61.138
-61.292
-61.399
-61.46
-61.473
-61.439
-61.357
-61.225
-61.043
-60.81
-60.525
-60.187
-59.793
-59.344
-58.838
-58.274
-57.651
-56.967
-56.222
-55.416
-54.547
-53.614
-52.619
-51.559
-50.436
-49.25
-48
-46.688
-45.314
-43.879
-42.384
-40.831
-39.221
-37.556
-35.838
-34.07
-32.255
-30.397
-28.498
-26.564
-24.6
-22.61
-20.602
-18.581
-16.553
-14.526
-12.508
-10.505
-8.526
-6.579
-4.672
-2.815
-1.014
0.72
2.38
3.957
5.443
6.829
8.106
9.269
10.307
11.215
11.984
12.609
13.082
13.397
13.55
13.536
13.35
12.989
12.453
11.738
10.844
9.773
8.526
7.106
5.515
3.759
1.842
-0.228
-2.445
-4.8
-7.286
-9.891
-12.606
-15.421
-18.322
-21.297
-24.335
-27.42
-30.539
-33.677
-36.819
-39.95
-43.055
-46.118
-49.124
-52.057
-54.903
-57.645
-60.272
-62.768
-65.122
-67.322
-69.357
-71.217
-72.896
-74.386
-75.68
-76.775
-77.668
-78.356
-78.84
-79.12
-79.197
-79.077
-78.764
-78.265
-77.587
-76.741
-75.738
-74.594
-73.326
-71.95
-70.487
-68.957
-67.382
-65.785
-64.188
-62.61
-61.073
-59.595
-58.196
-56.898
-55.722
-54.687
-53.811
-53.111
-52.599
-52.29
-52.193
-52.308
-52.636
-53.177
-53.936
-54.924
-56.157
-57.638
-59.368
-61.342
-63.545
-65.955
-68.538
-71.239
-73.999
-76.759
-79.461
-82.061
-84.515
-86.768
-88.756
-90.396
-91.602
-92.307
-92.458
-92.021
-90.996
-89.409
-87.327
-84.862
-82.127
-79.26
-76.393
-73.645
-71.146
-69.026
-67.424
-66.566
-66.732
-68.077
-70.656
-74.35
-78.778
-83.54
-88.195
-92.049
-94.349
-94.626
-92.613
-88.523
-83.359
-78.21
-74.079
-72.351
-73.097
-74.704
-76.211
-75.974
-74.325
-74.87
-77.074
-77.04
-66.088
-30.444
37.601
138.279
264.601
402.995
540.117
664.794
769.27
848.202
900.073
927.796
933.416
919.776
887.582
833.286
756.196
657.705
541.108
412.746
278.176
141.731
7.532
-120.624
-239.308
-345.331
-436.26
-510.672
-567.812
-607.754
-631.104
-638.843
-632.342
-613.443
-584.362
-547.597
-505.793
-461.083
-415.641
-371.957
-332.256
-298.357
-271.257
-250.895
-236.667
-228.007
-223.866
-222.574
-222.278
-221.053
-217.74
-212.162
-204.526
-195.156
-184.616
-173.692
-163.422
-155.025
-149.163
-145.872
-144.957
-146.026
-148.681
-152.555
-157.107
-161.659
-165.751
-169.14
-171.694
-173.411
-174.279
-174.258
-173.39
-171.785
-169.542
-166.757
-163.506
-159.839
-155.816
-151.516
-147.017
-142.409
-137.779
-133.204
-128.766
-124.557
-120.637
-117.046
-113.794
-110.861
-108.213
-105.816
-103.619
-101.568
-99.61
-97.694
-95.774
-93.811
-91.762
-89.58
-87.219
-84.624
-81.752
-78.578
-75.082
-71.256
-67.101
-62.618
-57.82
-52.729
-47.365
-41.749
-35.901
-29.836
-23.578
-17.152
-10.588
-3.919
2.822
9.605
16.395
23.157
29.858
36.462
42.938
49.256
55.383
61.287
66.936
72.299
77.345
82.048
86.38
90.317
93.836
96.917
99.545
101.706
103.39
104.587
105.294
105.507
105.227
104.458
103.206
101.481
99.293
96.657
93.59
90.111
86.242
82.006
77.429
72.538
67.363
61.934
56.282
50.44
44.44
38.315
32.099
25.824
19.524
13.231
6.975
0.788
-5.302
-11.265
-17.076
-22.71
-28.143
-33.353
-38.321
-43.028
-47.46
-51.602
-55.442
-58.972
-62.182
-65.068
-67.627
-69.856
-71.758
-73.335
-74.591
-75.534
-76.171
-76.515
-76.575
-76.366
-75.903
-75.201
-74.276
-73.147
-71.83
-70.346
-68.711
-66.946
-65.07
-63.1
-61.057
-58.959
-56.824
-54.669
-52.512
-50.369
-48.256
-46.188
-44.178
-42.24
-40.385
-38.625
-36.97
-35.429
-34.01
-32.719
-31.563
-30.545
-29.669
-28.936
-28.348
-27.904
-27.604
-27.444
-27.421
-27.533
-27.773
-28.138
-28.621
-29.216
-29.916
-30.714
-31.603
-32.575
-33.622
-34.737
-35.91
-37.134
-38.401
-39.702
-41.029
-42.373
-43.728
-45.084
-46.434
-47.771
-49.085
-50.371
-51.621
-52.829
-53.987
-55.091
-56.134
-57.112
-58.02
-58.854
-59.611
-60.288
-60.882
-61.39
-61.812
-62.144
-62.386
-62.537
-62.597
-62.564
-62.441
-62.227
-61.923
-61.53
-61.05
-60.485
-59.838
-59.11
-58.303
-57.419
-56.458
-55.426
-54.333
-53.182
-51.974
-50.723
-49.435
-48.122
-46.806
-45.48
-44.121
-42.733
-41.318
-39.854
-38.352
-36.803
-35.163
-33.476
-31.845
-30.292
-28.831
-27.576
-26.587
-25.771
-25.216
-24.866
-24.174
-23.826
-24.619
-25.496
-26.452
-25.031
-17.269
-6.075
5.339
11.864
5.212
-11.177
-29.876
-44.228
-44.385
-32.147
-16.146
-1.889
3.846
0.99
-4.593
-10.115
-13.369
-13.847
-13.743
-13.799
-13.847
-13.98
-13.892
-13.497
-13.062
-12.665
-12.256
-11.855
-11.49
-11.135
-10.763
-10.348
-9.835
-9.208
-8.485
-7.664
-6.737
-5.703
-4.557
-3.298
-1.932
-0.457
1.131
2.834
4.653
6.588
8.637
10.8
13.073
15.455
17.942
20.53
23.213
25.987
28.845
31.781
34.788
37.858
40.984
44.155
47.363
50.596
53.845
57.096
60.336
63.549
66.72
69.833
72.875
75.829
78.677
81.403
83.987
86.416
88.677
90.755
92.637
94.306
95.75
96.96
97.931
98.659
99.14
99.365
99.328
99.034
98.491
97.708
96.692
95.439
93.941
92.201
90.227
88.031
85.629
83.032
80.254
77.334
74.314
71.253
68.214
65.234
62.344
59.565
56.912
54.442
52.233
50.359
48.887
47.848
47.219
47.009
47.253
47.878
48.741
49.536
49.791
49.24
47.842
45.616
42.579
38.708
34.019
28.989
24.648
21.806
20.833
21.685
24.06
27.927
33.279
39.39
44.61
47.112
45.515
39.273
28.587
13.539
-5.518
-27.192
-48.893
-67.099
-77.882
-77.747
-64.067
-34.173
13.166
76.891
156.452
250.474
357.345
477.066
603.778
726.712
834.907
915.716
964.389
984.424
979.098
953.736
910.042
845.764
762.819
663.142
549.792
428.094
300.167
171.263
50.076
-56.032
-138.54
-195.215
-231.385
-252.591
-265.594
-273.563
-274.396
-267.353
-252.549
-231.432
-207.468
-182.344
-156.379
-129.901
-103.217
-77.27
-53.117
-31.289
-12.017
4.199
16.853
25.82
31.306
34.139
35.149
34.583
33.646
33.756
34.644
36.488
37.247
34.211
30.123
26.956
27.592
35.533
46.525
57.104
65.003
66.779
64.67
60.801
55.543
50.679
46.085
41.248
36.758
32.71
29.299
26.982
25.787
25.501
25.879
26.695
27.81
29.199
30.9
32.865
35.043
37.432
40.018
42.778
45.646
48.543
51.393
54.161
56.845
59.453
62
64.503
66.987
69.472
71.98
74.526
77.117
79.767
82.501
85.353
88.366
91.574
94.994
98.637
102.505
106.59
110.881
115.356
119.982
124.733
129.585
134.517
139.509
144.536
149.57
154.58
159.536
164.405
169.155
173.75
178.159
182.354
186.31
190.003
193.404
196.493
199.263
201.703
203.805
205.552
206.903
207.839
208.367
208.46
208.058
207.114
205.581
203.451
200.789
197.621
193.884
189.652
185.189
180.567
175.724
170.71
165.283
159.933
156.252
153.983
151.688
147.072
135.709
117.745
97.718
80.094
71.214
71.716
75.616
78.282
74.772
64.077
50.706
37.489
26.304
17.806
10.198
2.632
-4.801
-12.152
-19.136
-25.657
-31.952
-38.089
-44.015
-49.729
-55.237
-60.527
-65.585
-70.388
-74.896
-79.096
-83.014
-86.66
-90.039
-93.158
-96.025
-98.65
-101.047
-103.229
-105.205
-106.984
-108.577
-109.996
-111.254
-112.363
-113.335
-114.181
-114.914
-115.546
-116.089
-116.553
-116.95
-117.291
-117.586
-117.844
-118.075
-118.286
-118.486
-118.68
-118.877
-119.079
-119.292
-119.519
-119.763
-120.025
-120.306
-120.608
-120.929
-121.27
-121.629
-122.006
-122.399
-122.807
-123.227
-123.657
-124.095
-124.54
-124.987
-125.434
-125.88
-126.32
-126.752
-127.174
-127.581
-127.972
-128.343
-128.691
-129.015
-129.31
-129.575
-129.808
-130.007
-130.171
-130.299
-130.391
-130.446
-130.465
-130.45
-130.4
-130.317
-130.203
-130.059
-129.888
-129.69
-129.469
-129.227
-128.964
-128.685
-128.391
-128.084
-127.767
-127.442
-127.111
-126.776
-126.441
-126.106
-125.774
-125.449
-125.132
-124.826
-124.533
-124.256
-123.997
-123.758
-123.541
-123.348
-123.18
-123.038
-122.923
-122.836
-122.777
-122.748
-122.747
-122.776
-122.835
-122.923
-123.04
-123.187
-123.363
-123.568
-123.802
-124.065
-124.357
-124.677
-125.027
-125.405
-125.813
-126.249
-126.714
-127.208
-127.731
-128.282
-128.86
-129.466
-130.098
-130.757
-131.441
-132.15
-132.883
-133.64
-134.419
-135.22
-136.042
-136.883
-137.743
-138.62
-139.514
-140.422
-141.342
-142.273
-143.213
-144.158
-145.107
-146.055
-147.001
-147.94
-148.868
-149.783
-150.678
-151.551
-152.396
-153.208
-153.983
-154.714
-155.398
-156.027
-156.597
-157.101
-157.536
-157.896
-158.175
-158.368
-158.472
-158.481
-158.39
-158.196
-157.894
-157.481
-156.952
-156.305
-155.539
-154.651
-153.639
-152.503
-151.243
-149.86
-148.355
-146.73
-144.988
-143.131
-141.165
-139.094
-136.926
-134.665
-132.322
-129.906
-127.428
-124.904
-122.345
-119.766
-117.181
-114.606
-112.054
-109.542
-107.082
-104.686
-102.37
-100.146
-98.03
-96.037
-94.182
-92.478
-90.936
-89.565
-88.373
-87.367
-86.548
-85.916
-85.473
-85.22
-85.168
-85.327
-85.697
-86.276
-87.059
-88.029
-89.164
-90.438
-91.801
-93.21
-94.623
-95.994
-97.295
-98.488
-99.522
-100.355
-100.928
-101.184
-101.095
-100.606
-99.674
-98.304
-96.511
-94.354
-91.96
-89.367
-86.61
-83.872
-81.295
-79.067
-77.437
-76.4
-75.964
-76.402
-77.871
-80.227
-83.239
-86.266
-88.594
-90.145
-90.73
-89.783
-87.009
-82.416
-76.469
-70.63
-66.218
-63.561
-63.135
-65.415
-70.425
-78.146
-86.491
-91.747
-91.683
-83.942
-68.116
-44.367
-7.93
44.434
115.293
205.422
306.579
411.91
516.347
614.434
706.838
789.658
854.041
893.124
898.091
867.58
808.572
727.416
633.08
531.244
422.109
308.409
192.706
78.085
-29.372
-125.491
-208.271
-275.952
-328.438
-366.937
-392.004
-404.665
-406.857
-400.065
-386.085
-367.322
-345.487
-321.454
-296.322
-271.041
-246.574
-224.525
-205.699
-189.891
-176.965
-166.949
-159.681
-154.944
-151.919
-148.922
-144.947
-139.856
-133.681
-126.663
-119.079
-111.048
-103.129
-96.435
-91.617
-88.851
-88.107
-89.018
-91.254
-94.668
-98.917
-103.49
-108.04
-112.286
-116.053
-119.335
-122.067
-124.166
-125.621
-126.434
-126.633
-126.28
-125.419
-124.087
-122.349
-120.249
-117.833
-115.152
-112.243
-109.164
-105.982
-102.76
-99.577
-96.493
-93.538
-90.737
-88.089
-85.572
-83.16
-80.816
-78.489
-76.138
-73.728
-71.222
-68.598
-65.822
-62.859
-59.669
-56.205
-52.432
-48.326
-43.871
-39.059
-33.893
-28.379
-22.534
-16.384
-9.954
-3.271
3.64
10.756
18.05
25.487
33.034
40.65
48.298
55.939
63.534
71.043
78.426
85.646
92.666
99.452
105.97
112.186
118.066
123.577
128.689
133.373
137.603
141.354
144.606
147.34
149.544
151.206
152.321
152.883
152.893
152.353
151.27
149.654
147.519
144.88
141.758
138.173
134.152
129.722
124.912
119.754
114.281
108.527
102.53
96.325
89.95
83.442
76.84
70.18
63.501
56.837
50.226
43.701
37.295
31.04
24.965
19.099
13.465
8.089
2.99
-1.812
-6.301
-10.463
-14.288
-17.765
-20.888
-23.654
-26.061
-28.109
-29.802
-31.144
-32.144
-32.808
-33.149
-33.177
-32.907
-32.352
-31.529
-30.453
-29.141
-27.612
-25.883
-23.972
-21.898
-19.679
-17.332
-14.876
-12.326
-9.7
-7.013
-4.281
-1.518
1.261
4.045
6.819
9.573
12.297
14.98
17.614
20.191
22.703
25.145
27.51
29.793
31.989
34.095
36.107
38.021
39.835
41.545
43.149
44.646
46.033
47.307
48.468
49.513
50.44
51.246
51.93
52.489
52.922
53.225
53.397
53.436
53.34
53.107
52.736
52.225
51.574
50.782
49.848
48.773
47.558
46.203
44.71
43.082
41.321
39.432
37.418
35.286
33.04
30.688
28.236
25.692
23.066
20.365
17.599
14.78
11.917
9.022
6.106
3.182
0.261
-2.644
-5.521
-8.357
-11.141
-13.861
-16.506
-19.063
-21.524
-23.877
-26.114
-28.225
-30.203
-32.041
-33.732
-35.273
-36.658
-37.884
-38.951
-39.856
-40.601
-41.185
-41.612
-41.884
-42.005
-41.98
-41.813
-41.513
-41.085
-40.538
-39.88
-39.119
-38.266
-37.33
-36.32
-35.247
-34.121
-32.952
-31.75
-30.526
-29.289
-28.05
-26.816
-25.598
-24.403
-23.24
-22.114
-21.034
-20.004
-19.029
-18.114
-17.261
-16.475
-15.757
-15.108
-14.529
-14.02
-13.58
-13.208
-12.901
-12.657
-12.471
-12.341
-12.261
-12.227
-12.234
-12.275
-12.345
-12.438
-12.545
-12.66
-12.774
-12.879
-12.967
-13.03
-13.059
-13.046
-12.983
-12.862
-12.676
-12.417
-12.078
-11.652
-11.133
-10.513
-9.788
-8.952
-8
-6.929
-5.734
-4.415
-2.968
-1.393
0.311
2.144
4.105
6.191
8.402
10.731
13.176
15.729
18.383
21.129
23.952
26.84
29.779
32.753
35.745
38.738
41.714
44.655
47.547
50.374
53.119
55.765
58.293
60.684
62.918
64.978
66.845
68.503
69.937
71.133
72.085
72.789
73.237
73.42
73.315
72.904
72.177
71.125
69.747
68.051
66.051
63.775
61.274
58.601
55.81
52.948
50.052
47.162
44.326
41.6
39.059
36.77
34.788
33.176
31.964
31.139
30.674
30.496
30.485
30.562
30.616
30.49
30.092
29.349
28.173
26.512
24.211
20.99
16.684
11.321
4.995
-2.173
-9.843
-17.519
-24.673
-30.387
-34.577
-38.547
-42.358
-45.331
-45.801
-40.014
-28.964
-17.848
-11.86
-16.9
-30.585
-44.351
-51.609
-46.07
-28.334
-0.773
40.08
97.604
176.75
277.926
392.309
510.346
622.55
722.509
808.787
879.151
930.846
960.911
966.31
946.335
901.552
833.789
746.621
644.055
531.14
413.825
296.924
184.776
81.978
-8.89
-85.923
-146.374
-190.368
-217.494
-226.901
-223.036
-209.631
-191.436
-174.785
-159.059
-142.753
-124.725
-102.685
-79.622
-59.037
-42.114
-29.82
-20.903
-14.335
-10.354
-8.804
-9.158
-10.145
-10.68
-10.563
-9.938
-9.023
-7.944
-6.664
-5.522
-5.421
-6.928
-10.131
-14.863
-20.631
-26.967
-33.636
-40.291
-46.432
-51.716
-55.886
-58.806
-60.549
-61.196
-60.781
-59.391
-57.116
-54.036
-50.291
-46.024
-41.375
-36.515
-31.564
-26.601
-21.702
-16.924
-12.319
-7.93
-3.759
0.216
4.013
7.643
11.112
14.428
17.632
20.775
23.914
27.113
30.413
33.843
37.433
41.206
45.175
49.351
53.727
58.289
63.032
67.952
73.045
78.31
83.734
89.301
94.994
100.793
106.679
112.629
118.621
124.63
130.634
136.61
142.536
148.39
154.149
159.785
165.272
170.581
175.685
180.556
185.167
189.489
193.497
197.168
200.478
203.407
205.936
208.048
209.726
210.958
211.732
212.038
211.87
211.223
210.095
208.487
206.404
203.849
200.834
197.368
193.467
189.146
184.422
179.317
173.85
168.047
161.93
155.527
148.863
141.966
134.865
127.587
120.163
112.62
104.988
97.294
89.566
81.83
74.114
66.441
58.836
51.323
43.922
36.655
29.541
22.597
15.839
9.283
2.939
-3.179
-9.065
-14.709
-20.107
-25.254
-30.147
-34.786
-39.171
-43.303
-47.184
-50.818
-54.21
-57.363
-60.285
-62.981
-65.458
-67.723
-69.783
-71.646
-73.318
-74.808
-76.123
-77.27
-78.258
-79.094
-79.785
-80.338
-80.76
-81.057
-81.236
-81.303
-81.263
-81.121
-80.882
-80.549
-80.127
-79.619
-79.028
-78.357
-77.608
-76.784
-75.887
-74.919
-73.883
-72.781
-71.617
-70.392
-69.11
-67.775
-66.389
-64.959
-63.486
-61.976
-60.434
-58.865
-57.272
-55.662
-54.04
-52.411
-50.78
-49.153
-47.536
-45.934
-44.352
-42.797
-41.273
-39.786
-38.341
-36.943
-35.597
-34.307
-33.077
-31.912
-30.815
-29.789
-28.836
-27.957
-27.155
-26.429
-25.779
-25.204
-24.703
-24.273
-23.913
-23.619
-23.388
-23.217
-23.1
-23.034
-23.014
-23.034
-23.091
-23.177
-23.289
-23.42
-23.566
-23.721
-23.879
-24.036
-24.187
-24.327
-24.452
-24.557
-24.639
-24.695
-24.721
-24.716
-24.678
-24.605
-24.499
-24.358
-24.185
-23.98
-23.745
-23.484
-23.198
-22.891
-22.566
-22.227
-21.879
-21.524
-21.168
-20.815
-20.469
-20.135
-19.818
-19.522
-19.251
-19.01
-18.803
-18.633
-18.506
-18.424
-18.392
-18.411
-18.485
-18.616
-18.806
-19.056
-19.366
-19.736
-20.164
-20.65
-21.191
-21.786
-22.43
-23.121
-23.855
-24.628
-25.436
-26.275
-27.14
-28.026
-28.928
-29.842
-30.762
-31.684
-32.603
-33.513
-34.41
-35.288
-36.144
-36.97
-37.763
-38.516
-39.224
-39.883
-40.488
-41.033
-41.516
-41.932
-42.278
-42.552
-42.751
-42.873
-42.916
-42.88
-42.762
-42.561
-42.278
-41.91
-41.459
-40.925
-40.307
-39.606
-38.824
-37.959
-37.014
-35.99
-34.887
-33.707
-32.452
-31.124
-29.726
-28.262
-26.737
-25.154
-23.519
-21.838
-20.117
-18.363
-16.582
-14.781
-12.966
-11.145
-9.327
-7.52
-5.734
-3.978
-2.265
-0.607
0.981
2.484
3.889
5.18
6.345
7.369
8.236
8.935
9.449
9.766
9.872
9.753
9.394
8.783
7.91
6.769
5.36
3.682
1.735
-0.476
-2.948
-5.676
-8.652
-11.877
-15.347
-19.051
-22.976
-27.104
-31.405
-35.847
-40.388
-44.977
-49.571
-54.124
-58.59
-62.934
-67.101
-71.043
-74.71
-78.055
-81.054
-83.676
-85.875
-87.608
-88.847
-89.603
-89.972
-90.037
-89.808
-89.372
-88.865
-88.549
-88.888
-90.133
-92.273
-95.319
-99.283
-104.056
-109.455
-114.752
-118.567
-119.991
-118.666
-114.426
-107.442
-97.942
-86.246
-73.82
-63.232
-56.443
-54.625
-58.378
-67.344
-80.982
-98.573
-116.749
-130.78
-137.322
-132.46
-115.018
-85.075
-39.022
23.939
104.389
203.243
316.024
439.413
567.812
689.796
793.291
865.775
900.338
899.118
870.254
823.198
762.905
689.862
602.582
500.878
388.011
269.61
151.134
36.598
-70.599
-167.958
-253.646
-325.635
-382.808
-425.491
-454.07
-469.257
-472.531
-465.139
-448.613
-425.333
-397.476
-366.341
-333.099
-298.88
-264.741
-232.345
-203.151
-177.486
-155.195
-136.392
-121.144
-109.311
-100.428
-93.124
-85.861
-78.019
-69.544
-60.459
-50.9
-41.01
-31.04
-21.851
-14.493
-9.429
-6.706
-6.132
-7.337
-10.068
-14.112
-18.986
-24.078
-28.968
-33.381
-37.2
-40.424
-42.964
-44.717
-45.664
-45.846
-45.341
-44.23
-42.563
-40.374
-37.709
-34.631
-31.22
-27.569
-23.747
-19.822
-15.86
-11.93
-8.126
-4.515
-1.127
2.028
4.985
7.78
10.443
13.018
15.546
18.06
20.614
23.257
25.984
28.802
31.731
34.793
38.069
41.632
45.478
49.567
53.989
58.863
64.088
69.611
75.404
81.155
87.547
95.287
103.334
111.324
117.314
119.031
118.961
118.736
121.014
129.372
140.599
152.11
162.17
167.43
170.712
175.014
179.66
185.527
189.976
188.745
183.942
178.261
174.761
179.237
190.555
203.237
213.684
216.185
209.446
198.772
187.199
177.873
172.985
169.462
165.466
160.473
153.305
144.999
136.451
127.428
118.169
108.672
98.767
88.647
78.492
68.369
58.427
48.788
39.484
30.514
21.843
13.44
5.295
-2.579
-10.175
-17.494
-24.534
-31.275
-37.677
-43.72
-49.394
-54.713
-59.713
-64.41
-68.801
-72.874
-76.604
-79.974
-82.983
-85.622
-87.882
-89.763
-91.271
-92.426
-93.26
-93.801
-94.069
-94.084
-93.86
-93.416
-92.777
-91.968
-91.013
-89.939
-88.77
-87.532
-86.253
-84.958
-83.666
-82.395
-81.159
-79.969
-78.84
-77.782
-76.806
-75.921
-75.134
-74.453
-73.884
-73.434
-73.104
-72.897
-72.812
-72.847
-73.001
-73.268
-73.645
-74.125
-74.7
-75.364
-76.108
-76.923
-77.8
-78.73
-79.703
-80.709
-81.738
-82.781
-83.827
-84.868
-85.895
-86.899
-87.873
-88.811
-89.707
-90.555
-91.352
-92.094
-92.777
-93.4
-93.959
-94.454
-94.884
-95.249
-95.55
-95.787
-95.964
-96.082
-96.146
-96.159
-96.126
-96.05
-95.938
-95.794
-95.624
-95.434
-95.229
-95.015
-94.799
-94.585
-94.381
-94.192
-94.022
-93.878
-93.762
-93.68
-93.634
-93.628
-93.664
-93.743
-93.868
-94.039
-94.257
-94.522
-94.835
-95.194
-95.598
-96.046
-96.536
-97.064
-97.629
-98.227
-98.854
-99.507
-100.181
-100.873
-101.578
-102.291
-103.009
-103.725
-104.435
-105.135
-105.818
-106.481
-107.118
-107.726
-108.3
-108.838
-109.334
-109.787
-110.195
-110.554
-110.864
-111.122
-111.328
-111.481
-111.58
-111.625
-111.618
-111.558
-111.447
-111.287
-111.079
-110.826
-110.531
-110.196
-109.823
-109.416
-108.978
-108.512
-108.021
-107.508
-106.978
-106.434
-105.879
-105.317
-104.751
-104.185
-103.621
-103.062
-102.509
-101.966
-101.433
-100.911
-100.4
-99.902
-99.416
-98.941
-98.477
-98.022
-97.575
-97.133
-96.695
-96.255
-95.812
-95.362
-94.9
-94.424
-93.928
-93.41
-92.866
-92.291
-91.682
-91.036
-90.348
-89.615
-88.834
-88.001
-87.115
-86.172
-85.173
-84.116
-83.001
-81.829
-80.603
-79.327
-78.006
-76.646
-75.254
-73.839
-72.409
-70.974
-69.546
-68.132
-66.743
-65.388
-64.079
-62.827
-61.645
-60.546
-59.544
-58.65
-57.876
-57.234
-56.731
-56.374
-56.165
-56.109
-56.212
-56.489
-56.952
-57.61
-58.47
-59.536
-60.802
-62.257
-63.875
-65.618
-67.445
-69.314
-71.188
-73.034
-74.822
-76.515
-78.072
-79.435
-80.547
-81.358
-81.821
-81.9
-81.588
-80.904
-79.906
-78.697
-77.379
-76.042
-74.78
-73.686
-72.87
-72.455
-72.55
-73.26
-74.727
-77.149
-80.668
-85.283
-90.763
-96.668
-102.527
-107.882
-112.205
-114.868
-115.382
-113.633
-110.148
-105.926
-101.832
-98.701
-97.357
-98.331
-102.034
-107.431
-111.225
-110.936
-104.87
-92.396
-75.512
-51.777
-14.859
40.475
119.614
220.235
332.005
445.178
549.894
640.223
715.281
773.159
812.14
830.366
825.6
797.928
748.378
678.995
593.474
495.576
389.356
279.385
169.231
61.999
-38.769
-130.122
-209.721
-275.52
-326.629
-363.288
-385.754
-394.524
-390.701
-375.724
-351.686
-321.278
-286.895
-250.271
-213.112
-177.26
-144.654
-116.99
-94.983
-78.296
-66.285
-58.552
-54.48
-52.97
-52.561
-51.667
-49.29
-45.656
-40.595
-32.756
-22.755
-12.299
-4.213
-4.631
-14.382
-28.119
-40.903
-44.17
-35.098
-21.807
-10.02
-6.547
-15.138
-28.105
-40.138
-47.697
-47.387
-43.131
-37.924
-32.31
-27.782
-23.435
-18.327
-12.932
-7.268
-1.451
4.198
9.646
14.903
19.889
24.583
29.035
33.251
37.198
40.881
44.327
47.554
50.62
53.571
56.422
59.207
61.974
64.775
67.675
70.724
73.946
77.363
80.988
84.83
88.899
93.194
97.698
102.398
107.286
112.35
117.586
122.98
128.514
134.166
139.915
145.736
151.607
157.503
163.397
169.263
175.073
180.801
186.423
191.91
197.233
202.363
207.268
211.92
216.287
220.343
224.057
227.404
230.359
232.901
235.008
236.665
237.853
238.561
238.776
238.491
237.7
236.399
234.587
232.266
229.443
226.123
222.318
218.04
213.306
208.132
202.541
196.553
190.194
183.49
176.468
169.158
161.591
153.797
145.809
137.661
129.384
121.013
112.58
104.118
95.658
87.232
78.869
70.599
62.45
54.446
46.614
38.977
31.557
24.373
17.444
10.787
4.415
-1.66
-7.427
-12.878
-18.007
-22.811
-27.286
-31.434
-35.257
-38.756
-41.939
-44.812
-47.384
-49.663
-51.662
-53.39
-54.862
-56.09
-57.087
-57.868
-58.447
-58.838
-59.057
-59.117
-59.034
-58.821
-58.494
-58.065
-57.548
-56.957
-56.303
-55.598
-54.853
-54.078
-53.282
-52.475
-51.663
-50.853
-50.051
-49.261
-48.487
-47.732
-46.998
-46.286
-45.597
-44.93
-44.286
-43.663
-43.061
-42.477
-41.91
-41.359
-40.821
-40.294
-39.777
-39.266
-38.76
-38.257
-37.753
-37.248
-36.739
-36.223
-35.701
-35.169
-34.627
-34.074
-33.509
-32.931
-32.341
-31.739
-31.126
-30.504
-29.873
-29.238
-28.599
-27.96
-27.324
-26.694
-26.073
-25.465
-24.872
-24.298
-23.745
-23.218
-22.717
-22.248
-21.81
-21.409
-21.044
-20.719
-20.435
-20.194
-19.998
-19.848
-19.745
-19.69
-19.683
-19.726
-19.818
-19.958
-20.146
-20.382
-20.662
-20.986
-21.351
-21.753
-22.19
-22.659
-23.155
-23.674
-24.212
-24.766
-25.331
-25.902
-26.476
-27.049
-27.616
-28.174
-28.72
-29.249
-29.758
-30.245
-30.705
-31.136
-31.535
-31.899
-32.227
-32.514
-32.761
-32.964
-33.122
-33.235
-33.303
-33.324
-33.3
-33.23
-33.117
-32.962
-32.768
-32.536
-32.27
-31.973
-31.649
-31.302
-30.934
-30.552
-30.157
-29.753
-29.345
-28.935
-28.526
-28.123
-27.727
-27.341
-26.969
-26.613
-26.276
-25.959
-25.665
-25.396
-25.152
-24.935
-24.745
-24.581
-24.444
-24.333
-24.245
-24.181
-24.136
-24.108
-24.094
-24.09
-24.091
-24.092
-24.087
-24.072
-24.041
-23.987
-23.907
-23.795
-23.646
-23.457
-23.223
-22.94
-22.606
-22.218
-21.774
-21.271
-20.707
-20.084
-19.4
-18.658
-17.859
-17.005
-16.102
-15.157
-14.179
-13.174
-12.154
-11.129
-10.111
-9.112
-8.146
-7.221
-6.35
-5.543
-4.814
-4.176
-3.646
-3.237
-2.963
-2.836
-2.866
-3.064
-3.436
-3.984
-4.707
-5.607
-6.69
-7.973
-9.471
-11.192
-13.139
-15.311
-17.694
-20.271
-23.012
-25.868
-28.787
-31.721
-34.624
-37.465
-40.211
-42.817
-45.228
-47.369
-49.166
-50.561
-51.504
-51.965
-51.951
-51.487
-50.643
-49.531
-48.247
-46.9
-45.614
-44.49
-43.651
-43.217
-43.292
-44.056
-45.768
-48.567
-52.448
-57.223
-62.446
-67.663
-72.462
-76.242
-78.3
-78.185
-75.848
-71.795
-67.026
-62.636
-59.609
-58.845
-61.226
-66.241
-71.774
-75.439
-74.786
-69.863
-62.601
-51.89
-33.375
1.766
63.753
155.018
271.47
402.081
530.658
647.377
744.793
818.14
870.752
902.467
914.467
911.169
888.263
842.783
771.596
669.178
541.454
399.74
258.86
135.447
36.135
-40.287
-100.845
-153.869
-201.801
-242.715
-271.892
-285.631
-284.232
-270.708
-249.367
-223.714
-196.005
-167.735
-140.138
-115.032
-94.117
-78.068
-66.865
-59.903
-56.049
-54.37
-53.895
-53.088
-50.568
-45.612
-37.951
-27.913
-16.356
-4.046
8.204
19.318
28.522
35.431
39.869
42.034
42.345
41.193
39.084
36.571
33.981
31.513
29.308
27.421
25.963
25.07
24.77
25.055
25.919
27.352
29.361
31.942
35.025
38.505
42.273
46.249
50.398
54.689
59.07
63.465
67.764
71.879
75.768
79.396
82.746
85.803
88.557
91.022
93.243
95.273
97.16
98.939
100.629
102.253
103.846
105.451
107.119
108.891
110.791
112.843
115.067
117.476
120.084
122.892
125.884
129.048
132.373
135.851
139.473
143.228
147.098
151.063
155.102
159.193
163.316
167.447
171.559
175.627
179.624
183.525
187.311
190.959
194.445
197.744
200.827
203.665
206.241
208.527
210.486
212.088
213.301
214.096
214.486
214.478
214.048
213.215
212.024
210.487
208.645
206.531
204.065
201.175
197.899
194.141
189.658
184.46
178.662
172.178
165.359
158.063
148.766
137.612
126.181
116.476
113.576
119.247
128.472
135.394
131.202
110.387
79.606
48.177
25.684
19.977
26.628
36.645
43.533
41.405
31.47
19.252
7.398
-2.043
-8.849
-14.98
-20.965
-26.661
-32.164
-37.18
-41.638
-45.8
-49.746
-53.459
-56.995
-60.386
-63.608
-66.651
-69.504
-72.13
-74.53
-76.734
-78.752
-80.591
-82.267
-83.788
-85.169
-86.427
-87.572
-88.612
-89.556
-90.412
-91.191
-91.899
-92.545
-93.136
-93.678
-94.176
-94.635
-95.058
-95.45
-95.813
-96.149
-96.455
-96.733
-96.986
-97.217
-97.429
-97.623
-97.792
-97.933
-98.053
-98.148
-98.2
-98.186
-98.075
-97.856
-97.558
-97.196
-96.754
-96.251
-95.737
-95.276
-94.962
-94.83
-94.786
-94.761
-94.792
-94.785
-94.455
-93.659
-92.355
-90.533
-88.671
-86.225
-81.218
-73.328
-63.889
-56.865
-59.538
-74.368
-96.277
-116.281
-121.949
-107.59
-80.808
-52.857
-35.847
-36.579
-48.509
-62.961
-73.398
-75.392
-72.413
-68.644
-65.443
-64.096
-63.555
-62.626
-61.656
-60.747
-60.009
-59.622
-59.459
-59.406
-59.478
-59.641
-59.814
-59.96
-60.084
-60.204
-60.339
-60.503
-60.679
-60.853
-61.028
-61.203
-61.372
-61.526
-61.656
-61.755
-61.817
-61.84
-61.82
-61.753
-61.634
-61.46
-61.229
-60.939
-60.588
-60.175
-59.7
-59.163
-58.567
-57.912
-57.202
-56.439
-55.629
-54.775
-53.882
-52.957
-52.006
-51.034
-50.047
-49.053
-48.058
-47.069
-46.092
-45.133
-44.2
-43.299
-42.435
-41.615
-40.843
-40.123
-39.461
-38.859
-38.32
-37.846
-37.439
-37.098
-36.826
-36.62
-36.481
-36.407
-36.394
-36.441
-36.542
-36.694
-36.891
-37.126
-37.394
-37.686
-37.997
-38.318
-38.642
-38.961
-39.268
-39.555
-39.816
-40.042
-40.228
-40.368
-40.458
-40.492
-40.469
-40.387
-40.246
-40.045
-39.791
-39.487
-39.139
-38.756
-38.345
-37.916
-37.481
-37.05
-36.634
-36.243
-35.89
-35.588
-35.35
-35.192
-35.128
-35.177
-35.352
-35.669
-36.143
-36.787
-37.606
-38.609
-39.802
-41.193
-42.796
-44.622
-46.678
-48.969
-51.499
-54.26
-57.241
-60.419
-63.75
-67.195
-70.708
-74.249
-77.786
-81.28
-84.69
-87.969
-91.06
-93.907
-96.464
-98.678
-100.505
-101.926
-102.946
-103.604
-103.99
-104.181
-104.248
-104.274
-104.332
-104.505
-104.899
-105.614
-106.747
-108.45
-110.904
-114.234
-118.502
-123.61
-129.251
-135.034
-140.493
-145.021
-147.972
-148.908
-147.565
-144.003
-138.945
-133.334
-128.18
-124.899
-123.845
-123.852
-124.154
-123.469
-122.376
-124.386
-129.226
-133.273
-127.688
-98.171
-37.23
54.902
170.095
292.29
409.94
516.963
610.753
692.746
761.356
812.478
842.413
847.584
827.144
782.411
715.317
629.045
527.455
414.606
295.394
174.778
57.053
-53.458
-152.995
-238.996
-309.577
-363.703
-401.948
-425.823
-436.999
-437.858
-430.728
-417.244
-399.354
-379.003
-357.006
-333.615
-309.253
-284.03
-258.501
-234.07
-211.312
-190.218
-171.349
-155.244
-142.103
-132.131
-124.672
-118.155
-111.846
-105.609
-99.174
-92.56
-85.783
-78.739
-71.967
-66.515
-62.905
-61.268
-61.556
-63.406
-66.58
-70.957
-76.156
-81.623
-86.908
-91.685
-95.768
-99.121
-101.698
-103.434
-104.315
-104.381
-103.702
-102.354
-100.412
-97.935
-94.964
-91.557
-87.779
-83.697
-79.41
-75.015
-70.601
-66.261
-62.066
-58.052
-54.248
-50.657
-47.253
-44.008
-40.882
-37.821
-34.788
-31.752
-28.676
-25.53
-22.269
-18.839
-15.192
-11.282
-7.069
-2.538
2.317
7.485
12.931
18.612
24.494
30.538
36.723
43.046
49.495
56.069
62.767
69.567
76.451
83.403
90.396
97.412
104.451
111.524
118.671
125.946
133.366
140.927
148.609
156.344
164.063
171.679
179.074
186.156
192.844
199.056
204.742
209.849
214.297
218.002
220.852
222.713
223.502
223.168
221.674
219.046
215.33
210.599
204.987
198.607
191.548
183.898
175.714
167.05
157.989
148.618
139.037
129.373
119.725
110.175
100.802
91.642
82.711
74.001
65.459
57.041
48.731
40.522
32.428
24.472
16.661
9.009
1.531
-5.776
-12.91
-19.867
-26.649
-33.241
-39.619
-45.748
-51.575
-57.054
-62.152
-66.849
-71.13
-74.995
-78.441
-81.473
-84.106
-86.352
-88.22
-89.721
-90.863
-91.656
-92.12
-92.274
-92.145
-91.757
-91.137
-90.307
-89.294
-88.118
-86.802
-85.366
-83.827
-82.202
-80.511
-78.773
-77.008
-75.237
-73.477
-71.746
-70.063
-68.442
-66.899
-65.445
-64.091
-62.845
-61.715
-60.708
-59.828
-59.079
-58.463
-57.98
-57.631
-57.414
-57.327
-57.366
-57.528
-57.806
-58.193
-58.684
-59.269
-59.939
-60.686
-61.5
-62.37
-63.287
-64.24
-65.218
-66.21
-67.206
-68.195
-69.165
-70.109
-71.015
-71.874
-72.68
-73.423
-74.099
-74.7
-75.223
-75.662
-76.014
-76.277
-76.448
-76.526
-76.51
-76.4
-76.197
-75.901
-75.515
-75.041
-74.482
-73.842
-73.125
-72.336
-71.48
-70.563
-69.591
-68.57
-67.508
-66.41
-65.283
-64.135
-62.972
-61.8
-60.627
-59.457
-58.298
-57.154
-56.031
-54.934
-53.868
-52.838
-51.846
-50.897
-49.995
-49.142
-48.34
-47.591
-46.896
-46.26
-45.687
-45.177
-44.733
-44.35
-44.029
-43.777
-43.591
-43.454
-43.354
-43.277
-43.22
-43.201
-43.221
-43.254
-43.311
-43.438
-43.667
-44.034
-44.542
-45.125
-45.758
-46.503
-47.29
-47.879
-48.21
-48.348
-48.259
-48.181
-47.663
-45.234
-41.159
-36.796
-34.318
-37.884
-47.35
-58.5
-67.174
-67.462
-58.824
-46.872
-35.956
-30.721
-32.102
-35.905
-39.513
-41.186
-40.34
-38.676
-36.998
-35.237
-33.458
-31.407
-29.011
-26.504
-23.96
-21.342
-18.66
-15.929
-13.146
-10.308
-7.4
-4.392
-1.279
1.91
5.16
8.461
11.803
15.175
18.563
21.95
25.321
28.662
31.959
35.194
38.349
41.403
44.337
47.131
49.764
52.216
54.47
56.511
58.324
59.895
61.208
62.25
63.005
63.464
63.616
63.452
62.967
62.155
61.017
59.562
57.797
55.729
53.361
50.682
47.691
44.39
40.786
36.893
32.73
28.322
23.71
18.955
14.117
9.261
4.445
-0.289
-4.89
-9.297
-13.438
-17.224
-20.578
-23.437
-25.757
-27.506
-28.678
-29.293
-29.41
-29.126
-28.557
-27.837
-27.088
-26.43
-25.996
-25.898
-26.32
-27.523
-29.667
-32.813
-36.894
-41.629
-46.703
-51.838
-56.519
-60.048
-61.934
-61.901
-60.08
-57.158
-53.894
-51.007
-49.404
-50.153
-53.031
-56.466
-58.927
-57.897
-53.518
-49.16
-44.223
-36.092
-17.945
23.855
96.106
198.561
326.315
462.7
591.982
704.627
791.571
853.104
894.382
916.73
922.207
909.927
875.298
817.021
737.329
640.285
530.708
413.897
292.534
168.579
48.745
-61.645
-156.99
-231.327
-286.499
-324.997
-349.317
-363.807
-367.907
-360.832
-343.743
-317.299
-284.378
-248.061
-209.688
-170.48
-131.722
-94.983
-62.049
-34.346
-12.43
3.862
14.616
19.935
20.567
17.817
13.298
8.733
5.081
2.573
1.418
1.69
3.119
5.172
7.008
7.639
6.639
4.075
0.094
-5
-10.857
-17.088
-23.12
-28.342
-32.427
-35.283
-36.933
-37.499
-37.06
-35.674
-33.472
-30.618
-27.251
-23.481
-19.363
-14.941
-10.298
-5.557
-0.856
3.704
8.073
12.232
16.176
19.902
23.416
26.745
29.939
33.047
36.112
39.167
42.237
45.355
48.567
51.921
55.475
59.271
63.333
67.677
72.312
77.241
82.463
87.965
93.721
99.711
105.911
112.305
118.875
125.6
132.452
139.406
146.429
153.491
160.564
167.615
174.61
181.512
188.283
194.887
201.291
207.461
213.361
218.958
224.213
229.094
233.572
237.618
241.199
244.282
246.825
248.801
250.197
251.005
251.228
250.871
249.933
248.429
246.38
243.8
240.698
237.069
232.888
228.149
222.862
217.05
210.76
204.02
196.838
189.223
181.181
172.718
163.848
154.565
144.837
134.673
124.109
113.222
102.138
90.953
79.734
68.539
57.402
46.373
35.53
24.932
14.635
4.701
-4.81
-13.81
-22.17
-29.82
-36.739
-42.955
-48.56
-53.616
-58.15
-62.194
-65.772
-68.912
-71.662
-74.05
-76.082
-77.79
-79.212
-80.418
-81.516
-82.571
-83.604
-84.608
-85.531
-86.343
-87.041
-87.614
-88.053
-88.353
-88.509
-88.535
-88.469
-88.33
-88.127
-87.851
-87.473
-86.986
-86.402
-85.743
-85.048
-84.347
-83.659
-83.007
-82.421
-81.917
-81.511
-81.203
-80.982
-80.841
-80.782
-80.807
-80.925
-81.137
-81.439
-81.828
-82.298
-82.841
-83.453
-84.124
-84.843
-85.6
-86.388
-87.203
-88.044
-88.907
-89.788
-90.681
-91.584
-92.49
-93.395
-94.293
-95.177
-96.041
-96.88
-97.688
-98.462
-99.197
-99.889
-100.536
-101.135
-101.684
-102.181
-102.624
-103.014
-103.349
-103.63
-103.858
-104.032
-104.156
-104.229
-104.255
-104.236
-104.176
-104.076
-103.94
-103.771
-103.573
-103.348
-103.101
-102.834
-102.55
-102.255
-101.951
-101.644
-101.338
-101.038
-100.747
-100.471
-100.213
-99.978
-99.769
-99.588
-99.44
-99.326
-99.248
-99.208
-99.208
-99.249
-99.33
-99.453
-99.617
-99.822
-100.066
-100.35
-100.67
-101.025
-101.414
-101.834
-102.284
-102.76
-103.262
-103.785
-104.328
-104.889
-105.464
-106.051
-106.646
-107.247
-107.851
-108.455
-109.055
-109.651
-110.238
-110.815
-111.38
-111.931
-112.467
-112.986
-113.488
-113.97
-114.432
-114.874
-115.293
-115.69
-116.063
-116.413
-116.738
-117.039
-117.313
-117.561
-117.78
-117.971
-118.131
-118.257
-118.348
-118.401
-118.414
-118.384
-118.308
-118.184
-118.008
-117.778
-117.49
-117.141
-116.728
-116.246
-115.691
-115.061
-114.351
-113.558
-112.68
-111.714
-110.657
-109.508
-108.266
-106.931
-105.501
-103.978
-102.362
-100.656
-98.864
-96.99
-95.039
-93.018
-90.936
-88.803
-86.632
-84.436
-82.228
-80.025
-77.842
-75.696
-73.604
-71.581
-69.643
-67.807
-66.089
-64.507
-63.079
-61.823
-60.757
-59.897
-59.258
-58.855
-58.7
-58.799
-59.157
-59.779
-60.67
-61.845
-63.316
-65.089
-67.17
-69.554
-72.229
-75.182
-78.386
-81.788
-85.331
-88.959
-92.615
-96.265
-99.878
-103.397
-106.754
-109.909
-112.818
-115.437
-117.739
-119.66
-121.139
-122.214
-122.978
-123.416
-123.497
-123.396
-123.209
-123.011
-123.214
-123.153
-122.172
-121.466
-121.491
-124.467
-132.959
-144.296
-156.498
-166.476
-170.111
-170.257
-169.211
-168.249
-169.925
-171.693
-171.575
-169.873
-165.97
-161.34
-157.595
-155.259
-155.422
-157.367
-157.903
-153.909
-142.136
-123.201
-102.494
-82.074
-61.08
-31.505
21.997
108.515
230.77
381.199
540.441
689.354
810.504
892.146
931.497
930.075
892.242
824.162
733.106
627.036
515.929
408.123
306.725
211.323
116.829
18.978
-81.318
-179.819
-269.262
-343.742
-400.95
-440.877
-465.069
-474.497
-469.591
-451.622
-422.506
-384.912
-342.118
-296.96
-252.162
-210.908
-175.923
-148.636
-129.44
-117.791
-112.371
-111.898
-114.834
-118.798
-121.45
-121.404
-118.074
-111.617
-102.722
-92.006
-80.184
-68.503
-58.282
-50.31
-44.91
-41.936
-40.91
-41.427
-43.095
-45.327
-47.517
-49.225
-50.032
-49.697
-48.36
-46.08
-42.859
-39.031
-33.931
-26.918
-19.136
-10.997
-4.474
-1.921
-0.895
0.2
3.755
13.078
25.029
36.962
47.075
52.44
55.136
57.265
59.305
62.575
66.374
69.788
73.042
76.044
78.895
81.835
84.795
87.736
90.737
93.84
97.055
100.403
103.907
107.585
111.459
115.542
119.817
124.266
128.887
133.677
138.624
143.714
148.926
154.234
159.62
165.064
170.544
176.035
181.512
186.947
192.316
197.596
202.758
207.774
212.614
217.249
221.649
225.786
229.631
233.157
236.338
239.152
241.575
243.591
245.181
246.329
247.025
247.256
247.017
246.302
245.11
243.44
241.297
238.687
235.62
232.106
228.16
223.799
219.04
213.905
208.418
202.602
196.484
190.092
183.456
176.608
169.579
162.397
155.094
147.699
140.246
132.769
125.299
117.858
110.48
103.207
96.077
89.13
82.392
75.863
69.561
63.531
57.774
52.257
46.956
41.84
36.914
32.253
27.881
23.736
19.89
16.591
13.894
11.724
10.108
8.78
8.211
9.93
13.626
17.865
20.333
16.644
6.974
-4.28
-12.767
-12.297
-2.382
11.072
23.488
29.961
29.533
26.587
23.833
23.084
24.918
27.529
30.069
32.591
35.015
37.597
40.396
43.159
45.8
48.348
50.79
53.104
55.291
57.355
59.311
61.196
63.018
64.753
66.393
67.938
69.385
70.734
71.985
73.133
74.176
75.12
75.968
76.724
77.392
77.975
78.48
78.911
79.274
79.575
79.82
80.016
80.169
80.286
80.373
80.438
80.487
80.528
80.566
80.609
80.663
80.733
80.826
80.946
81.099
81.288
81.517
81.79
82.109
82.477
82.895
83.363
83.882
84.451
85.067
85.728
86.429
87.167
87.935
88.728
89.54
90.362
91.188
92.009
92.817
93.601
94.354
95.064
95.722
96.318
96.84
97.278
97.623
97.865
97.993
97.998
97.873
97.608
97.195
96.629
95.901
95.006
93.94
92.699
91.28
89.681
87.903
85.945
83.812
81.505
79.029
76.391
73.597
70.654
67.572
64.36
61.03
57.593
54.061
50.45
46.773
43.044
39.281
35.498
31.712
27.939
24.197
20.5
16.867
13.312
9.856
6.511
3.292
0.21
-2.72
-5.485
-8.07
-10.462
-12.66
-14.649
-16.407
-17.914
-19.151
-20.114
-20.821
-21.271
-21.44
-21.346
-21.041
-20.566
-19.97
-19.261
-18.377
-17.311
-16.142
-14.801
-13.043
-10.837
-8.267
-5.313
-2.274
1.387
7.23
14.814
22.71
28.441
27.48
20.311
11.375
5.175
8.106
20.24
35.55
49.392
56.658
56.684
53.96
51.153
50.171
51.472
53.188
54.521
55.504
56.066
56.479
56.786
56.73
56.238
55.353
54.069
52.378
50.286
47.79
44.907
41.679
38.119
34.22
29.991
25.451
20.631
15.582
10.356
5.002
-0.431
-5.903
-11.365
-16.763
-22.027
-27.07
-31.815
-36.199
-40.176
-43.715
-46.803
-49.436
-51.653
-53.529
-55.157
-56.653
-58.135
-59.715
-61.538
-63.751
-66.526
-70.116
-74.696
-80.326
-86.952
-94.297
-101.999
-109.76
-117.188
-123.73
-128.991
-132.737
-135.045
-136.64
-138.392
-140.943
-144.852
-150.522
-158.183
-167.795
-178.575
-188.773
-195.119
-194.399
-184.981
-164.766
-133.849
-92.706
-37.691
32.185
117.664
219.543
330.461
443.011
550.395
643.701
719.34
774.658
806.201
812.505
792.39
746.662
676.887
585.202
474.143
345.109
204.266
61.465
-73.973
-191.698
-287.766
-365.171
-426.669
-476.508
-516.124
-542.715
-555.245
-553.31
-538.32
-514.417
-484.783
-451.611
-416.761
-381.288
-346.81
-315.793
-289.638
-268.589
-252.431
-240.559
-232.358
-227.157
-223.692
-220.004
-214.427
-207.242
-199.378
-190.313
-180.294
-167.882
-150.594
-131.746
-115.103
-104.132
-104.71
-115.389
-130.138
-144.851
-153.056
-152.813
-149.296
-145.427
-144.316
-148.169
-153.566
-158.352
-161.869
-162.814
-162.241
-161.084
-159.08
-156.447
-153.207
-149.226
-144.729
-139.914
-134.822
-129.559
-124.26
-119.014
-113.908
-109.011
-104.34
-99.905
-95.719
-91.772
-88.033
-84.463
-81.007
-77.618
-74.255
-70.88
-67.46
-63.953
-60.315
-56.5
-52.457
-48.149
-43.554
-38.651
-33.432
-27.9
-22.057
-15.92
-9.511
-2.853
4.035
11.132
18.418
25.87
33.461
41.159
48.933
56.747
64.568
72.363
80.093
87.725
95.223
102.553
109.683
116.58
123.209
129.537
135.528
141.15
146.373
151.166
155.501
159.353
162.699
165.519
167.796
169.516
170.668
171.244
171.237
170.647
169.473
167.721
165.396
162.51
159.075
155.107
150.626
145.653
140.212
134.331
128.038
121.363
114.339
107
99.381
91.518
83.447
75.207
66.834
58.366
49.841
41.296
32.766
24.289
15.897
7.624
-0.498
-8.439
-16.172
-23.67
-30.907
-37.863
-44.517
-50.851
-56.85
-62.5
-67.791
-72.715
-77.266
-81.44
-85.237
-88.658
-91.706
-94.387
-96.709
-98.68
-100.312
-101.617
-102.61
-103.306
-103.72
-103.87
-103.774
-103.45
-102.917
-102.195
-101.303
-100.262
-99.089
-97.806
-96.431
-94.983
-93.48
-91.939
-90.378
-88.812
-87.256
-85.724
-84.23
-82.785
-81.399
-80.083
-78.843
-77.688
-76.623
-75.651
-74.777
-74.003
-73.33
-72.759
-72.288
-71.916
-71.641
-71.46
-71.37
-71.366
-71.444
-71.598
-71.822
-72.114
-72.467
-72.875
-73.332
-73.827
-74.359
-74.923
-75.505
-76.093
-76.675
-77.237
-77.78
-78.311
-78.813
-79.27
-79.703
-80.127
-80.555
-81.007
-81.46
-81.87
-82.258
-82.662
-82.974
-83.065
-83.01
-82.803
-82.418
-82.128
-81.199
-78.914
-76.298
-73.662
-72.888
-76.229
-81.195
-86.13
-88.564
-85.105
-78.761
-72.083
-66.818
-65.856
-67.14
-68.587
-69.737
-69.323
-68.09
-66.995
-65.861
-64.817
-63.804
-62.635
-61.441
-60.329
-59.27
-58.261
-57.319
-56.445
-55.636
-54.892
-54.197
-53.532
-52.909
-52.339
-51.82
-51.355
-50.944
-50.587
-50.286
-50.044
-49.858
-49.725
-49.644
-49.611
-49.622
-49.675
-49.765
-49.887
-50.037
-50.208
-50.396
-50.595
-50.798
-51.001
-51.195
-51.376
-51.536
-51.67
-51.771
-51.834
-51.853
-51.823
-51.74
-51.598
-51.392
-51.119
-50.773
-50.35
-49.846
-49.257
-48.58
-47.814
-46.956
-46.006
-44.964
-43.83
-42.607
-41.298
-39.905
-38.433
-36.884
-35.266
-33.584
-31.846
-30.061
-28.237
-26.386
-24.522
-22.659
-20.811
-18.993
-17.217
-15.497
-13.848
-12.285
-10.823
-9.475
-8.256
-7.18
-6.264
-5.523
-4.971
-4.62
-4.476
-4.545
-4.832
-5.342
-6.076
-7.033
-8.207
-9.594
-11.193
-13
-15.005
-17.197
-19.558
-22.065
-24.694
-27.413
-30.18
-32.957
-35.703
-38.375
-40.931
-43.329
-45.534
-47.518
-49.263
-50.75
-51.949
-52.82
-53.325
-53.435
-53.183
-52.611
-51.732
-50.617
-49.408
-48.306
-47.674
-47.854
-48.915
-50.878
-53.786
-57.434
-61.557
-65.743
-69.028
-70.444
-69.572
-66.13
-60.022
-51.667
-41.511
-30.19
-19.198
-10.329
-4.865
-3.881
-8.232
-17.028
-28.124
-39.845
-49.628
-57.044
-65.14
-73.602
-79.269
-74.655
-46.824
12.254
103.644
221.251
352.262
483.804
605.024
708.91
791.038
849.834
887.328
904.48
902.648
881.782
838.503
771.874
683.372
576.555
457.602
332.468
206.105
82.966
-32.305
-135.1
-222.69
-293.493
-345.888
-380.352
-395.948
-391.658
-372.756
-344.266
-312.224
-283.468
-256.88
-231.077
-205.711
-179.468
-155.559
-136.27
-121.387
-111.154
-104.241
-99.36
-96.006
-92.7
-87.985
-81.232
-72.284
-61.512
-49.379
-36.19
-22.36
-8.736
3.521
13.628
21.319
26.681
30.038
31.689
31.863
30.899
29.272
27.317
25.235
23.161
21.093
19.032
17.056
15.216
13.577
12.254
11.315
10.781
10.676
10.977
11.652
12.709
14.131
15.888
17.957
20.292
22.864
25.67
28.681
31.848
35.101
38.344
41.521
44.621
47.643
50.602
53.513
56.383
59.239
62.12
65.059
68.083
71.211
74.449
77.816
81.344
85.069
89.037
93.273
97.787
102.582
107.655
112.997
118.593
124.418
130.436
136.615
142.925
149.34
155.834
162.374
168.92
175.435
181.877
188.206
194.387
200.377
206.133
211.626
216.828
221.711
226.255
230.423
234.17
237.481
240.341
242.697
244.505
245.729
246.326
246.302
245.692
244.466
242.575
240.137
237.289
233.958
230.16
225.935
221.006
216.179
212.247
208.134
203.533
196.458
184.523
170.434
156.008
143.933
137.89
134.695
131.653
126.931
117.475
105.534
93.391
81.58
71.507
62.413
53.314
44.438
35.685
27.154
19.079
11.349
3.878
-3.277
-10.092
-16.565
-22.679
-28.418
-33.771
-38.713
-43.22
-47.301
-50.968
-54.225
-57.079
-59.542
-61.623
-63.339
-64.711
-65.754
-66.488
-66.932
-67.109
-67.041
-66.755
-66.273
-65.621
-64.823
-63.906
-62.894
-61.812
-60.682
-59.528
-58.373
-57.235
-56.135
-55.092
-54.121
-53.238
-52.456
-51.789
-51.245
-50.835
-50.564
-50.439
-50.462
-50.637
-50.963
-51.439
-52.063
-52.83
-53.736
-54.774
-55.935
-57.212
-58.595
-60.072
-61.633
-63.265
-64.957
-66.696
-68.47
-70.267
-72.073
-73.878
-75.671
-77.44
-79.175
-80.868
-82.508
-84.09
-85.605
-87.047
-88.411
-89.693
-90.889
-91.996
-93.014
-93.94
-94.776
-95.522
-96.18
-96.752
-97.243
-97.655
-97.995
-98.267
-98.477
-98.631
-98.738
-98.803
-98.835
-98.839
-98.825
-98.799
-98.768
-98.739
-98.718
-98.71
-98.722
-98.759
-98.825
-98.923
-99.058
-99.232
-99.448
-99.707
-100.01
-100.36
-100.754
-101.194
-101.677
-102.203
-102.77
-103.375
-104.014
-104.685
-105.382
-106.102
-106.839
-107.588
-108.343
-109.099
-109.849
-110.588
-111.31
-112.008
-112.677
-113.312
-113.907
-114.457
-114.959
-115.407
-115.798
-116.128
-116.394
-116.593
-116.722
-116.78
-116.763
-116.671
-116.502
-116.256
-115.931
-115.527
-115.046
-114.487
-113.852
-113.143
-112.361
-111.51
-110.592
-109.609
-108.565
-107.463
-106.306
-105.097
-103.84
-102.538
-101.195
-99.814
-98.399
-96.951
-95.474
-93.97
-92.442
-90.892
-89.321
-87.732
-86.127
-84.509
-82.88
-81.242
-79.598
-77.95
-76.302
-74.655
-73.012
-71.375
-69.746
-68.128
-66.524
-64.936
-63.369
-61.827
-60.316
-58.846
-57.421
-56.051
-54.744
-53.509
-52.355
-51.29
-50.317
-49.443
-48.675
-48.018
-47.484
-47.079
-46.81
-46.684
-46.708
-46.884
-47.219
-47.712
-48.356
-49.147
-50.083
-51.167
-52.414
-53.837
-55.439
-57.22
-59.177
-61.296
-63.564
-65.948
-68.399
-70.865
-73.291
-75.631
-77.855
-79.921
-81.781
-83.375
-84.621
-85.448
-85.804
-85.652
-84.978
-83.786
-82.103
-79.997
-77.576
-74.967
-72.329
-69.8
-67.511
-65.601
-64.179
-63.428
-63.629
-64.953
-67.448
-71.017
-75.343
-80.11
-85.089
-89.805
-93.54
-95.767
-96.198
-95.001
-92.914
-90.632
-88.705
-87.919
-89.329
-92.904
-97.159
-100.176
-99.197
-94.162
-88.268
-81.997
-73.259
-54.808
-14.359
55.52
155.95
281.191
418.612
554.784
677.814
778.974
852.533
897.833
918.536
916.997
897.257
860.51
802.716
724.225
625.313
507.58
380.809
252.274
129.481
21.072
-73.678
-155.059
-224.364
-285.58
-334.113
-366.8
-381.441
-374.587
-352.164
-320.29
-283.618
-248.112
-213.476
-178.902
-145.797
-114.787
-88.027
-66.997
-51.023
-39.363
-31.406
-26.448
-23.769
-22.054
-19.744
-16.075
-11.075
-5.142
1.346
8.132
14.919
20.998
25.416
27.708
27.9
26.327
23.519
19.857
15.653
11.387
7.633
4.813
3.169
2.749
3.458
5.237
8.058
11.856
16.531
21.945
27.955
34.443
41.298
48.415
55.673
62.925
70.045
76.934
83.521
89.777
95.691
101.251
106.461
111.337
115.902
120.202
124.28
128.173
131.927
135.587
139.206
142.85
146.572
150.408
154.385
158.52
162.821
167.299
171.957
176.787
181.78
186.929
192.227
197.668
203.245
208.942
214.742
220.625
226.569
232.555
238.565
244.575
250.564
256.508
262.386
268.176
273.854
279.395
284.769
289.948
294.904
299.608
304.031
308.146
311.923
315.34
318.372
320.998
323.199
324.957
326.256
327.083
327.427
327.279
326.634
325.487
323.839
321.689
319.044
315.911
312.299
308.221
303.69
298.724
293.341
287.561
281.406
274.902
268.071
260.943
253.545
245.907
238.059
230.031
221.856
213.565
205.191
196.764
188.316
179.876
171.474
163.137
154.893
146.766
138.782
130.961
123.326
115.894
108.682
101.707
94.979
88.511
82.311
76.385
70.739
65.377
60.298
55.502
50.989
46.753
42.79
39.094
35.655
32.465
29.513
26.787
24.273
21.959
19.829
17.868
16.061
14.392
12.845
11.405
10.055
8.781
7.567
6.399
5.263
4.147
3.038
1.925
0.798
-0.352
-1.531
-2.748
-4.008
-5.315
-6.673
-8.085
-9.552
-11.075
-12.656
-14.292
-15.982
-17.724
-19.514
-21.35
-23.226
-25.137
-27.077
-29.042
-31.023
-33.016
-35.012
-37.006
-38.991
-40.958
-42.903
-44.818
-46.697
-48.535
-50.326
-52.066
-53.752
-55.38
-56.949
-58.456
-59.901
-61.283
-62.604
-63.864
-65.065
-66.209
-67.3
-68.339
-69.332
-70.282
-71.194
-72.073
-72.924
-73.754
-74.567
-75.369
-76.168
-76.968
-77.778
-78.602
-79.447
-80.321
-81.229
-82.178
-83.174
-84.222
-85.328
-86.496
-87.731
-89.036
-90.414
-91.867
-93.397
-95.005
-96.692
-98.457
-100.299
-102.217
-104.21
-106.274
-108.407
-110.605
-112.864
-115.181
-117.549
-119.966
-122.425
-124.921
-127.449
-130.004
-132.579
-135.168
-137.764
-140.362
-142.954
-145.533
-148.093
-150.626
-153.126
-155.586
-157.999
-160.36
-162.664
-164.903
-167.074
-169.171
-171.191
-173.128
-174.98
-176.744
-178.418
-179.999
-181.487
-182.88
-184.178
-185.381
-186.489
-187.502
-188.419
-189.242
-189.97
-190.605
-191.147
-191.599
-191.96
-192.234
-192.423
-192.529
-192.555
-192.503
-192.376
-192.178
-191.91
-191.575
-191.176
-190.717
-190.199
-189.626
-189
-188.325
-187.601
-186.831
-186.017
-185.159
-184.258
-183.314
-182.327
-181.299
-180.229
-179.119
-177.969
-176.781
-175.556
-174.297
-173.005
-171.683
-170.332
-168.956
-167.557
-166.138
-164.703
-163.256
-161.802
-160.348
-158.9
-157.468
-156.06
-154.686
-153.356
-152.079
-150.866
-149.726
-148.666
-147.694
-146.818
-146.047
-145.393
-144.868
-144.48
-144.24
-144.156
-144.234
-144.482
-144.903
-145.491
-146.244
-147.158
-148.238
-149.498
-150.947
-152.589
-154.425
-156.45
-158.653
-161.022
-163.531
-166.133
-168.781
-171.428
-174.03
-176.56
-178.98
-181.243
-183.292
-185.044
-186.431
-187.401
-187.905
-187.916
-187.421
-186.424
-184.97
-183.145
-181.039
-178.771
-176.464
-174.223
-172.189
-170.482
-169.259
-168.781
-169.233
-170.693
-173.104
-176.187
-179.619
-183.161
-186.431
-188.839
-189.931
-189.446
-187.592
-185.215
-183.064
-181.79
-182.135
-184.738
-190.224
-197.93
-205.288
-209.409
-207.333
-198.718
-186.595
-171.185
-150.648
-119.277
-65.08
18.03
130.118
266.193
408.903
541.505
652.574
731.93
781.293
807.673
814.115
805.257
780.703
735.128
667.825
580.02
474.975
359.707
240.229
120.633
5.088
-102.348
-198.076
-278.76
-342.131
-387.821
-416.569
-429.038
-426.356
-410.853
-385.533
-353.821
-319.056
-283.527
-248.781
-216.717
-189.374
-167.669
-151.482
-139.993
-131.895
-126.271
-122.604
-119.776
-116.135
-110.698
-103.211
-93.964
-83.772
-73.276
-62.825
-53.103
-45.125
-39.503
-36.45
-35.826
-37.094
-39.735
-43.359
-47.465
-51.448
-54.881
-57.473
-59.036
-59.579
-59.117
-57.641
-55.201
-51.871
-47.714
-42.821
-37.299
-31.237
-24.769
-18.045
-11.203
-4.392
2.269
8.698
14.816
20.579
25.967
30.972
35.602
39.879
43.822
47.461
50.844
54.012
57.021
59.93
62.802
65.705
68.698
71.821
75.11
78.589
82.274
86.179
90.31
94.663
99.239
104.037
109.054
114.288
119.733
125.377
131.206
137.202
143.346
149.617
155.997
162.464
168.995
175.567
182.154
188.733
195.277
201.756
208.138
214.39
220.478
226.369
232.03
237.427
242.528
247.303
251.724
255.763
259.396
262.6
265.354
267.639
269.439
270.741
271.534
271.808
271.558
270.781
269.478
267.651
265.306
262.453
259.102
255.267
250.966
246.216
241.04
235.462
229.506
223.201
216.576
209.663
202.493
195.1
187.518
179.781
171.924
163.98
155.984
147.969
139.966
132.007
124.122
116.339
108.687
101.191
93.876
86.763
79.875
73.229
66.843
60.732
54.909
49.385
44.169
39.268
34.687
30.429
26.494
22.882
19.589
16.611
13.94
11.568
9.485
7.679
6.138
4.848
3.793
2.96
2.33
1.889
1.619
1.503
1.524
1.666
1.912
2.245
2.649
3.108
3.609
4.135
4.673
5.21
5.734
6.233
6.696
7.112
7.474
7.772
8
8.152
8.222
8.208
8.106
7.915
7.635
7.265
6.807
6.264
5.638
4.932
4.153
3.304
2.39
1.419
0.395
-0.674
-1.781
-2.92
-4.084
-5.265
-6.456
-7.651
-8.841
-10.021
-11.183
-12.321
-13.427
-14.496
-15.522
-16.499
-17.421
-18.285
-19.085
-19.819
-20.484
-21.076
-21.596
-22.04
-22.41
-22.705
-22.927
-23.076
-23.154
-23.165
-23.112
-22.997
-22.825
-22.601
-22.33
-22.016
-21.665
-21.283
-20.876
-20.45
-20.01
-19.564
-19.117
-18.675
-18.245
-17.834
-17.446
-17.088
-16.765
-16.483
-16.247
-16.059
-15.925
-15.848
-15.83
-15.874
-15.981
-16.153
-16.389
-16.69
-17.054
-17.481
-17.967
-18.511
-19.109
-19.757
-20.449
-21.182
-21.95
-22.747
-23.566
-24.403
-25.249
-26.1
-26.947
-27.785
-28.606
-29.405
-30.174
-30.909
-31.602
-32.25
-32.847
-33.388
-33.869
-34.288
-34.642
-34.927
-35.144
-35.289
-35.364
-35.368
-35.302
-35.169
-34.969
-34.708
-34.387
-34.012
-33.587
-33.119
-32.613
-32.075
-31.513
-30.933
-30.343
-29.75
-29.16
-28.582
-28.021
-27.485
-26.979
-26.51
-26.082
-25.699
-25.367
-25.087
-24.864
-24.698
-24.591
-24.543
-24.553
-24.622
-24.746
-24.922
-25.147
-25.416
-25.725
-26.067
-26.435
-26.824
-27.224
-27.628
-28.027
-28.412
-28.773
-29.1
-29.384
-29.614
-29.781
-29.877
-29.893
-29.82
-29.651
-29.381
-29.003
-28.514
-27.911
-27.19
-26.351
-25.395
-24.323
-23.14
-21.849
-20.457
-18.973
-17.408
-15.774
-14.084
-12.353
-10.599
-8.837
-7.086
-5.364
-3.687
-2.075
-0.543
0.889
2.202
3.375
4.389
5.224
5.86
6.282
6.473
6.42
6.117
5.559
4.743
3.662
2.303
0.657
-1.279
-3.506
-6.022
-8.814
-11.863
-15.136
-18.583
-22.153
-25.796
-29.464
-33.119
-36.722
-40.227
-43.579
-46.715
-49.574
-52.103
-54.256
-55.989
-57.282
-58.145
-58.632
-58.846
-58.883
-58.818
-58.73
-58.699
-58.837
-59.273
-60.12
-61.461
-63.413
-66.155
-69.806
-74.371
-79.638
-85.148
-90.414
-94.999
-98.378
-99.931
-99.204
-96.059
-90.976
-84.961
-78.924
-73.692
-70.195
-69.327
-71.676
-76.132
-79.421
-78.149
-69.939
-55.669
-38.351
-18.016
9.312
52.793
122.482
222.861
350.359
491.435
628.359
743.74
825.3
870.94
884.315
872.727
843.068
796.978
733.622
651.813
552.277
439.043
318.346
196.79
79.5
-29.318
-126.411
-209.839
-277.926
-329.809
-366.327
-388.701
-398.311
-397.113
-386.668
-368.617
-345.293
-318.653
-289.751
-259.628
-229.27
-199.796
-173.009
-150.024
-130.835
-115.282
-103.337
-94.789
-89.349
-86.079
-83.145
-79.389
-74.56
-68.682
-62.009
-54.8
-47.189
-39.762
-33.692
-29.693
-27.96
-28.434
-30.69
-34.337
-39.15
-44.727
-50.452
-55.852
-60.58
-64.398
-67.307
-69.321
-70.406
-70.594
-69.935
-68.48
-66.313
-63.52
-60.158
-56.302
-52.023
-47.378
-42.461
-37.381
-32.246
-27.175
-22.24
-17.474
-12.906
-8.548
-4.402
-0.461
3.309
6.955
10.519
14.034
17.53
21.028
24.565
28.184
31.928
35.844
39.964
44.303
48.876
53.688
58.739
64.021
69.517
75.2
81.047
87.038
93.153
99.374
105.675
112.03
118.41
124.785
131.125
137.4
143.579
149.632
155.529
161.241
166.741
172.003
177.003
181.713
186.108
190.162
193.85
197.149
200.04
202.502
204.517
206.071
207.153
207.754
207.868
207.492
206.624
205.266
203.422
201.098
198.303
195.049
191.348
187.217
182.671
177.731
172.421
166.766
160.792
154.525
147.985
141.203
134.211
127.028
119.683
112.199
104.588
96.892
89.168
81.444
73.752
66.146
58.649
51.298
44.165
37.235
30.433
23.76
17.229
10.738
4.238
-2.157
-8.516
-14.788
-20.426
-26.109
-32.647
-38.96
-44.993
-48.362
-45.138
-38.121
-30.548
-27.327
-36.552
-55.142
-75.8
-92.156
-94.732
-84.869
-70.967
-58.373
-53.536
-56.896
-62.833
-68.592
-72.15
-72.877
-72.868
-72.93
-72.886
-72.856
-72.577
-71.955
-71.259
-70.588
-69.907
-69.249
-68.653
-68.107
-67.596
-67.106
-66.597
-66.059
-65.518
-64.982
-64.45
-63.927
-63.417
-62.923
-62.454
-62.014
-61.603
-61.222
-60.872
-60.555
-60.273
-60.028
-59.821
-59.654
-59.527
-59.441
-59.397
-59.397
-59.439
-59.525
-59.654
-59.826
-60.041
-60.299
-60.6
-60.942
-61.326
-61.749
-62.211
-62.709
-63.243
-63.809
-64.405
-65.028
-65.675
-66.342
-67.027
-67.725
-68.433
-69.148
-69.866
-70.583
-71.295
-71.998
-72.69
-73.366
-74.023
-74.658
-75.267
-75.848
-76.397
-76.912
-77.391
-77.832
-78.231
-78.588
-78.901
-79.169
-79.39
-79.563
-79.689
-79.767
-79.798
-79.782
-79.721
-79.616
-79.469
-79.282
-79.057
-78.797
-78.504
-78.181
-77.831
-77.457
-77.062
-76.648
-76.219
-75.777
-75.326
-74.869
-74.408
-73.946
-73.487
-73.032
-72.586
-72.15
-71.728
-71.321
-70.933
-70.566
-70.222
-69.903
-69.612
-69.349
-69.117
-68.917
-68.749
-68.615
-68.514
-68.448
-68.415
-68.415
-68.449
-68.515
-68.613
-68.742
-68.901
-69.089
-69.306
-69.549
-69.817
-70.11
-70.423
-70.756
-71.105
-71.469
-71.843
-72.224
-72.61
-72.995
-73.377
-73.751
-74.112
-74.455
-74.776
-75.069
-75.329
-75.551
-75.728
-75.856
-75.928
-75.939
-75.883
-75.756
-75.553
-75.266
-74.889
-74.42
-73.853
-73.185
-72.411
-71.525
-70.521
-69.399
-68.161
-66.796
-65.295
-63.654
-61.863
-59.93
-57.873
-55.681
-53.344
-50.896
-48.364
-45.77
-43.148
-40.484
-37.743
-34.962
-32.199
-29.352
-26.301
-23.142
-19.888
-16.528
-13.377
-9.658
-4.613
0.637
5.741
8.653
6.928
3.233
-0.661
-2.104
2.548
10.042
17.616
23.379
24.218
22.351
20.024
17.728
16.815
16.472
15.665
14.586
13.104
11.298
9.386
7.257
4.852
2.254
-0.476
-3.301
-6.185
-9.077
-11.92
-14.63
-17.1
-19.268
-21.089
-22.511
-23.509
-24.07
-24.198
-23.943
-23.398
-22.665
-21.865
-21.123
-20.557
-20.311
-20.509
-21.306
-22.931
-25.528
-29.166
-33.802
-39.143
-44.872
-50.752
-56.405
-61.3
-65.054
-67.349
-68.213
-68.382
-68.517
-68.975
-70.272
-72.866
-76.941
-82.604
-88.486
-91.246
-87.955
-76.756
-58.398
-35.718
-9.613
22.511
68.613
137.216
231.894
350.18
478.883
601.671
706.603
784.384
835.607
866.402
879.341
877.515
860.152
822.14
762.371
682.142
584.555
475.955
362.298
247.621
135.891
31.529
-61.715
-140.62
-202.917
-248.697
-279.25
-295.552
-299.05
-291.993
-276.903
-256.939
-235.022
-212.413
-189.781
-167.932
-147.745
-130.375
-116.303
-104.894
-95.364
-87.489
-81.185
-76.415
-72.621
-68.374
-62.8
-55.857
-47.759
-38.894
-29.599
-19.988
-10.523
-2.189
4.391
9.01
11.678
12.723
12.462
11.089
8.929
6.429
3.906
1.575
-0.4
-1.95
-2.985
-3.419
-3.232
-2.443
-1.07
0.874
3.363
6.357
9.778
13.529
17.546
21.79
26.219
30.784
35.406
39.981
44.424
48.694
52.76
56.601
60.208
63.571
66.705
69.654
72.467
75.19
77.856
80.486
83.108
85.756
88.475
91.316
94.316
97.499
100.885
104.49
108.324
112.394
116.694
121.205
125.907
130.785
135.822
141.004
146.311
151.717
157.197
162.72
168.26
173.788
179.274
184.686
189.992
195.162
200.167
204.978
209.567
213.904
217.958
221.7
225.101
228.136
230.776
232.998
234.78
236.101
236.944
237.297
237.146
236.483
235.303
233.601
231.379
228.638
225.384
221.627
217.378
212.65
207.463
201.834
195.785
189.341
182.527
175.372
167.903
160.152
152.149
143.928
135.521
126.961
118.283
109.519
100.705
91.873
83.057
74.288
65.599
57.02
48.578
40.303
32.219
24.351
16.72
9.348
2.253
-4.55
-11.047
-17.224
-23.072
-28.585
-33.756
-38.583
-43.065
-47.203
-51
-54.461
-57.591
-60.398
-62.892
-65.082
-66.981
-68.6
-69.953
-71.055
-71.92
-72.565
-73.005
-73.258
-73.341
-73.27
-73.063
-72.737
-72.309
-71.797
-71.215
-70.58
-69.908
-69.213
-68.509
-67.81
-67.126
-66.47
-65.85
-65.277
-64.757
-64.297
-63.904
-63.582
-63.335
-63.167
-63.08
-63.076
-63.156
-63.321
-63.569
-63.9
-64.313
-64.804
-65.37
-66.009
-66.715
-67.485
-68.312
-69.193
-70.121
-71.089
-72.091
-73.122
-74.173
-75.238
-76.311
-77.385
-78.454
-79.512
-80.553
-81.573
-82.566
-83.529
-84.457
-85.347
-86.195
-86.999
-87.755
-88.461
-89.115
-89.717
-90.264
-90.755
-91.191
-91.571
-91.896
-92.167
-92.384
-92.55
-92.666
-92.736
-92.761
-92.746
-92.695
-92.613
-92.502
-92.366
-92.209
-92.033
-91.845
-91.651
-91.452
-91.247
-91.047
-90.861
-90.699
-90.57
-90.469
-90.385
-90.331
-90.321
-90.329
-90.334
-90.321
-90.266
-90.19
-90.136
-90.079
-89.977
-89.939
-90.098
-90.371
-90.765
-91.301
-91.695
-92.707
-95.08
-97.745
-100.377
-101.019
-97.328
-91.889
-86.423
-83.497
-86.636
-92.716
-99.086
-103.932
-104.254
-102.192
-99.915
-97.903
-97.479
-97.871
-98.092
-98.326
-98.448
-98.521
-98.746
-98.99
-99.149
-99.256
-99.319
-99.326
-99.28
-99.189
-99.058
-98.907
-98.759
-98.607
-98.443
-98.272
-98.094
-97.912
-97.728
-97.54
-97.347
-97.151
-96.954
-96.755
-96.557
-96.358
-96.159
-95.959
-95.758
-95.556
-95.352
-95.145
-94.934
-94.718
-94.496
-94.268
-94.031
-93.785
-93.529
-93.262
-92.983
-92.69
-92.384
-92.062
-91.725
-91.371
-91.001
-90.613
-90.209
-89.787
-89.349
-88.895
-88.426
-87.942
-87.444
-86.933
-86.409
-85.874
-85.328
-84.772
-84.207
-83.635
-83.056
-82.473
-81.887
-81.298
-80.708
-80.117
-79.527
-78.938
-78.35
-77.762
-77.175
-76.588
-76.001
-75.413
-74.824
-74.232
-73.635
-73.033
-72.422
-71.801
-71.168
-70.52
-69.854
-69.168
-68.461
-67.732
-66.979
-66.202
-65.397
-64.566
-63.708
-62.822
-61.908
-60.967
-59.999
-59.007
-57.992
-56.958
-55.91
-54.853
-53.794
-52.741
-51.702
-50.691
-49.718
-48.798
-47.944
-47.165
-46.472
-45.875
-45.383
-45.006
-44.749
-44.621
-44.625
-44.77
-45.064
-45.517
-46.13
-46.897
-47.805
-48.838
-49.99
-51.262
-52.66
-54.189
-55.851
-57.643
-59.572
-61.642
-63.847
-66.159
-68.517
-70.862
-73.148
-75.354
-77.486
-79.541
-81.47
-83.203
-84.646
-85.706
-86.355
-86.556
-86.2
-85.275
-83.843
-82.051
-80.286
-78.92
-78.055
-77.769
-78.101
-78.783
-79.652
-80.546
-80.777
-79.787
-77.404
-73.363
-67.84
-61.643
-55.183
-48.783
-43.426
-39.846
-38.692
-41.111
-47.346
-56.782
-69.225
-84.228
-100.719
-117.675
-133.198
-144.195
-148.291
-143.507
-127.336
-97.94
-53.797
6.588
81.932
169.275
266.788
370.94
479.028
588.674
691.909
781.333
849.815
890.192
902.75
889.82
854.631
801.793
731.553
642.362
533.102
405.841
269.425
137.558
24.364
-61.908
-122.151
-164.26
-196.998
-225.519
-249.759
-265.741
-271.524
-268.065
-257.94
-245.173
-231.795
-217.849
-203.346
-188.328
-173.076
-158.268
-144.386
-131.369
-119.49
-109.143
-100.458
-93.267
-86.913
-80.627
-73.783
-66.133
-57.617
-48.302
-38.457
-28.551
-19.337
-11.432
-5.253
-0.992
1.446
2.24
1.636
0.02
-2.143
-4.528
-6.93
-9.212
-11.345
-13.234
-14.727
-15.759
-16.318
-16.388
-15.98
-15.085
-13.685
-11.82
-9.573
-7.026
-4.251
-1.285
1.87
5.184
8.616
12.096
15.524
18.837
22.004
24.995
27.801
30.415
32.837
35.098
37.253
39.349
41.429
43.52
45.635
47.799
50.046
52.415
54.955
57.702
60.675
63.896
67.38
71.133
75.16
79.45
83.979
88.728
93.677
98.808
104.104
109.544
115.098
120.74
126.44
132.165
137.888
143.574
149.191
154.706
160.088
165.306
170.334
175.143
179.703
183.987
187.965
191.613
194.906
197.821
200.336
202.433
204.095
205.308
206.061
206.345
206.153
205.483
204.333
202.707
200.608
198.045
195.03
191.575
187.697
183.414
178.747
173.717
168.35
162.67
156.707
150.487
144.042
137.401
130.594
123.654
116.611
109.496
102.337
95.165
88.008
80.893
73.848
66.897
60.065
53.376
46.85
40.509
34.37
28.45
22.765
17.328
12.15
7.239
2.603
-1.752
-5.823
-9.61
-13.112
-16.332
-19.274
-21.943
-24.346
-26.493
-28.392
-30.055
-31.492
-32.717
-33.741
-34.578
-35.24
-35.74
-36.091
-36.305
-36.396
-36.376
-36.256
-36.05
-35.77
-35.426
-35.03
-34.592
-34.123
-33.631
-33.126
-32.615
-32.105
-31.602
-31.113
-30.641
-30.19
-29.764
-29.363
-28.99
-28.644
-28.324
-28.031
-27.76
-27.511
-27.281
-27.068
-26.868
-26.678
-26.496
-26.32
-26.146
-25.973
-25.796
-25.614
-25.425
-25.224
-25.011
-24.783
-24.537
-24.272
-23.985
-23.675
-23.34
-22.979
-22.591
-22.174
-21.728
-21.254
-20.75
-20.218
-19.659
-19.074
-18.465
-17.835
-17.185
-16.518
-15.838
-15.146
-14.446
-13.74
-13.031
-12.323
-11.616
-10.915
-10.221
-9.537
-8.866
-8.209
-7.57
-6.95
-6.352
-5.778
-5.23
-4.709
-4.219
-3.759
-3.334
-2.943
-2.589
-2.272
-1.994
-1.755
-1.555
-1.394
-1.272
-1.188
-1.141
-1.13
-1.155
-1.212
-1.302
-1.422
-1.57
-1.745
-1.945
-2.168
-2.412
-2.674
-2.953
-3.247
-3.553
-3.87
-4.195
-4.526
-4.862
-5.201
-5.54
-5.878
-6.213
-6.544
-6.869
-7.188
-7.498
-7.8
-8.094
-8.379
-8.655
-8.923
-9.184
-9.438
-9.686
-9.93
-10.17
-10.409
-10.647
-10.887
-11.13
-11.379
-11.635
-11.9
-12.177
-12.468
-12.774
-13.098
-13.442
-13.807
-14.196
-14.611
-15.053
-15.523
-16.024
-16.557
-17.122
-17.72
-18.352
-19.019
-19.719
-20.453
-21.22
-22.02
-22.851
-23.714
-24.606
-25.526
-26.474
-27.448
-28.445
-29.465
-30.504
-31.562
-32.635
-33.722
-34.82
-35.928
-37.042
-38.161
-39.283
-40.405
-41.525
-42.641
-43.75
-44.85
-45.94
-47.016
-48.078
-49.124
-50.153
-51.163
-52.153
-53.122
-54.068
-54.991
-55.89
-56.762
-57.606
-58.422
-59.207
-59.96
-60.68
-61.367
-62.019
-62.634
-63.212
-63.75
-64.247
-64.7
-65.108
-65.468
-65.777
-66.033
-66.234
-66.379
-66.464
-66.488
-66.447
-66.341
-66.165
-65.916
-65.591
-65.189
-64.708
-64.146
-63.504
-62.78
-61.97
-61.078
-60.109
-59.054
-57.909
-56.669
-55.327
-53.895
-52.388
-50.801
-49.123
-47.393
-45.64
-43.889
-42.181
-40.502
-38.82
-37.174
-35.626
-34.074
-32.396
-30.688
-28.956
-27.187
-25.694
-23.685
-20.389
-16.938
-13.682
-12.694
-16.456
-22.251
-28.269
-31.801
-29.115
-23.497
-17.739
-13.763
-14.749
-18.445
-22.564
-26.596
-29.147
-31.035
-33.298
-35.713
-38.36
-41.099
-43.664
-46.161
-48.692
-51.227
-53.729
-56.138
-58.362
-60.297
-61.885
-63.114
-63.912
-64.205
-64.015
-63.414
-62.675
-62.259
-62.43
-63.231
-64.674
-66.685
-69.199
-72.303
-75.681
-78.574
-80.517
-81.242
-80.774
-79.603
-77.978
-75.772
-73.394
-71.758
-71.712
-74.34
-80.141
-88.772
-100.147
-114.211
-130.242
-147
-162.59
-174.11
-178.972
-175.094
-160.135
-132.248
-90.157
-33.06
38.528
122.455
215.958
315.783
417.806
517.848
611.622
693.6
758.944
805.26
830.1
833.886
818.27
780.61
720.643
638.281
534.038
416.996
294.681
172.752
57.018
-53.817
-157.445
-247.041
-317.816
-362.784
-381.643
-381.757
-369.298
-351.811
-333.516
-313.26
-291.137
-267.263
-242.176
-218.631
-198.699
-182.813
-170.667
-161.355
-153.919
-147.92
-143.181
-138.97
-133.935
-127.29
-118.859
-108.747
-97.547
-85.809
-73.799
-62.173
-51.948
-43.704
-37.708
-34.009
-32.256
-32.135
-33.429
-35.704
-38.452
-41.356
-44.161
-46.711
-48.95
-50.716
-51.87
-52.379
-52.236
-51.467
-50.099
-48.126
-45.574
-42.52
-39.058
-35.289
-31.284
-27.074
-22.71
-18.258
-13.807
-9.483
-5.365
-1.49
2.11
5.421
8.44
11.161
13.612
15.852
17.931
19.895
21.785
23.617
25.427
27.259
29.16
31.188
33.389
35.787
38.411
41.281
44.412
47.818
51.496
55.425
59.591
63.983
68.59
73.406
78.416
83.591
88.912
94.37
99.952
105.644
111.421
117.232
123.044
128.849
134.605
140.234
145.671
150.841
155.707
160.299
164.606
168.532
172.11
175.552
178.891
182.026
184.965
187.442
189.879
193.764
198.832
203.664
206.043
201.701
190.703
177.38
165.984
162.563
167.776
175.868
182.377
182.569
175.423
165.256
154.797
145.838
139.034
132.67
125.932
118.924
111.606
104.271
97.028
89.673
82.162
74.569
66.92
59.235
51.554
43.917
36.372
28.989
21.805
14.825
8.066
1.549
-4.707
-10.684
-16.369
-21.754
-26.829
-31.585
-36.011
-40.104
-43.86
-47.277
-50.358
-53.102
-55.514
-57.6
-59.365
-60.817
-61.967
-62.823
-63.399
-63.706
-63.759
-63.57
-63.157
-62.532
-61.714
-60.717
-59.557
-58.25
-56.813
-55.26
-53.606
-51.866
-50.055
-48.186
-46.272
-44.326
-42.36
-40.385
-38.412
-36.451
-34.51
-32.6
-30.728
-28.9
-27.124
-25.405
-23.748
-22.159
-20.64
-19.194
-17.824
-16.532
-15.319
-14.184
-13.128
-12.15
-11.248
-10.422
-9.67
-8.988
-8.375
-7.828
-7.343
-6.919
-6.55
-6.234
-5.967
-5.745
-5.563
-5.419
-5.308
-5.224
-5.165
-5.126
-5.101
-5.087
-5.079
-5.072
-5.063
-5.046
-5.017
-4.974
-4.91
-4.824
-4.711
-4.569
-4.394
-4.183
-3.935
-3.647
-3.316
-2.941
-2.522
-2.056
-1.543
-0.982
-0.375
0.28
0.98
1.726
2.516
3.347
4.218
5.125
6.066
7.038
8.035
9.054
10.091
11.14
12.196
13.256
14.312
15.36
16.395
17.411
18.403
19.365
20.292
21.178
22.019
22.81
23.547
24.224
24.838
25.384
25.861
26.267
26.599
26.852
27.022
27.106
27.104
27.019
26.851
26.591
26.245
25.83
25.359
24.85
24.305
23.705
23.05
22.369
21.648
20.84
19.906
18.807
17.54
16.18
14.752
13.189
11.568
10.158
9.022
8.085
7.385
6.645
6.385
8.252
11.912
15.85
17.598
12.483
0.742
-12.92
-23.83
-25.352
-17.001
-5.066
5.584
9.714
6.355
0.203
-5.845
-9.831
-11.141
-11.691
-12.367
-13.102
-13.969
-14.682
-15.169
-15.691
-16.329
-17.039
-17.831
-18.716
-19.685
-20.725
-21.812
-22.9
-23.973
-25.048
-26.128
-27.206
-28.28
-29.341
-30.387
-31.416
-32.424
-33.403
-34.343
-35.238
-36.079
-36.859
-37.572
-38.209
-38.763
-39.227
-39.594
-39.859
-40.015
-40.058
-39.981
-39.782
-39.456
-39.001
-38.413
-37.693
-36.841
-35.856
-34.743
-33.504
-32.144
-30.667
-29.079
-27.388
-25.6
-23.726
-21.774
-19.755
-17.682
-15.567
-13.427
-11.275
-9.13
-7.008
-4.929
-2.911
-0.977
0.853
2.556
4.107
5.487
6.673
7.649
8.397
8.901
9.149
9.13
8.835
8.257
7.387
6.219
4.753
2.992
0.951
-1.354
-3.904
-6.686
-9.691
-12.913
-16.342
-19.966
-23.781
-27.779
-31.947
-36.259
-40.657
-45.089
-49.503
-53.867
-58.18
-62.428
-66.581
-70.589
-74.38
-77.871
-81.011
-83.715
-85.857
-87.408
-88.412
-89.025
-89.588
-90.381
-91.574
-93.386
-95.936
-99.056
-102.419
-105.46
-107.337
-107.511
-105.606
-101.108
-93.894
-84.375
-73.266
-61.794
-51.424
-43.083
-37.713
-36.618
-40.457
-49.422
-63.284
-80.873
-100.937
-121.711
-139.873
-151.686
-153.85
-146.444
-133.568
-118.625
-102.839
-79.398
-33.605
45.902
164.632
314.669
472.996
615.787
724.553
792.492
827.895
844.268
851.366
852.504
843.442
815.949
765.579
692.551
601.195
498.971
391.578
282.266
170.924
55.944
-60.234
-171.731
-268.22
-337.805
-376.294
-385.655
-373.654
-353.124
-331.649
-313.005
-298.056
-281.907
-262.516
-239.936
-214.541
-190.882
-171.399
-155.96
-144.843
-136.477
-129.664
-124.351
-119.496
-113.886
-106.976
-98.526
-89.045
-78.42
-66.337
-54.137
-42.721
-35.109
-34.376
-37.948
-43.91
-49.051
-49.159
-47.318
-45.998
-46.672
-52.196
-59.973
-67.412
-73.872
-77.849
-80.09
-81.649
-82.349
-82.338
-81.573
-79.905
-77.542
-74.692
-71.427
-67.811
-63.912
-59.805
-55.566
-51.306
-47.134
-43.103
-39.261
-35.648
-32.274
-29.151
-26.278
-23.615
-21.111
-18.716
-16.383
-14.078
-11.776
-9.436
-7.013
-4.456
-1.708
1.269
4.5
8.008
11.809
15.912
20.321
25.026
30.005
35.241
40.719
46.423
52.338
58.444
64.713
71.12
77.635
84.227
90.866
97.519
104.153
110.733
117.228
123.604
129.832
135.879
141.712
147.296
152.599
157.588
162.232
166.5
170.364
173.798
176.777
179.281
181.29
182.789
183.765
184.207
184.108
183.463
182.27
180.532
178.252
175.439
172.104
168.261
163.926
159.118
153.86
148.176
142.092
135.637
128.841
121.736
114.355
106.732
98.903
90.901
82.765
74.528
66.228
57.9
49.579
41.3
33.095
24.996
17.034
9.238
1.635
-5.748
-12.887
-19.762
-26.352
-32.639
-38.608
-44.247
-49.545
-54.493
-59.087
-63.323
-67.2
-70.72
-73.886
-76.703
-79.179
-81.324
-83.148
-84.663
-85.883
-86.823
-87.498
-87.926
-88.123
-88.106
-87.896
-87.508
-86.962
-86.277
-85.47
-84.56
-83.563
-82.498
-81.381
-80.227
-79.051
-77.868
-76.689
-75.528
-74.393
-73.295
-72.242
-71.239
-70.292
-69.406
-68.583
-67.825
-67.132
-66.505
-65.942
-65.441
-64.999
-64.614
-64.282
-63.998
-63.759
-63.56
-63.396
-63.264
-63.158
-63.075
-63.01
-62.958
-62.916
-62.881
-62.849
-62.818
-62.786
-62.75
-62.71
-62.665
-62.617
-62.564
-62.511
-62.457
-62.407
-62.364
-62.331
-62.314
-62.316
-62.344
-62.402
-62.496
-62.631
-62.812
-63.045
-63.333
-63.682
-64.094
-64.574
-65.124
-65.747
-66.444
-67.217
-68.066
-68.992
-69.993
-71.068
-72.215
-73.431
-74.712
-76.054
-77.452
-78.901
-80.394
-81.924
-83.484
-85.065
-86.66
-88.259
-89.853
-91.432
-92.987
-94.509
-95.987
-97.414
-98.778
-100.073
-101.29
-102.421
-103.459
-104.397
-105.229
-105.95
-106.555
-107.04
-107.403
-107.64
-107.751
-107.735
-107.591
-107.322
-106.927
-106.411
-105.776
-105.025
-104.165
-103.199
-102.135
-100.978
-99.736
-98.417
-97.028
-95.578
-94.074
-92.527
-90.944
-89.334
-87.707
-86.071
-84.434
-82.805
-81.192
-79.604
-78.047
-76.531
-75.061
-73.644
-72.286
-70.993
-69.77
-68.62
-67.549
-66.559
-65.653
-64.834
-64.104
-63.462
-62.911
-62.448
-62.074
-61.788
-61.587
-61.469
-61.432
-61.471
-61.585
-61.769
-62.019
-62.331
-62.698
-63.117
-63.581
-64.084
-64.62
-65.181
-65.762
-66.356
-66.955
-67.552
-68.141
-68.714
-69.263
-69.782
-70.263
-70.698
-71.079
-71.401
-71.655
-71.835
-71.935
-71.95
-71.874
-71.701
-71.428
-71.049
-70.56
-69.957
-69.238
-68.398
-67.435
-66.349
-65.139
-63.804
-62.346
-60.765
-59.065
-57.25
-55.323
-53.288
-51.152
-48.921
-46.603
-44.206
-41.74
-39.217
-36.647
-34.048
-31.433
-28.821
-26.227
-23.67
-21.168
-18.738
-16.398
-14.162
-12.045
-10.062
-8.228
-6.561
-5.076
-3.791
-2.72
-1.876
-1.27
-0.914
-0.814
-0.97
-1.38
-2.044
-2.963
-4.152
-5.62
-7.37
-9.401
-11.706
-14.269
-17.068
-20.07
-23.22
-26.461
-29.74
-33.005
-36.218
-39.341
-42.324
-45.108
-47.617
-49.781
-51.546
-52.859
-53.685
-54.025
-53.894
-53.354
-52.514
-51.46
-50.295
-49.143
-48.106
-47.308
-46.884
-46.937
-47.64
-49.245
-51.895
-55.601
-60.226
-65.395
-70.709
-75.809
-80.128
-82.958
-83.844
-82.665
-79.75
-75.893
-71.975
-68.862
-67.513
-68.913
-72.655
-76.666
-78.772
-77.19
-72.853
-68.558
-63.728
-52.756
-24.898
31.037
119.061
233.521
360.919
486.933
602.202
703.232
790.387
862.824
916.986
948.134
952.778
930.974
884.464
815.045
723.365
609.096
475.549
331.264
188.722
60.915
-44.402
-126.829
-191.904
-245.641
-290.983
-327.589
-352.124
-362.852
-360.879
-348.609
-329.716
-307.15
-282.395
-256.182
-228.851
-200.578
-171.938
-143.869
-117.068
-92.109
-69.324
-48.978
-31.516
-17.393
-6.588
1.449
7.442
12.307
16.555
20.377
24.106
28.016
32.148
36.309
40.032
42.656
43.93
43.956
42.857
40.868
38.226
35.185
32.217
29.868
28.456
28.094
28.769
30.37
32.836
36.132
40.145
44.716
49.692
54.943
60.39
65.975
71.618
77.196
82.553
87.575
92.196
96.389
100.155
103.497
106.417
108.939
111.12
113.015
114.679
116.16
117.489
118.71
119.877
121.053
122.312
123.712
125.293
127.089
129.122
131.413
133.979
136.825
139.942
143.323
146.965
150.865
155.021
159.427
164.069
168.93
173.99
179.23
184.628
190.161
195.804
201.529
207.311
213.121
218.934
224.72
230.446
236.08
241.585
246.927
252.071
256.982
261.623
265.961
269.964
273.601
276.844
279.666
282.042
283.95
285.371
286.288
286.686
286.555
285.886
284.675
282.921
280.624
277.79
274.426
270.543
266.154
261.276
255.927
250.129
243.906
237.283
230.289
222.953
215.306
207.382
199.215
190.84
182.293
173.611
164.83
155.987
147.118
138.257
129.441
120.702
112.073
103.585
95.266
87.145
79.246
71.594
64.21
57.112
50.317
43.839
37.69
31.88
26.415
21.301
16.54
12.133
8.078
4.371
1.007
-2.023
-4.728
-7.119
-9.209
-11.013
-12.545
-13.823
-14.863
-15.683
-16.302
-16.739
-17.013
-17.143
-17.148
-17.047
-16.858
-16.6
-16.288
-15.939
-15.569
-15.19
-14.816
-14.46
-14.131
-13.84
-13.595
-13.404
-13.273
-13.207
-13.209
-13.283
-13.43
-13.65
-13.943
-14.308
-14.741
-15.241
-15.802
-16.421
-17.093
-17.813
-18.573
-19.369
-20.193
-21.039
-21.899
-22.768
-23.638
-24.503
-25.357
-26.194
-27.008
-27.796
-28.551
-29.271
-29.95
-30.586
-31.176
-31.717
-32.207
-32.646
-33.032
-33.364
-33.645
-33.873
-34.05
-34.178
-34.259
-34.294
-34.286
-34.238
-34.152
-34.033
-33.882
-33.705
-33.504
-33.284
-33.048
-32.802
-32.548
-32.291
-32.035
-31.784
-31.541
-31.31
-31.095
-30.898
-30.725
-30.576
-30.457
-30.37
-30.317
-30.302
-30.326
-30.392
-30.501
-30.655
-30.857
-31.106
-31.405
-31.754
-32.156
-32.61
-33.117
-33.68
-34.298
-34.972
-35.701
-36.487
-37.329
-38.227
-39.181
-40.19
-41.253
-42.371
-43.542
-44.765
-46.04
-47.365
-48.739
-50.16
-51.626
-53.135
-54.686
-56.275
-57.9
-59.56
-61.252
-62.974
-64.722
-66.495
-68.289
-70.1
-71.926
-73.76
-75.6
-77.44
-79.275
-81.1
-82.911
-84.702
-86.468
-88.203
-89.903
-91.563
-93.176
-94.738
-96.244
-97.688
-99.066
-100.373
-101.606
-102.762
-103.837
-104.828
-105.733
-106.55
-107.278
-107.915
-108.459
-108.912
-109.274
-109.546
-109.731
-109.832
-109.853
-109.801
-109.685
-109.516
-109.302
-109.056
-108.792
-108.522
-108.261
-108.022
-107.817
-107.657
-107.555
-107.523
-107.574
-107.723
-107.981
-108.361
-108.873
-109.528
-110.335
-111.3
-112.425
-113.709
-115.152
-116.759
-118.542
-120.515
-122.683
-125.049
-127.613
-130.363
-133.284
-136.351
-139.517
-142.734
-145.951
-149.118
-152.202
-155.162
-157.955
-160.526
-162.805
-164.721
-166.222
-167.26
-167.805
-167.855
-167.432
-166.597
-165.456
-164.11
-162.673
-161.273
-160.016
-159.022
-158.416
-158.291
-158.803
-160.182
-162.567
-165.986
-170.338
-175.288
-180.461
-185.507
-189.896
-192.944
-194.135
-193.242
-190.477
-186.511
-182.241
-178.518
-176.151
-176.252
-178.847
-182.241
-184.462
-182.863
-176.437
-168.012
-159.078
-148.459
-131.372
-95.938
-31.306
67.684
199.618
350.714
500.811
630.059
722.439
773.309
788.256
777.126
748.994
707.473
650.428
574.365
479.095
368.039
247.695
125.668
7.296
-103.416
-203.003
-289.304
-360.48
-415.272
-454.329
-479.057
-490.813
-491.477
-482.807
-466.466
-444.754
-419.886
-392.975
-364.72
-335.934
-307.434
-280.617
-256.808
-236.239
-218.651
-203.994
-192.237
-183.369
-176.974
-171.679
-166.215
-159.233
-149.995
-139.659
-128.74
-119.306
-113.907
-110.753
-109.129
-106.941
-100.716
-93.404
-87.31
-84.041
-86.438
-91.959
-97.905
-103.37
-106.745
-108.666
-110.087
-110.772
-110.788
-110.05
-108.402
-106.047
-103.162
-99.781
-95.948
-91.713
-87.124
-82.225
-77.068
-71.717
-66.235
-60.713
-55.255
-49.925
-44.765
-39.809
-35.063
-30.509
-26.13
-21.887
-17.731
-13.628
-9.546
-5.452
-1.323
2.875
7.182
11.638
16.289
21.171
26.305
31.71
37.39
43.341
49.556
56.019
62.701
69.578
76.629
83.828
91.155
98.585
106.087
113.629
121.177
128.695
136.15
143.505
150.725
157.773
164.616
171.219
177.552
183.582
189.277
194.604
199.531
204.028
208.067
211.622
214.667
217.183
219.149
220.552
221.38
221.625
221.281
220.347
218.823
216.715
214.03
210.78
206.978
202.64
197.786
192.439
186.623
180.366
173.697
166.648
159.252
151.544
143.56
135.339
126.918
118.336
109.632
100.846
92.017
83.184
74.384
65.655
57.033
48.552
40.245
32.142
24.272
16.661
9.334
2.311
-4.387
-10.745
-16.746
-22.381
-27.639
-32.513
-37
-41.098
-44.806
-48.129
-51.071
-53.64
-55.844
-57.695
-59.206
-60.39
-61.264
-61.844
-62.149
-62.196
-62.006
-61.598
-60.993
-60.21
-59.27
-58.193
-56.998
-55.704
-54.329
-52.892
-51.408
-49.892
-48.361
-46.827
-45.302
-43.797
-42.322
-40.885
-39.494
-38.154
-36.871
-35.646
-34.483
-33.382
-32.344
-31.368
-30.451
-29.591
-28.785
-28.029
-27.318
-26.648
-26.014
-25.409
-24.83
-24.27
-23.724
-23.187
-22.653
-22.118
-21.577
-21.027
-20.463
-19.882
-19.282
-18.661
-18.018
-17.351
-16.662
-15.95
-15.216
-14.463
-13.692
-12.906
-12.109
-11.305
-10.497
-9.691
-8.89
-8.1
-7.326
-6.572
-5.844
-5.147
-4.484
-3.86
-3.279
-2.746
-2.264
-1.836
-1.466
-1.157
-0.91
-0.728
-0.612
-0.562
-0.581
-0.666
-0.818
-1.035
-1.317
-1.661
-2.064
-2.524
-3.038
-3.602
-4.211
-4.862
-5.549
-6.268
-7.014
-7.782
-8.567
-9.364
-10.169
-10.977
-11.784
-12.586
-13.38
-14.161
-14.925
-15.67
-16.392
-17.089
-17.757
-18.394
-18.998
-19.569
-20.103
-20.601
-21.062
-21.484
-21.867
-22.211
-22.516
-22.782
-23.01
-23.201
-23.356
-23.477
-23.564
-23.62
-23.646
-23.643
-23.613
-23.556
-23.473
-23.364
-23.229
-23.068
-22.881
-22.668
-22.428
-22.162
-21.867
-21.543
-21.19
-20.805
-20.388
-19.936
-19.447
-18.921
-18.355
-17.748
-17.098
-16.405
-15.667
-14.882
-14.051
-13.171
-12.241
-11.262
-10.232
-9.153
-8.024
-6.848
-5.628
-4.366
-3.071
-1.748
-0.406
0.947
2.302
3.648
4.973
6.269
7.525
8.732
9.882
10.962
11.962
12.868
13.669
14.352
14.907
15.322
15.587
15.695
15.641
15.424
15.039
14.48
13.73
12.776
11.609
10.221
8.612
6.789
4.763
2.558
0.213
-2.229
-4.721
-7.219
-9.69
-12.099
-14.404
-16.559
-18.496
-20.152
-21.477
-22.423
-22.965
-23.102
-22.851
-22.268
-21.452
-20.504
-19.538
-18.686
-18.059
-17.795
-18.035
-18.883
-20.497
-23.087
-26.784
-31.666
-37.653
-44.385
-51.51
-58.722
-65.522
-71.339
-75.711
-78.207
-78.877
-78.503
-77.734
-76.966
-76.909
-78.167
-80.951
-85.596
-90.733
-92.711
-89.609
-80.308
-64.519
-44.704
-18.526
20.386
77.11
157.086
258.418
371.256
486.214
593.583
687.361
766.455
828.673
871.687
892.719
888.557
858.356
802.802
724.06
626.118
513.408
391.02
264.6
139.008
18.683
-92.09
-189.862
-272.106
-337.143
-384.568
-415.183
-429.916
-429.916
-416.944
-393.152
-361.047
-323.38
-282.674
-240.762
-199.619
-161.499
-128.2
-101.012
-80.421
-65.984
-56.916
-52.577
-51.896
-53.232
-54.965
-55.578
-54.227
-50.931
-45.967
-39.61
-32.383
-25.045
-18.487
-13.702
-11.174
-10.81
-12.354
-15.433
-19.643
-24.611
-29.814
-34.602
-38.571
-41.556
-43.513
-44.543
-44.714
-44.031
-42.571
-40.459
-37.807
-34.737
-31.332
-27.632
-23.704
-19.635
-15.535
-11.549
-7.776
-4.264
-1.041
1.895
4.545
6.907
9.008
10.9
12.638
14.277
15.863
17.428
19.014
20.674
22.467
24.461
26.707
29.234
32.067
35.224
38.715
42.552
46.73
51.233
56.046
61.154
66.546
72.211
78.132
84.283
90.639
97.17
103.849
110.644
117.525
124.456
131.404
138.332
145.206
151.993
158.656
165.159
171.462
177.527
183.317
188.795
193.925
198.674
203.008
206.898
210.317
213.242
215.651
217.527
218.853
219.618
219.814
219.436
218.484
216.959
214.862
212.199
208.981
205.222
200.941
196.156
190.884
185.151
179
172.471
165.606
158.44
150.983
143.269
135.356
127.264
118.981
110.505
101.832
92.995
84.095
75.182
66.222
57.322
48.758
40.601
32.811
25.445
18.252
11.778
7.553
5.2
3.373
-0.265
-10.023
-25.447
-42.245
-56.075
-60.787
-56.241
-48.203
-41.115
-39.854
-45.08
-52.478
-59.467
-64.216
-66.265
-67.399
-68.389
-69.201
-69.905
-70.245
-70.183
-69.971
-69.691
-69.319
-68.876
-68.388
-67.858
-67.289
-66.671
-65.975
-65.199
-64.373
-63.511
-62.619
-61.706
-60.775
-59.833
-58.892
-57.958
-57.031
-56.115
-55.212
-54.325
-53.457
-52.611
-51.788
-50.99
-50.219
-49.476
-48.762
-48.08
-47.429
-46.812
-46.228
-45.679
-45.166
-44.69
-44.251
-43.85
-43.489
-43.168
-42.889
-42.652
-42.459
-42.31
-42.207
-42.15
-42.141
-42.18
-42.267
-42.404
-42.589
-42.823
-43.105
-43.434
-43.806
-44.222
-44.677
-45.168
-45.692
-46.244
-46.821
-47.419
-48.031
-48.653
-49.281
-49.91
-50.534
-51.149
-51.75
-52.334
-52.895
-53.43
-53.935
-54.408
-54.844
-55.243
-55.601
-55.917
-56.19
-56.419
-56.603
-56.744
-56.843
-56.9
-56.918
-56.901
-56.852
-56.775
-56.677
-56.562
-56.437
-56.308
-56.184
-56.07
-55.976
-55.907
-55.873
-55.881
-55.937
-56.049
-56.222
-56.464
-56.779
-57.173
-57.648
-58.21
-58.859
-59.6
-60.431
-61.354
-62.369
-63.474
-64.668
-65.947
-67.308
-68.747
-70.259
-71.837
-73.474
-75.163
-76.895
-78.66
-80.449
-82.252
-84.056
-85.851
-87.625
-89.365
-91.062
-92.701
-94.273
-95.765
-97.167
-98.467
-99.657
-100.727
-101.668
-102.472
-103.132
-103.641
-103.994
-104.187
-104.215
-104.076
-103.767
-103.288
-102.637
-101.816
-100.827
-99.67
-98.351
-96.873
-95.243
-93.466
-91.551
-89.505
-87.34
-85.064
-82.689
-80.227
-77.689
-75.087
-72.436
-69.748
-67.038
-64.319
-61.608
-58.92
-56.274
-53.688
-51.178
-48.764
-46.46
-44.284
-42.255
-40.388
-38.701
-37.206
-35.917
-34.846
-34.008
-33.415
-33.076
-32.995
-33.174
-33.612
-34.31
-35.266
-36.478
-37.937
-39.631
-41.55
-43.688
-46.04
-48.6
-51.354
-54.283
-57.363
-60.573
-63.884
-67.264
-70.671
-74.059
-77.377
-80.571
-83.596
-86.411
-88.978
-91.268
-93.233
-94.81
-95.944
-96.581
-96.704
-96.351
-95.543
-94.268
-92.603
-90.695
-88.824
-87.447
-86.827
-86.971
-87.902
-89.666
-92.207
-95.417
-98.693
-100.817
-101.005
-99.007
-94.75
-88.44
-80.289
-70.482
-60.14
-51.389
-45.93
-45.017
-49.379
-58.885
-72.555
-88.401
-103.634
-115.24
-123.218
-129.246
-132.295
-127.632
-104.759
-52.278
33.088
144.699
269.693
394.918
513.116
624.616
728.731
819.788
890.196
929.694
933.835
907.244
855.099
783.608
697.334
596.423
483.365
363.437
241.078
120.893
6.088
-103.245
-203.843
-289.478
-354.765
-393.759
-406.768
-400.621
-382.026
-358.881
-335.24
-309.846
-282.662
-253.667
-223.851
-196.895
-174.866
-157.868
-145.526
-136.641
-130.15
-125.715
-122.757
-119.903
-115.815
-109.885
-102.075
-92.876
-82.972
-72.768
-62.658
-53.438
-46.036
-40.992
-38.464
-38.265
-39.981
-43.262
-47.8
-53.181
-58.9
-64.564
-69.888
-74.641
-78.696
-81.964
-84.367
-85.89
-86.572
-86.436
-85.518
-83.884
-81.601
-78.752
-75.442
-71.734
-67.684
-63.374
-58.89
-54.355
-49.9
-45.606
-41.517
-37.668
-34.074
-30.745
-27.681
-24.842
-22.176
-19.638
-17.185
-14.789
-12.427
-10.061
-7.649
-5.139
-2.477
0.376
3.444
6.752
10.315
14.142
18.239
22.597
27.194
32.018
37.056
42.297
47.731
53.342
59.109
65.011
71.024
77.126
83.29
89.491
95.701
101.893
108.038
114.112
120.088
125.938
131.635
137.147
142.446
147.501
152.284
156.766
160.92
164.721
168.144
171.169
173.775
175.946
177.667
178.923
179.705
180.003
179.813
179.13
177.954
176.286
174.131
171.495
168.388
164.82
160.806
156.361
151.505
146.257
140.639
134.676
128.392
121.815
114.972
107.894
100.61
93.151
85.547
77.832
70.037
62.192
54.329
46.479
38.671
30.934
23.296
15.785
8.426
1.245
-5.737
-12.496
-19.013
-25.27
-31.248
-36.935
-42.316
-47.381
-52.12
-56.525
-60.592
-64.316
-67.695
-70.73
-73.421
-75.773
-77.791
-79.482
-80.852
-81.913
-82.674
-83.147
-83.345
-83.281
-82.97
-82.428
-81.668
-80.709
-79.566
-78.257
-76.799
-75.208
-73.503
-71.7
-69.816
-67.868
-65.871
-63.841
-61.793
-59.742
-57.699
-55.679
-53.694
-51.754
-49.87
-48.05
-46.304
-44.638
-43.059
-41.572
-40.181
-38.891
-37.703
-36.62
-35.641
-34.769
-34.001
-33.336
-32.771
-32.304
-31.931
-31.647
-31.448
-31.327
-31.278
-31.296
-31.372
-31.501
-31.675
-31.886
-32.128
-32.392
-32.672
-32.959
-33.248
-33.532
-33.803
-34.056
-34.284
-34.483
-34.647
-34.771
-34.851
-34.884
-34.865
-34.793
-34.664
-34.477
-34.232
-33.926
-33.561
-33.136
-32.653
-32.113
-31.519
-30.873
-30.178
-29.438
-28.657
-27.839
-26.988
-26.111
-25.211
-24.293
-23.363
-22.425
-21.485
-20.548
-19.617
-18.699
-17.797
-16.915
-16.059
-15.23
-14.434
-13.672
-12.948
-12.263
-11.619
-11.018
-10.46
-9.946
-9.475
-9.047
-8.662
-8.316
-8.009
-7.737
-7.498
-7.287
-7.102
-6.938
-6.791
-6.656
-6.528
-6.404
-6.278
-6.147
-6.006
-5.85
-5.676
-5.48
-5.259
-5.008
-4.725
-4.407
-4.052
-3.659
-3.226
-2.752
-2.237
-1.682
-1.086
-0.452
0.22
0.927
1.667
2.437
3.233
4.052
4.889
5.74
6.6
7.464
8.326
9.183
10.029
10.859
11.67
12.457
13.217
13.947
14.643
15.303
15.927
16.512
17.057
17.563
18.031
18.461
18.858
19.222
19.559
19.873
20.169
20.454
20.734
21.016
21.308
21.618
21.955
22.328
22.747
23.221
23.76
24.374
25.074
25.869
26.767
27.779
28.911
30.171
31.565
33.1
34.78
36.608
38.588
40.72
43.006
45.444
48.031
50.764
53.637
56.643
59.773
63.016
66.359
69.784
73.276
76.816
80.384
83.96
87.521
91.047
94.521
97.921
101.23
104.426
107.488
110.393
113.122
115.656
117.976
120.067
121.913
123.502
124.833
125.9
126.699
127.221
127.445
127.354
126.938
126.192
125.118
123.726
122.029
120.057
117.861
115.49
112.999
110.438
107.846
105.266
102.751
100.368
98.198
96.324
94.822
93.731
93.064
92.815
92.957
93.439
94.192
95.113
96.051
96.912
97.654
98.2
98.466
98.267
97.269
95.237
92.143
87.95
82.611
76.423
69.884
63.521
58.337
54.32
49.99
45.55
41.87
40.767
46.343
57.63
69.556
76.847
72.279
54.903
29.684
2.259
-18.312
-24.559
-9.834
32.262
102.616
199.347
314.46
437.318
560.995
676.986
780.911
870.155
938.617
985.488
1009.82
1010.017
988.541
944.938
878.984
793.203
690.13
574.161
451.474
328.36
208.714
95.153
-10.784
-110.475
-201.118
-276.084
-330.351
-357.331
-356.92
-337.912
-308.324
-276.972
-248.162
-218.272
-186.164
-153.088
-122.486
-102.267
-94.168
-92.895
-92.659
-85.253
-68.904
-49.981
-32.842
-21.895
-17.926
-15.857
-12.88
-7.586
0.541
9.439
16.931
21.85
24.31
24.537
24.637
26.815
28.863
29.514
26.53
16.882
4.073
-8.981
-20.28
-26.753
-30.375
-33.151
-35.437
-38.456
-41.496
-43.662
-45.204
-46.065
-46.353
-46.318
-45.895
-45.048
-43.883
-42.473
-40.876
-39.168
-37.43
-35.751
-34.215
-32.876
-31.74
-30.783
-29.983
-29.313
-28.732
-28.196
-27.659
-27.078
-26.417
-25.651
-24.747
-23.666
-22.369
-20.807
-18.943
-16.757
-14.233
-11.368
-8.163
-4.624
-0.766
3.387
7.812
12.488
17.393
22.508
27.809
33.269
38.855
44.533
50.27
56.032
61.784
67.491
73.117
78.629
83.992
89.178
94.155
98.891
103.355
107.515
111.343
114.811
117.894
120.567
122.809
124.602
125.929
126.778
127.139
127.004
126.369
125.231
123.591
121.453
118.825
115.714
112.133
108.097
103.622
98.728
93.438
87.776
81.766
75.437
68.817
61.937
54.828
47.521
40.048
32.441
24.733
16.956
9.141
1.319
-6.481
-14.228
-21.897
-29.46
-36.892
-44.172
-51.277
-58.187
-64.884
-71.353
-77.578
-83.548
-89.25
-94.678
-99.823
-104.682
-109.251
-113.529
-117.518
-121.219
-124.638
-127.779
-130.65
-133.259
-135.616
-137.73
-139.615
-141.28
-142.74
-144.006
-145.092
-146.01
-146.774
-147.395
-147.886
-148.259
-148.525
-148.694
-148.778
-148.785
-148.726
-148.608
-148.44
-148.23
-147.983
-147.706
-147.404
-147.081
-146.743
-146.391
-146.028
-145.658
-145.281
-144.898
-144.51
-144.116
-143.717
-143.311
-142.898
-142.476
-142.044
-141.6
-141.145
-140.676
-140.193
-139.697
-139.187
-138.663
-138.126
-137.579
-137.02
-136.454
-135.881
-135.304
-134.724
-134.146
-133.572
-133.003
-132.445
-131.898
-131.367
-130.853
-130.36
-129.891
-129.447
-129.032
-128.647
-128.295
-127.978
-127.697
-127.455
-127.253
-127.091
-126.971
-126.893
-126.856
-126.86
-126.904
-126.986
-127.105
-127.256
-127.438
-127.647
-127.878
-128.127
-128.39
-128.662
-128.938
-129.212
-129.479
-129.735
-129.974
-130.191
-130.381
-130.541
-130.666
-130.752
-130.796
-130.793
-130.743
-130.641
-130.486
-130.277
-130.011
-129.688
-129.307
-128.868
-128.372
-127.819
-127.208
-126.544
-125.83
-125.07
-124.267
-123.425
-122.546
-121.639
-120.712
-119.764
-118.796
-117.807
-116.798
-115.781
-114.776
-113.778
-112.782
-111.82
-110.918
-110.096
-109.384
-108.766
-108.203
-107.723
-107.368
-107.035
-106.597
-106.132
-105.635
-105.08
-104.739
-103.88
-101.789
-99.481
-97.261
-96.996
-100.917
-106.543
-112.221
-115.488
-112.963
-107.626
-102.001
-97.814
-97.926
-100.279
-102.791
-104.994
-105.614
-105.381
-105.232
-104.983
-104.749
-104.464
-103.932
-103.277
-102.596
-101.855
-101.046
-100.182
-99.262
-98.279
-97.234
-96.112
-94.896
-93.604
-92.251
-90.843
-89.392
-87.91
-86.407
-84.902
-83.415
-81.962
-80.559
-79.223
-77.966
-76.806
-75.757
-74.835
-74.053
-73.423
-72.958
-72.67
-72.576
-72.688
-73.016
-73.562
-74.316
-75.27
-76.422
-77.772
-79.331
-81.101
-83.078
-85.262
-87.65
-90.237
-93.011
-95.941
-98.963
-102.015
-105.041
-108.006
-110.908
-113.74
-116.466
-119.012
-121.278
-123.186
-124.686
-125.764
-126.376
-126.433
-125.932
-125.012
-123.963
-123.113
-122.637
-122.47
-122.493
-122.76
-123.268
-123.91
-124.399
-124.261
-123.319
-121.843
-120.191
-118.493
-116.835
-115.235
-113.797
-112.961
-112.867
-113.358
-114.361
-115.838
-117.937
-120.978
-125.105
-130.306
-135.686
-139.143
-138.706
-132.265
-119.942
-104.744
-87.011
-65.649
-35.534
14.072
88.781
190.933
317.171
453.236
584.941
697.289
777.48
823.647
838.877
830.256
805.799
767.896
715.273
645.298
557.195
453.712
340.202
223.232
107.776
-2.536
-104.62
-196.217
-275.217
-339.815
-389.467
-424.632
-446.05
-454.767
-451.734
-438.094
-415.668
-386.642
-353.068
-316.454
-278.152
-239.744
-203.322
-170.897
-143.563
-121.516
-104.451
-92.108
-84.093
-79.545
-76.861
-74.128
-70.15
-64.547
-57.406
-48.97
-39.53
-29.519
-19.839
-11.686
-5.74
-2.168
-0.827
-1.341
-3.404
-6.758
-10.92
-15.254
-19.322
-22.851
-25.712
-27.91
-29.371
-30.004
-29.805
-28.824
-27.141
-24.833
-21.948
-18.512
-14.573
-10.188
-5.426
-0.37
4.929
10.409
16.009
21.659
27.262
32.745
38.073
43.231
48.23
53.087
57.818
62.449
67.019
71.563
76.115
80.703
85.343
90.054
94.865
99.806
104.918
110.231
115.756
121.498
127.454
133.615
139.971
146.501
153.173
159.959
166.832
173.768
180.746
187.74
194.722
201.658
208.517
215.266
221.876
228.314
234.55
240.552
246.293
251.746
256.886
261.69
266.133
270.19
273.839
277.057
279.826
282.128
283.945
285.263
286.072
286.363
286.131
285.372
284.086
282.275
279.943
277.097
273.749
269.909
265.592
260.814
255.594
249.951
243.908
237.488
230.719
223.625
216.236
208.582
200.692
192.597
184.329
175.919
167.399
158.801
150.155
141.493
132.844
124.24
115.709
107.28
98.979
90.833
82.864
75.097
67.552
60.249
53.204
46.435
39.954
33.775
27.906
22.359
17.138
12.248
7.694
3.476
-0.407
-3.957
-7.178
-10.076
-12.658
-14.933
-16.91
-18.599
-20.013
-21.164
-22.066
-22.732
-23.176
-23.415
-23.464
-23.339
-23.057
-22.633
-22.084
-21.426
-20.676
-19.848
-18.958
-18.021
-17.05
-16.06
-15.062
-14.069
-13.093
-12.143
-11.229
-10.36
-9.542
-8.781
-8.083
-7.453
-6.893
-6.405
-5.991
-5.653
-5.39
-5.202
-5.089
-5.047
-5.076
-5.172
-5.331
-5.551
-5.826
-6.151
-6.522
-6.932
-7.376
-7.851
-8.351
-8.872
-9.408
-9.949
-10.494
-11.044
-11.585
-12.106
-12.599
-13.052
-13.471
-13.868
-14.23
-14.545
-14.841
-15.141
-15.463
-15.836
-16.237
-16.624
-17.024
-17.484
-17.888
-18.1
-18.206
-18.201
-18.064
-18.097
-17.494
-15.471
-13.158
-10.901
-10.772
-15.252
-21.605
-28.007
-31.741
-29.075
-23.317
-17.272
-12.863
-13.263
-16.207
-19.395
-22.317
-23.572
-23.971
-24.562
-25.142
-25.844
-26.595
-27.184
-27.744
-28.387
-29.072
-29.789
-30.549
-31.346
-32.17
-33.014
-33.854
-34.666
-35.454
-36.227
-36.977
-37.704
-38.405
-39.076
-39.717
-40.33
-40.912
-41.461
-41.976
-42.457
-42.904
-43.32
-43.706
-44.063
-44.395
-44.704
-44.994
-45.269
-45.53
-45.783
-46.03
-46.275
-46.52
-46.768
-47.021
-47.283
-47.554
-47.838
-48.133
-48.441
-48.762
-49.095
-49.44
-49.793
-50.153
-50.516
-50.88
-51.241
-51.594
-51.935
-52.26
-52.562
-52.834
-53.071
-53.265
-53.408
-53.491
-53.507
-53.446
-53.3
-53.063
-52.726
-52.283
-51.728
-51.055
-50.26
-49.338
-48.286
-47.1
-45.781
-44.328
-42.744
-41.03
-39.192
-37.239
-35.182
-33.031
-30.8
-28.501
-26.148
-23.759
-21.351
-18.943
-16.552
-14.193
-11.883
-9.644
-7.498
-5.466
-3.564
-1.806
-0.207
1.22
2.455
3.484
4.304
4.913
5.31
5.493
5.445
5.15
4.605
3.814
2.781
1.516
0.027
-1.675
-3.552
-5.563
-7.659
-9.785
-11.913
-14.018
-16.077
-18.081
-19.98
-21.707
-23.205
-24.407
-25.281
-25.854
-26.125
-26.064
-25.739
-25.27
-24.933
-25.193
-26.315
-28.325
-31.182
-34.829
-39.254
-44.431
-49.842
-54.351
-57.071
-57.61
-56.021
-52.7
-47.776
-41.267
-33.996
-27.936
-25.084
-26.748
-33.476
-44.917
-60.663
-80.508
-102.414
-121.811
-134.988
-139.09
-133.02
-119.033
-94.993
-55.162
4.865
89.451
195.247
311.372
427.879
535.132
627.322
703.276
760.92
798.447
814.123
806.204
775.107
721.947
648.736
559.064
456.68
345.653
230.557
114.884
1.626
-105.452
-202.904
-287.985
-358.341
-412.693
-450.969
-472.982
-478.703
-469.451
-447.426
-415.386
-376.583
-334.044
-290.189
-247.602
-209.161
-176.933
-151.829
-133.863
-122.232
-115.785
-113.499
-114.03
-115.397
-115.819
-114.263
-110.207
-103.917
-96.112
-87.248
-78.147
-69.332
-60.405
-52.328
-46.621
-45.317
-52.18
-66.479
-83.573
-98.655
-105.018
-101.83
-94.478
-87.249
-84.963
-88.435
-93.397
-97.278
-98.358
-96.22
-92.722
-88.742
-84.295
-79.508
-74.21
-68.446
-62.587
-56.861
-51.34
-46.094
-41.176
-36.587
-32.326
-28.384
-24.702
-21.221
-17.914
-14.738
-11.654
-8.635
-5.642
-2.625
0.468
3.703
7.126
10.766
14.644
18.774
23.165
27.823
32.743
37.904
43.292
48.893
54.694
60.689
66.86
73.186
79.642
86.202
92.842
99.535
106.255
112.971
119.654
126.275
132.804
139.215
145.477
151.558
157.425
163.044
168.382
173.408
178.09
182.396
186.297
189.767
192.78
195.314
197.349
198.867
199.85
200.288
200.168
199.483
198.228
196.401
194.003
191.038
187.513
183.438
178.826
173.692
168.056
161.94
155.366
148.361
140.955
133.177
125.06
116.638
107.947
99.025
89.908
80.635
71.245
61.777
52.271
42.764
33.294
23.899
14.615
5.476
-3.483
-12.23
-20.735
-28.97
-36.906
-44.52
-51.789
-58.692
-65.212
-71.333
-77.042
-82.329
-87.187
-91.608
-95.592
-99.136
-102.243
-104.918
-107.167
-108.999
-110.424
-111.455
-112.106
-112.393
-112.332
-111.943
-111.245
-110.257
-108.999
-107.495
-105.764
-103.829
-101.712
-99.435
-97.018
-94.484
-91.852
-89.142
-86.374
-83.566
-80.735
-77.898
-75.069
-72.263
-69.492
-66.77
-64.105
-61.507
-58.984
-56.543
-54.188
-51.925
-49.755
-47.68
-45.702
-43.82
-42.033
-40.339
-38.735
-37.218
-35.785
-34.429
-33.148
-31.935
-30.785
-29.694
-28.655
-27.662
-26.712
-25.798
-24.915
-24.059
-23.225
-22.41
-21.608
-20.816
-20.032
-19.252
-18.474
-17.696
-16.918
-16.137
-15.353
-14.566
-13.776
-12.984
-12.191
-11.399
-10.609
-9.823
-9.045
-8.276
-7.519
-6.778
-6.055
-5.354
-4.677
-4.028
-3.409
-2.823
-2.272
-1.76
-1.288
-0.859
-0.473
-0.133
0.16
0.404
0.6
0.746
0.842
0.887
0.881
0.825
0.719
0.562
0.357
0.103
-0.198
-0.544
-0.934
-1.366
-1.837
-2.345
-2.888
-3.462
-4.065
-4.694
-5.345
-6.016
-6.703
-7.403
-8.113
-8.829
-9.549
-10.269
-10.987
-11.7
-12.405
-13.098
-13.778
-14.441
-15.085
-15.707
-16.305
-16.875
-17.414
-17.918
-18.387
-18.818
-19.209
-19.56
-19.867
-20.125
-20.335
-20.501
-20.613
-20.662
-20.642
-20.543
-20.372
-20.147
-19.853
-19.478
-19.053
-18.603
-18.146
-17.714
-17.282
-16.8
-16.298
-15.825
-15.253
-14.431
-13.451
-12.307
-10.972
-9.776
-7.835
-4.29
-0.376
3.53
5.16
1.802
-3.55
-8.904
-11.289
-6.623
1.472
9.925
16.63
18.111
16.842
15.331
14.13
14.764
16.334
17.685
19.021
20.187
21.244
22.413
23.527
24.454
25.22
25.827
26.25
26.485
26.53
26.38
26.047
25.548
24.865
23.983
22.9
21.612
20.118
18.428
16.545
14.471
12.208
9.744
7.071
4.191
1.103
-2.182
-5.652
-9.292
-13.069
-16.932
-20.828
-24.701
-28.501
-32.196
-35.741
-39.083
-42.159
-44.882
-47.184
-49.013
-50.327
-51.104
-51.335
-51.03
-50.243
-49.072
-47.625
-46.034
-44.431
-42.937
-41.719
-40.929
-40.763
-41.494
-43.288
-46.208
-50.18
-54.882
-59.95
-65.06
-69.723
-73.323
-75.438
-75.822
-74.703
-73.009
-71.624
-71.299
-72.819
-76.687
-83.094
-91.833
-101.611
-109.874
-113.808
-110.419
-96.75
-70.537
-29.772
26.991
99.56
186.081
283.614
387.954
494.286
597.934
693.592
775.8
840.141
883.042
901.957
896.188
866.023
812.322
737.561
645.299
539.425
424.877
306.942
189.959
78.193
-24.271
-114.663
-190.788
-251.028
-295.681
-326.174
-343.822
-350.589
-348.586
-339.293
-324.788
-307.403
-288.141
-267.335
-245.514
-222.92
-200.243
-178.937
-159.47
-141.548
-125.452
-111.575
-100.088
-91.199
-84.279
-77.796
-71.024
-63.979
-56.597
-49.025
-41.394
-33.628
-26.205
-20.148
-15.993
-13.853
-13.681
-15.101
-17.796
-21.638
-26.284
-31.223
-36.072
-40.513
-44.325
-47.457
-49.862
-51.476
-52.299
-52.363
-51.702
-50.389
-48.499
-46.094
-43.249
-40.024
-36.467
-32.633
-28.592
-24.436
-20.261
-16.165
-12.206
-8.423
-4.84
-1.468
1.696
4.676
7.514
10.261
12.964
15.656
18.368
21.125
23.963
26.923
30.048
33.386
36.968
40.816
44.947
49.369
54.084
59.083
64.35
69.858
75.583
81.505
87.6
93.847
100.221
106.692
113.23
119.802
126.374
132.913
139.385
145.755
151.988
158.053
163.916
169.549
174.921
180
184.756
189.159
193.179
196.792
199.973
202.698
204.948
206.706
207.958
208.694
208.906
208.59
207.744
206.37
204.472
202.058
199.14
195.73
191.845
187.503
182.724
177.533
171.953
166.012
159.738
153.161
146.313
139.226
131.933
124.468
116.865
109.16
101.386
93.577
85.767
77.988
70.272
62.65
55.15
47.8
40.625
33.649
26.892
20.375
14.115
8.126
2.42
-2.992
-8.102
-12.904
-17.395
-21.574
-25.441
-28.998
-32.25
-35.203
-37.864
-40.243
-42.349
-44.196
-45.797
-47.165
-48.317
-49.267
-50.033
-50.631
-51.078
-51.392
-51.59
-51.689
-51.705
-51.655
-51.554
-51.417
-51.258
-51.091
-50.927
-50.777
-50.652
-50.561
-50.51
-50.508
-50.558
-50.667
-50.836
-51.07
-51.369
-51.735
-52.167
-52.665
-53.226
-53.848
-54.53
-55.266
-56.053
-56.887
-57.763
-58.676
-59.621
-60.592
-61.586
-62.596
-63.618
-64.645
-65.675
-66.701
-67.721
-68.729
-69.723
-70.698
-71.654
-72.586
-73.494
-74.375
-75.229
-76.054
-76.849
-77.614
-78.349
-79.053
-79.726
-80.368
-80.98
-81.562
-82.113
-82.635
-83.127
-83.59
-84.023
-84.427
-84.802
-85.147
-85.462
-85.747
-86.002
-86.225
-86.417
-86.577
-86.705
-86.799
-86.859
-86.884
-86.873
-86.827
-86.743
-86.622
-86.463
-86.267
-86.033
-85.762
-85.454
-85.111
-84.734
-84.325
-83.885
-83.416
-82.922
-82.405
-81.868
-81.315
-80.751
-80.179
-79.604
-79.03
-78.464
-77.91
-77.372
-76.858
-76.371
-75.917
-75.501
-75.128
-74.803
-74.532
-74.318
-74.167
-74.081
-74.066
-74.123
-74.256
-74.467
-74.757
-75.127
-75.577
-76.108
-76.719
-77.408
-78.173
-79.013
-79.924
-80.902
-81.944
-83.044
-84.196
-85.395
-86.633
-87.904
-89.199
-90.512
-91.833
-93.155
-94.47
-95.768
-97.04
-98.277
-99.471
-100.611
-101.688
-102.693
-103.616
-104.449
-105.183
-105.811
-106.325
-106.718
-106.984
-107.117
-107.112
-106.963
-106.667
-106.22
-105.618
-104.859
-103.943
-102.869
-101.639
-100.256
-98.72
-97.037
-95.211
-93.247
-91.152
-88.933
-86.598
-84.157
-81.62
-78.998
-76.306
-73.558
-70.77
-67.96
-65.147
-62.348
-59.586
-56.883
-54.261
-51.742
-49.343
-47.083
-44.978
-43.047
-41.307
-39.773
-38.459
-37.377
-36.539
-35.961
-35.656
-35.632
-35.888
-36.413
-37.199
-38.242
-39.549
-41.131
-42.992
-45.128
-47.532
-50.202
-53.134
-56.314
-59.702
-63.232
-66.827
-70.428
-73.995
-77.519
-80.986
-84.345
-87.504
-90.352
-92.799
-94.797
-96.338
-97.366
-97.79
-97.596
-96.909
-96.045
-95.362
-95.055
-95.09
-95.372
-95.939
-96.865
-98.151
-99.451
-100.231
-100.175
-99.285
-97.909
-96.288
-94.412
-92.227
-90.047
-88.475
-88.128
-89.636
-92.975
-97.929
-104.644
-113.178
-123.206
-134.12
-143.834
-148.628
-145.909
-134.252
-114.555
-89.96
-60.751
-22.979
30.817
107.894
209.554
329.108
453.559
570.238
670.828
751.677
813.403
856.218
878.251
877.717
852.962
803.735
732.411
642.685
538.789
425.851
309.129
192.97
81.564
-21.096
-112.057
-188.823
-249.688
-294.826
-325.256
-342.113
-347.148
-342.242
-329.421
-311.572
-291.477
-270.828
-250.974
-232.759
-216.569
-203.098
-192.541
-184.027
-176.453
-168.847
-160.22
-150.253
-138.922
-125.778
-110.755
-94.355
-77.267
-60.522
-45.243
-31.986
-21.01
-12.635
-6.906
-3.697
-2.817
-3.773
-5.96
-8.985
-12.561
-16.469
-20.609
-24.851
-29.011
-32.947
-36.54
-39.651
-42.19
-44.09
-45.286
-45.765
-45.556
-44.718
-43.34
-41.516
-39.322
-36.813
-34.033
-31.021
-27.844
-24.586
-21.338
-18.196
-15.218
-12.441
-9.886
-7.553
-5.429
-3.48
-1.654
0.108
1.854
3.623
5.445
7.344
9.357
11.526
13.894
16.511
19.413
22.622
26.156
30.025
34.227
38.756
43.593
48.71
54.083
59.688
65.503
71.504
77.664
83.952
90.334
96.774
103.235
109.68
116.071
122.369
128.537
134.539
140.34
145.906
151.206
156.205
160.871
165.173
169.079
172.564
175.601
178.168
180.243
181.809
182.852
183.362
183.331
182.754
181.63
179.959
177.747
175.001
171.732
167.954
163.683
158.939
153.744
148.121
142.098
135.703
128.967
121.921
114.598
107.033
99.26
91.317
83.237
75.058
66.815
58.544
50.279
42.053
33.9
25.851
17.935
10.181
2.616
-4.735
-11.85
-18.706
-25.286
-31.572
-37.548
-43.202
-48.522
-53.501
-58.131
-62.409
-66.331
-69.898
-73.11
-75.972
-78.489
-80.666
-82.513
-84.039
-85.256
-86.175
-86.809
-87.173
-87.282
-87.15
-86.794
-86.229
-85.471
-84.536
-83.44
-82.199
-80.829
-79.344
-77.76
-76.092
-74.353
-72.557
-70.718
-68.847
-66.957
-65.059
-63.163
-61.279
-59.415
-57.58
-55.782
-54.026
-52.319
-50.666
-49.071
-47.538
-46.069
-44.668
-43.334
-42.071
-40.877
-39.754
-38.7
-37.716
-36.801
-35.953
-35.172
-34.455
-33.802
-33.21
-32.678
-32.204
-31.785
-31.42
-31.105
-30.838
-30.617
-30.439
-30.301
-30.2
-30.134
-30.099
-30.094
-30.114
-30.159
-30.224
-30.308
-30.407
-30.52
-30.645
-30.778
-30.919
-31.066
-31.217
-31.371
-31.526
-31.681
-31.835
-31.988
-32.137
-32.282
-32.422
-32.556
-32.683
-32.802
-32.914
-33.017
-33.111
-33.197
-33.275
-33.345
-33.406
-33.46
-33.507
-33.548
-33.582
-33.612
-33.639
-33.663
-33.685
-33.708
-33.731
-33.755
-33.782
-33.813
-33.845
-33.879
-33.914
-33.953
-33.998
-34.049
-34.107
-34.167
-34.229
-34.303
-34.382
-34.453
-34.505
-34.524
-34.508
-34.478
-34.437
-34.362
-34.266
-34.199
-34.196
-34.299
-34.513
-34.773
-35.059
-35.435
-35.836
-36.019
-35.928
-35.634
-35.108
-34.601
-33.655
-30.771
-26.234
-21.437
-18.617
-22.037
-31.544
-42.835
-51.661
-51.98
-43.266
-31.268
-20.44
-15.546
-17.536
-22.126
-26.649
-29.329
-29.58
-29.147
-28.853
-28.633
-28.556
-28.363
-27.982
-27.653
-27.451
-27.336
-27.315
-27.399
-27.579
-27.845
-28.173
-28.522
-28.877
-29.253
-29.655
-30.075
-30.51
-30.954
-31.402
-31.852
-32.301
-32.738
-33.158
-33.553
-33.916
-34.243
-34.527
-34.763
-34.944
-35.067
-35.124
-35.11
-35.022
-34.855
-34.604
-34.268
-33.843
-33.329
-32.725
-32.031
-31.248
-30.376
-29.417
-28.374
-27.251
-26.052
-24.782
-23.45
-22.064
-20.636
-19.181
-17.713
-16.247
-14.797
-13.381
-12.018
-10.726
-9.522
-8.418
-7.429
-6.569
-5.854
-5.3
-4.921
-4.724
-4.718
-4.91
-5.309
-5.924
-6.762
-7.815
-9.076
-10.537
-12.198
-14.074
-16.172
-18.49
-21.022
-23.759
-26.694
-29.817
-33.108
-36.518
-39.991
-43.463
-46.873
-50.181
-53.354
-56.363
-59.167
-61.696
-63.864
-65.595
-66.843
-67.579
-67.815
-67.543
-66.726
-65.443
-63.917
-62.498
-61.571
-61.355
-61.794
-62.825
-64.645
-67.357
-70.825
-74.482
-77.342
-78.801
-78.959
-78.115
-76.191
-73.074
-68.836
-64.316
-61.454
-61.718
-65.454
-72.635
-83.318
-97.51
-115.069
-133.688
-148.342
-154.792
-150.542
-136.783
-117.117
-91.973
-57.852
-5.339
75.561
187.97
327.988
479.726
622.852
742.527
827.781
879.13
904.243
907.214
892.072
859.13
804.37
726.874
628.737
512.332
382.874
249.218
117.465
-5.355
-111.724
-201.679
-275.232
-332.665
-377.159
-407.482
-422.312
-422.552
-409.181
-385.751
-356.314
-323.545
-289.508
-255.522
-223.163
-194.487
-170.55
-151.338
-136.219
-124.164
-114.457
-106.671
-99.751
-92.048
-82.545
-70.971
-57.602
-43.218
-28.466
-13.75
0.201
12.304
21.876
28.656
32.699
34.458
34.37
32.746
30.009
26.704
23.219
19.837
16.795
14.168
12.054
10.606
9.883
9.9
10.67
12.16
14.32
17.113
20.459
24.257
28.437
32.927
37.665
42.602
47.654
52.734
57.758
62.629
67.28
71.669
75.767
79.574
83.115
86.418
89.527
92.5
95.378
98.204
101.016
103.837
106.705
109.661
112.746
116.014
119.504
123.242
127.249
131.535
136.101
140.945
146.054
151.404
156.976
162.751
168.709
174.833
181.103
187.493
193.975
200.516
207.086
213.652
220.182
226.642
232.999
239.22
245.273
251.131
256.762
262.137
267.224
271.993
276.416
280.465
284.115
287.342
290.123
292.439
294.274
295.615
296.451
296.775
296.581
295.866
294.632
292.881
290.622
287.862
284.612
280.885
276.698
272.075
267.038
261.614
255.829
249.706
243.274
236.574
229.63
222.459
215.086
207.525
199.804
191.991
184.127
176.223
168.339
160.556
152.933
145.562
138.486
131.626
124.962
118.577
112.382
106.142
99.859
93.595
87.287
81.383
75.464
67.731
58.604
49.667
43.293
45.254
55.888
69.083
79.482
77.973
61.836
40.431
20.655
10.604
14.831
25.485
36.889
44.99
46.169
44.273
43.078
44.968
50.837
57.802
61.714
57.392
45.338
31.156
20.697
21.846
34.681
51.695
67.069
74.385
72.754
67.838
63.024
60.722
61.573
63.249
64.748
66.139
67.348
68.721
70.329
71.856
73.21
74.445
75.551
76.515
77.348
78.065
78.695
79.294
79.878
80.425
80.929
81.396
81.827
82.228
82.601
82.94
83.247
83.529
83.79
84.034
84.265
84.484
84.696
84.902
85.107
85.314
85.525
85.744
85.974
86.219
86.48
86.762
87.068
87.399
87.759
88.148
88.569
89.023
89.511
90.032
90.587
91.175
91.796
92.448
93.13
93.839
94.572
95.327
96.099
96.884
97.677
98.473
99.265
100.047
100.813
101.556
102.268
102.941
103.568
104.139
104.647
105.081
105.434
105.695
105.856
105.908
105.842
105.65
105.324
104.857
104.241
103.471
102.54
101.444
100.178
98.737
97.12
95.324
93.348
91.191
88.854
86.34
83.651
80.791
77.764
74.576
71.234
67.745
64.118
60.361
56.484
52.498
48.414
44.245
40.003
35.7
31.35
26.967
22.563
18.153
13.751
9.369
5.022
0.721
-3.521
-7.692
-11.78
-15.774
-19.664
-23.44
-27.094
-30.617
-34.003
-37.245
-40.341
-43.285
-46.076
-48.713
-51.195
-53.524
-55.702
-57.733
-59.621
-61.373
-62.995
-64.495
-65.883
-67.168
-68.363
-69.481
-70.534
-71.539
-72.516
-73.484
-74.462
-75.469
-76.519
-77.631
-78.828
-80.12
-81.509
-83
-84.596
-86.313
-88.183
-90.222
-92.419
-94.797
-97.412
-100.302
-103.506
-107.025
-110.797
-114.804
-119.124
-123.7
-128.299
-132.864
-137.459
-142.037
-146.828
-151.349
-154.091
-155.291
-156.247
-159.096
-167.953
-182.596
-198.792
-212.335
-217.256
-213.011
-205.13
-197.898
-195.931
-200.109
-206.275
-211.893
-215.318
-216.097
-216.053
-216.095
-216.285
-216.829
-217.589
-218.659
-220.511
-223.38
-227.303
-232.224
-237.831
-243.757
-249.729
-255.325
-259.936
-263.144
-264.678
-264.692
-264.107
-263.799
-264.311
-266.304
-270.44
-277.104
-286.435
-296.844
-304.497
-305.775
-298.368
-283.158
-263.171
-239.606
-209.841
-164.618
-94.082
6.444
134.834
275.542
408.833
519.379
595.361
638.082
655.663
652.551
633.564
597.83
540.118
460.395
360.72
245.274
121.663
-3.994
-127.328
-243.786
-349.519
-441.549
-517.275
-575.23
-615.766
-640.086
-649.381
-645.4
-630.422
-606.815
-577.381
-544.83
-510.762
-476.172
-442.373
-410.717
-382.268
-357.869
-337.464
-320.37
-306.366
-295.441
-287.1
-280.472
-274.444
-267.782
-260.045
-251.494
-242.273
-232.486
-222.404
-212.398
-203.161
-195.607
-190.128
-186.638
-184.957
-184.757
-185.742
-187.695
-190.203
-192.691
-194.764
-196.177
-196.771
-196.56
-195.543
-193.677
-191.004
-187.6
-183.542
-178.925
-173.834
-168.313
-162.422
-156.219
-149.764
-143.155
-136.486
-129.85
-123.35
-117.047
-110.977
-105.172
-99.635
-94.351
-89.305
-84.455
-79.753
-75.162
-70.646
-66.173
-61.721
-57.252
-52.725
-48.098
-43.322
-38.365
-33.207
-27.83
-22.228
-16.402
-10.357
-4.109
2.319
8.905
15.631
22.475
29.422
36.449
43.53
50.637
57.74
64.807
71.811
78.719
85.501
92.125
98.562
104.782
110.761
116.469
121.878
126.961
131.69
136.038
139.981
143.496
146.561
149.156
151.266
152.876
153.976
154.557
154.614
154.143
153.143
151.617
149.57
147.007
143.939
140.378
136.338
131.835
126.888
121.518
115.747
109.601
103.104
96.285
89.171
81.792
74.18
66.364
58.377
50.249
42.014
33.703
25.348
16.978
8.626
0.32
-7.911
-16.042
-24.045
-31.898
-39.576
-47.059
-54.327
-61.361
-68.145
-74.663
-80.902
-86.85
-92.497
-97.834
-102.855
-107.555
-111.931
-115.979
-119.702
-123.098
-126.173
-128.929
-131.372
-133.509
-135.348
-136.898
-138.17
-139.174
-139.922
-140.427
-140.701
-140.758
-140.61
-140.271
-139.755
-139.076
-138.248
-137.285
-136.201
-135.009
-133.724
-132.36
-130.929
-129.444
-127.918
-126.364
-124.792
-123.214
-121.642
-120.083
-118.55
-117.049
-115.589
-114.178
-112.821
-111.524
-110.293
-109.129
-108.038
-107.02
-106.078
-105.211
-104.422
-103.708
-103.069
-102.503
-102.009
-101.582
-101.219
-100.916
-100.669
-100.471
-100.316
-100.2
-100.114
-100.051
-100.004
-99.966
-99.927
-99.881
-99.818
-99.731
-99.611
-99.449
-99.239
-98.973
-98.644
-98.245
-97.771
-97.215
-96.574
-95.843
-95.018
-94.097
-93.078
-91.959
-90.739
-89.419
-87.999
-86.481
-84.867
-83.161
-81.366
-79.487
-77.531
-75.502
-73.408
-71.256
-69.054
-66.811
-64.536
-62.238
-59.927
-57.613
-55.305
-53.013
-50.748
-48.519
-46.335
-44.206
-42.14
-40.145
-38.229
-36.399
-34.662
-33.023
-31.487
-30.058
-28.741
-27.537
-26.449
-25.478
-24.625
-23.888
-23.268
-22.761
-22.365
-22.077
-21.892
-21.805
-21.81
-21.903
-22.075
-22.32
-22.632
-23.002
-23.422
-23.885
-24.383
-24.907
-25.449
-26.001
-26.555
-27.103
-27.637
-28.151
-28.637
-29.09
-29.502
-29.868
-30.182
-30.441
-30.638
-30.77
-30.832
-30.822
-30.736
-30.572
-30.328
-30.003
-29.596
-29.107
-28.535
-27.881
-27.145
-26.327
-25.43
-24.453
-23.4
-22.271
-21.07
-19.799
-18.462
-17.062
-15.603
-14.09
-12.527
-10.92
-9.274
-7.595
-5.888
-4.163
-2.424
-0.681
1.059
2.785
4.486
6.151
7.767
9.321
10.8
12.191
13.48
14.654
15.704
16.62
17.391
18.008
18.459
18.732
18.817
18.705
18.389
17.861
17.116
16.154
14.979
13.596
12.011
10.225
8.229
6.017
3.587
0.94
-1.916
-4.966
-8.19
-11.557
-15.02
-18.533
-22.05
-25.528
-28.932
-32.225
-35.366
-38.298
-40.954
-43.262
-45.153
-46.579
-47.515
-47.967
-47.962
-47.55
-46.796
-45.768
-44.569
-43.276
-41.94
-40.637
-39.445
-38.476
-37.966
-38.186
-39.238
-41.212
-44.15
-47.654
-51.195
-54.385
-56.418
-57.166
-57.712
-57.712
-56.532
-53.129
-44.383
-31.737
-20.451
-15.46
-23.08
-42.15
-63.389
-79.441
-83.066
-72.271
-52.541
-24.125
15.953
71.327
149.229
250.936
370.591
500.078
626.295
734.877
816.004
864.4
881.679
875.469
852.786
817.486
769.047
703.776
620.646
521.901
411.824
297.516
184.137
73.839
-29.417
-123.777
-208.305
-277.805
-329.889
-362.71
-373.163
-364.976
-343.087
-312.317
-279.119
-245.08
-210.372
-176.033
-142.699
-113.077
-89.222
-71.06
-57.832
-48.186
-41.256
-36.759
-33.993
-31.575
-28.138
-23.109
-16.679
-9.421
-1.769
6.065
13.792
20.692
25.819
28.67
29.234
27.825
24.896
20.789
15.78
10.295
4.92
0.145
-3.737
-6.61
-8.514
-9.496
-9.555
-8.712
-7.038
-4.628
-1.589
1.973
5.985
10.377
15.057
19.925
24.85
29.68
34.311
38.68
42.75
46.515
49.969
53.103
55.934
58.506
60.868
63.066
65.142
67.121
69.044
70.96
72.927
75.011
77.258
79.697
82.351
85.236
88.363
91.743
95.375
99.241
103.333
107.639
112.151
116.865
121.768
126.842
132.066
137.417
142.875
148.418
154.02
159.656
165.3
170.925
176.504
182.013
187.424
192.707
197.831
202.766
207.479
211.942
216.125
219.998
223.534
226.707
229.494
231.874
233.827
235.335
236.383
236.958
237.05
236.649
235.752
234.354
232.456
230.06
227.173
223.802
219.958
215.654
210.906
205.732
200.154
194.193
187.875
181.226
174.273
167.047
159.578
151.897
144.037
136.031
127.911
119.71
111.462
103.199
94.952
86.753
78.632
70.617
62.738
55.02
47.49
40.17
33.083
26.249
19.687
13.411
7.437
1.776
-3.562
-8.57
-13.243
-17.576
-21.57
-25.224
-28.543
-31.531
-34.194
-36.542
-38.583
-40.33
-41.795
-42.991
-43.934
-44.637
-45.118
-45.394
-45.481
-45.397
-45.161
-44.79
-44.302
-43.717
-43.051
-42.323
-41.549
-40.746
-39.929
-39.114
-38.313
-37.539
-36.804
-36.119
-35.492
-34.931
-34.443
-34.033
-33.707
-33.466
-33.313
-33.249
-33.274
-33.387
-33.585
-33.868
-34.23
-34.668
-35.178
-35.754
-36.391
-37.082
-37.82
-38.599
-39.41
-40.246
-41.098
-41.957
-42.816
-43.665
-44.496
-45.303
-46.077
-46.811
-47.5
-48.137
-48.717
-49.235
-49.688
-50.071
-50.381
-50.616
-50.773
-50.852
-50.852
-50.771
-50.611
-50.371
-50.052
-49.656
-49.184
-48.639
-48.022
-47.336
-46.583
-45.767
-44.893
-43.963
-42.984
-41.961
-40.899
-39.804
-38.683
-37.54
-36.382
-35.213
-34.039
-32.865
-31.695
-30.535
-29.39
-28.263
-27.16
-26.087
-25.047
-24.045
-23.086
-22.173
-21.311
-20.503
-19.752
-19.056
-18.419
-17.842
-17.324
-16.865
-16.464
-16.123
-15.841
-15.62
-15.459
-15.352
-15.295
-15.28
-15.298
-15.344
-15.408
-15.479
-15.549
-15.615
-15.677
-15.742
-15.807
-15.856
-15.873
-15.83
-15.704
-15.48
-15.134
-14.639
-13.984
-13.163
-12.187
-11.084
-9.852
-8.48
-6.949
-5.222
-3.293
-1.184
1.078
3.445
5.848
8.227
10.491
12.529
14.284
15.719
16.826
17.641
18.145
18.292
18.044
17.345
16.189
14.624
12.703
10.504
8.151
5.769
3.535
1.673
0.322
-0.428
-0.553
-0.071
1.171
3.338
6.481
10.567
15.313
20.341
25.421
30.23
34.122
36.595
37.39
36.5
34.601
32.562
31.053
31.077
34.05
40.085
46.516
48.94
42.25
25.733
8.301
2.459
15.474
40.051
46.814
-3.712
