Name,John Breau
Date of Birth,"Dec 20, 1971"
Recorded Date,2025-04-18 07:10:52 -0500
Classification,Sinus Rhythm
Symptoms,
Software Version,1.90
Device,"Watch6,18"
Sample Rate,512 hertz


Lead,Lead I
Unit,µV

139.958
195.666
242.41
265.295
261.638
238.171
204.993
173.088
149.664
134.504
125.829
123.135
121.571
119.165
115.3
106.69
95.422
83.567
71.053
59.437
48.184
36.336
24.562
13.317
2.926
-6.245
-14.247
-21.297
-27.379
-32.478
-36.758
-40.424
-43.696
-46.783
-49.762
-52.644
-55.486
-58.334
-61.237
-64.259
-67.394
-70.644
-74.1
-77.826
-81.871
-86.276
-90.972
-95.85
-100.854
-105.914
-110.786
-115.236
-119.301
-122.965
-126.226
-129.411
-131.612
-132.013
-131.976
-131.96
-134.368
-141.96
-151.521
-161.006
-167.299
-165.856
-160.181
-153.459
-147.948
-147.544
-149.266
-148.718
-144.035
-134.803
-126.91
-128.442
-144.092
-171.643
-198.866
-212.862
-204.919
-175.835
-141.137
-114.594
-104.955
-114.583
-131.475
-146.17
-154.21
-152.423
-146.291
-139.957
-133.896
-129.651
-125.999
-121.726
-117.43
-113.106
-108.825
-104.908
-101.208
-97.458
-93.6
-89.644
-85.398
-80.544
-75.09
-69.047
-62.275
-55.181
-47.023
-35.901
-22.565
-8.646
2.865
6.225
2.169
-3.675
-5.649
4.442
26.686
53.231
77.916
94.265
101.488
104.824
107.342
110.968
115.656
119.466
121.87
122.998
123.046
122.575
121.737
120.672
119.746
118.74
117.389
115.616
113.279
110.465
107.339
103.834
99.838
95.492
90.92
86.194
81.408
76.472
71.256
65.748
59.953
53.856
47.465
40.78
33.778
26.493
18.965
11.203
3.235
-4.916
-13.237
-21.68
-30.183
-38.669
-47.04
-55.202
-63.088
-70.643
-77.821
-84.585
-90.881
-96.667
-101.914
-106.593
-110.702
-114.239
-117.169
-119.454
-121.066
-122.002
-122.334
-122.128
-121.36
-120.054
-118.315
-116.332
-114.514
-113.215
-112.472
-112.262
-112.57
-113.146
-113.669
-113.542
-111.496
-106.311
-97.434
-84.681
-68.296
-48.997
-27.538
-5.254
15.415
31.909
42.438
46.155
43.272
34.586
21.127
5.015
-10.245
-20.431
-21.449
-10.536
13.855
53.098
107.863
177.259
258.955
348.786
441.536
532.99
619.126
694.928
755.907
798.456
819.742
819.26
797.821
755.621
693.888
615.729
524.793
425.628
323.261
221.343
123.451
34.098
-43.056
-105.598
-152.354
-184.01
-202.19
-208.296
-204.531
-194.117
-180.307
-166.194
-153.749
-143.478
-135.34
-129.159
-124.36
-119.996
-114.858
-107.601
-97.622
-85.113
-70.569
-54.686
-38.139
-21.543
-5.644
8.741
21.07
31.093
38.742
44.143
47.438
48.746
48.256
46.202
42.818
38.325
32.945
26.891
20.351
13.514
6.551
-0.371
-7.044
-13.226
-18.746
-23.546
-27.602
-30.922
-33.499
-35.259
-36.212
-36.524
-36.204
-35.017
-32.932
-30.09
-26.514
-22.614
-18.002
-10.859
-1.541
7.983
14.902
13.733
4.255
-7.929
-17.455
-16.772
-4.564
12.146
27.707
36.087
35.721
31.759
28.362
29.579
35.922
43.558
48.571
45.888
35.841
23.923
15.435
17.428
30.079
46.476
61.241
68.513
67.394
63.077
58.717
56.537
57.16
58.426
59.389
60.118
60.516
60.882
61.283
61.419
61.201
60.705
59.865
58.604
57.021
55.187
53.199
51.223
49.145
46.763
44.139
41.319
38.101
34.393
29.944
24.423
18.172
11.59
4.693
-2.405
-9.446
-16.326
-22.609
-27.788
-32.262
-36.444
-40.395
-44.32
-48.331
-52.405
-56.904
-62.211
-67.999
-73.963
-79.984
-85.822
-91.465
-96.97
-102.126
-106.745
-110.937
-114.79
-118.361
-121.76
-124.937
-127.826
-130.468
-132.885
-135.061
-136.997
-138.675
-140.07
-141.21
-142.116
-142.801
-143.285
-143.573
-143.668
-143.582
-143.324
-142.902
-142.333
-141.632
-140.8
-139.841
-138.759
-137.558
-136.256
-134.881
-133.429
-131.895
-130.319
-128.737
-127.179
-125.684
-124.237
-122.797
-121.397
-120.094
-118.764
-117.261
-115.681
-114.017
-112.246
-110.698
-108.49
-104.762
-100.748
-96.82
-95.241
-98.717
-104.253
-109.854
-112.548
-108.251
-100.577
-92.587
-86.379
-85.421
-87.232
-89.3
-91.067
-91.001
-89.991
-89.18
-88.351
-87.65
-87.001
-86.173
-85.318
-84.558
-83.853
-83.195
-82.599
-82.061
-81.573
-81.13
-80.71
-80.288
-79.872
-79.473
-79.086
-78.708
-78.339
-77.971
-77.607
-77.245
-76.881
-76.508
-76.122
-75.72
-75.297
-74.85
-74.374
-73.864
-73.317
-72.728
-72.093
-71.408
-70.669
-69.874
-69.018
-68.1
-67.118
-66.072
-64.962
-63.792
-62.565
-61.284
-59.956
-58.587
-57.183
-55.753
-54.303
-52.839
-51.367
-49.896
-48.435
-46.993
-45.585
-44.222
-42.916
-41.678
-40.52
-39.453
-38.487
-37.625
-36.871
-36.233
-35.721
-35.357
-35.161
-35.148
-35.326
-35.702
-36.271
-37.024
-37.942
-38.989
-40.127
-41.318
-42.528
-43.738
-44.925
-46.058
-47.094
-47.975
-48.642
-49.059
-49.196
-49.037
-48.599
-47.913
-47.046
-46.108
-45.195
-44.411
-43.873
-43.681
-43.96
-44.84
-46.426
-48.877
-52.408
-57.112
-62.96
-69.749
-77.009
-84.267
-91.123
-97.041
-101.414
-103.867
-104.318
-103.248
-101.74
-100.836
-101.28
-103.684
-108.52
-115.859
-125.128
-134.636
-141.617
-143.016
-136.039
-118.348
-87.81
-42.806
17.163
91.061
176.156
268.413
363.338
456.366
542.295
615.813
672.343
708.124
720.926
710.288
676.6
621.088
546.552
456.743
355.92
249.222
141.573
37.055
-60.362
-147.329
-221.613
-281.507
-326.115
-356.192
-373.168
-378.426
-373.727
-360.529
-340.042
-314.203
-285.053
-253.523
-220.164
-185.768
-151.169
-118.15
-88.898
-64.232
-44.139
-29.095
-19.505
-15.454
-16.801
-21.75
-27.494
-32.538
-36.315
-38.171
-37.695
-34.405
-27.671
-18.446
-8.886
-0.224
7.009
12.525
16.445
18.569
18.307
16.044
13.057
10.225
8.116
6.993
6.675
7.215
8.988
12.006
15.937
20.51
25.447
30.605
36.087
41.901
47.921
54.059
60.216
66.289
72.258
78.092
83.722
89.107
94.213
99.019
103.553
107.851
111.935
115.823
119.519
123.021
126.346
129.522
132.583
135.568
138.498
141.384
144.236
147.061
149.863
152.641
155.378
158.048
160.636
163.129
165.517
167.795
169.951
171.97
173.84
175.549
177.084
178.436
179.593
180.545
181.284
181.802
182.095
182.161
181.999
181.603
180.972
180.103
178.994
177.646
176.059
174.235
172.176
169.888
167.375
164.647
161.712
158.578
155.258
151.761
148.1
144.287
140.336
136.259
132.071
127.787
123.42
118.987
114.501
109.977
105.432
100.879
96.334
91.809
87.318
82.876
78.493
74.182
69.954
65.821
61.791
57.873
54.077
50.408
46.874
43.479
40.227
37.122
34.165
31.358
28.703
26.199
23.846
21.643
19.589
17.682
15.919
14.296
12.809
11.455
10.227
9.12
8.129
7.247
6.468
5.786
5.194
4.685
4.251
3.887
3.583
3.334
3.131
2.968
2.838
2.734
2.65
2.58
2.517
2.457
2.394
2.322
2.237
2.132
2.003
1.845
1.654
1.425
1.155
0.841
0.479
0.067
-0.397
-0.914
-1.486
-2.114
-2.8
-3.543
-4.34
-5.19
-6.09
-7.041
-8.044
-9.09
-10.174
-11.3
-12.476
-13.702
-14.988
-16.319
-17.673
-19.061
-20.495
-21.933
-23.344
-24.702
-25.968
-27.165
-28.342
-29.464
-30.469
-31.498
-32.717
-34.016
-35.401
-36.9
-38.139
-40.106
-43.767
-47.733
-51.581
-52.768
-48.248
-41.385
-34.417
-30.681
-34.765
-42.606
-50.763
-56.877
-57.051
-54.07
-50.756
-47.735
-46.73
-46.741
-46.486
-46.21
-45.753
-45.203
-44.824
-44.449
-43.947
-43.37
-42.737
-42.036
-41.284
-40.5
-39.7
-38.921
-38.199
-37.527
-36.904
-36.348
-35.855
-35.428
-35.072
-34.783
-34.573
-34.467
-34.459
-34.541
-34.747
-35.099
-35.613
-36.316
-37.187
-38.182
-39.342
-40.72
-42.181
-43.563
-44.952
-46.324
-47.627
-49.164
-49.969
-49.098
-47.811
-46.483
-47.464
-53.562
-61.59
-69.395
-73.803
-70.497
-63.245
-55.242
-48.707
-47.318
-48.54
-49.84
-50.727
-49.671
-47.671
-46
-44.53
-43.496
-42.913
-42.693
-43.154
-44.538
-46.882
-50.049
-53.651
-57.402
-61.02
-63.823
-65.248
-64.953
-62.391
-58.925
-56.648
-55.443
-55.992
-55.692
-50.203
-42.062
-33.758
-31.875
-45.445
-70.456
-97.567
-111.308
-92.792
-37.765
46.927
146.969
245.423
333.95
412.281
483.49
548.23
603.272
643.236
662.364
658.302
630.959
580.549
509.012
419.764
316.836
205.527
91.272
-21.32
-127.163
-221.204
-299.434
-358.923
-398.386
-418.189
-419.382
-403.823
-374.842
-336.304
-292.453
-247.697
-205.388
-168.277
-138.694
-117.684
-105.107
-100.158
-101.081
-105.672
-112.059
-118.112
-121.964
-122.755
-120.142
-114.337
-106.234
-96.855
-87.242
-78.705
-72.182
-68.043
-66.449
-67.184
-69.754
-73.676
-78.324
-83.007
-87.296
-90.962
-93.862
-95.97
-97.269
-97.734
-97.42
-96.422
-94.799
-92.597
-89.848
-86.609
-82.986
-79.12
-75.168
-71.239
-67.4
-63.701
-60.18
-56.883
-53.841
-51.061
-48.522
-46.212
-44.121
-42.24
-40.559
-39.042
-37.639
-36.298
-34.959
-33.579
-32.132
-30.593
-28.945
-27.179
-25.287
-23.273
-21.149
-18.923
-16.6
-14.183
-11.675
-9.089
-6.44
-3.743
-1.016
1.723
4.457
7.168
9.838
12.449
14.986
17.433
19.773
21.991
24.068
25.985
27.722
29.259
30.58
31.665
32.498
33.062
33.344
33.33
33.012
32.379
31.425
30.144
28.534
26.594
24.323
21.726
18.807
15.574
12.035
8.202
4.086
-0.298
-4.934
-9.804
-14.889
-20.171
-25.626
-31.233
-36.967
-42.804
-48.717
-54.68
-60.668
-66.651
-72.605
-78.501
-84.313
-90.016
-95.583
-100.992
-106.217
-111.238
-116.033
-120.583
-124.871
-128.88
-132.596
-136.006
-139.102
-141.875
-144.319
-146.43
-148.206
-149.645
-150.75
-151.522
-151.968
-152.093
-151.906
-151.417
-150.641
-149.592
-148.289
-146.747
-144.988
-143.03
-140.896
-138.605
-136.18
-133.641
-131.008
-128.304
-125.554
-122.78
-120.009
-117.262
-114.565
-111.942
-109.417
-107.011
-104.745
-102.632
-100.689
-98.929
-97.369
-96.028
-94.917
-94.041
-93.401
-92.993
-92.811
-92.84
-93.057
-93.422
-93.904
-94.47
-95.09
-95.743
-96.4
-97.033
-97.616
-98.121
-98.535
-98.864
-99.112
-99.289
-99.422
-99.537
-99.687
-99.943
-100.359
-100.979
-101.842
-102.966
-104.385
-106.118
-108.157
-110.48
-113.038
-115.74
-118.487
-121.164
-123.622
-125.708
-127.246
-128.023
-127.871
-126.644
-124.189
-120.387
-115.109
-108.249
-99.776
-89.705
-78.06
-64.93
-50.486
-34.925
-18.499
-1.482
15.888
33.36
50.625
67.373
83.492
98.918
113.342
126.563
138.437
148.5
157.594
166.608
174.308
180.371
182.505
178.028
170.319
161.709
155.598
156.476
160.566
164.734
166.977
163.637
157.119
150.128
143.367
138.38
134.731
130.64
124.121
115.487
106.665
100.709
104.185
117.189
132.574
143.968
140.633
119.604
91.769
65.233
49.671
50.136
57.156
64.173
66.662
60.601
50.941
41.295
32.226
25.406
19.675
13.905
8.697
4.049
0.021
-3.151
-5.625
-7.592
-9.114
-10.284
-11.262
-12.162
-13.062
-14.092
-15.362
-16.968
-19.093
-21.981
-25.758
-30.421
-35.761
-41.31
-46.628
-51.37
-55.091
-57.225
-57.411
-55.753
-52.95
-50.369
-49.244
-50.2
-53.927
-61.132
-71.874
-85.501
-99.098
-108.454
-111.044
-104.518
-88.778
-63.875
-25.173
29.45
101.583
191.635
291.03
392.329
488.629
570.434
634.738
679.37
701.274
700.623
676.563
628.297
557.599
468.941
367.9
259.328
148.816
38.824
-68.585
-165.938
-248.185
-310.353
-347.899
-366.117
-370.472
-365.355
-357.196
-346.183
-331.99
-316.555
-299.786
-282.677
-266.339
-250.486
-235.159
-220.925
-208.207
-196.979
-187.519
-180.316
-175.625
-173.682
-174.194
-175.885
-177.582
-178.81
-179.214
-178.649
-177.189
-174.796
-171.784
-169.038
-167.272
-166.774
-167.608
-169.547
-172.254
-175.518
-179.048
-182.404
-185.273
-187.492
-188.974
-189.753
-189.897
-189.426
-188.39
-186.878
-184.942
-182.637
-180.041
-177.225
-174.294
-171.371
-168.539
-165.849
-163.341
-161.038
-158.963
-157.145
-155.584
-154.269
-153.194
-152.353
-151.744
-151.367
-151.2
-151.198
-151.317
-151.503
-151.719
-151.935
-152.127
-152.273
-152.358
-152.372
-152.312
-152.181
-151.974
-151.683
-151.297
-150.806
-150.205
-149.489
-148.654
-147.697
-146.619
-145.426
-144.124
-142.714
-141.182
-139.51
-137.68
-135.677
-133.489
-131.097
-128.48
-125.625
-122.534
-119.225
-115.72
-112.031
-108.152
-104.068
-99.76
-95.229
-90.49
-85.564
-80.46
-75.187
-69.76
-64.217
-58.604
-52.941
-47.209
-41.349
-35.305
-29.049
-22.57
-15.876
-8.968
-1.83
5.562
13.223
21.155
29.363
37.869
46.723
55.985
65.672
75.746
86.118
96.705
107.451
118.32
129.278
140.281
151.274
162.207
173.049
183.775
194.35
204.719
214.795
224.49
233.75
242.568
250.968
258.97
266.575
273.776
280.566
286.954
292.948
298.541
303.711
308.433
312.698
316.512
319.899
322.883
325.475
327.666
329.441
330.787
331.703
332.19
332.248
331.872
331.066
329.843
328.229
326.252
323.934
321.292
318.34
315.096
311.581
307.818
303.833
299.647
295.284
290.769
286.126
281.381
276.557
271.675
266.751
261.802
256.844
251.894
246.969
242.083
237.25
232.481
227.792
223.194
218.697
214.31
210.042
205.897
201.884
198.004
194.264
190.664
187.206
183.891
180.719
177.689
174.799
172.047
169.431
166.949
164.596
162.371
160.269
158.288
156.426
154.68
153.041
151.504
150.062
148.713
147.456
146.288
145.192
144.171
143.239
142.407
141.688
141.08
140.547
140.082
139.712
139.41
139.105
138.742
138.259
137.644
136.979
136.284
135.463
134.604
134.03
133.804
133.822
134.119
134.333
135.108
138.473
143.974
149.73
152.641
146.891
132.831
116.28
103.035
101.337
111.689
126.287
139.097
143.604
138.674
130.13
121.545
115.359
112.31
110.028
107.442
104.635
101.522
98.451
95.502
92.351
88.903
85.218
81.301
77.148
72.798
68.31
63.758
59.249
54.841
50.541
46.38
42.411
38.692
35.302
32.305
29.738
27.635
26.015
24.881
24.214
23.968
24.063
24.394
24.838
25.266
25.542
25.533
25.11
24.094
22.24
19.406
15.586
10.956
5.918
0.868
-3.881
-7.896
-10.599
-11.593
-10.8
-8.703
-6.378
-4.889
-4.97
-7.273
-12.419
-20.617
-31.376
-42.997
-52.674
-57.409
-54.363
-40.724
-13.653
29.104
87.71
159.517
240.669
327.899
420.838
520.336
623.347
721.115
798.486
840.421
839.319
797.219
725.896
638.318
543.614
445.946
344.283
239.128
134.269
35.399
-50.427
-118.658
-168.426
-200.691
-217.825
-222.773
-218.362
-207.953
-195.21
-183.246
-173.789
-167.262
-162.988
-159.485
-155.545
-150.196
-142.456
-131.725
-118.078
-102.067
-85.005
-68.884
-55.022
-44.061
-36.22
-31.061
-28.117
-27.115
-27.371
-27.799
-27.718
-26.794
-25.112
-23.374
-22.013
-21.1
-20.786
-21.207
-22.447
-24.585
-27.46
-30.602
-33.66
-36.393
-38.634
-40.405
-41.537
-41.795
-41.32
-40.193
-38.442
-36.511
-33.485
-28.434
-22.764
-16.928
-13.452
-15.392
-19.48
-23.564
-24.448
-17.667
-7.263
3.334
11.787
14.243
13.434
12.145
11.034
11.831
13.536
14.858
15.998
16.769
17.289
17.883
18.425
18.773
19.11
19.661
20.388
21.329
22.583
23.837
25.936
29.737
33.954
38.03
39.266
34.806
27.927
20.618
16.463
19.453
23.907
26.95
28.096
26.206
30.001
43.541
61.46
78.322
82.491
67.061
40.29
12.868
-3.611
-0.292
17.056
37.87
54.406
59.899
56.013
49.107
42.256
37.878
36.128
34.731
33.093
31.328
29.333
27.459
25.769
23.961
21.944
19.739
17.288
14.571
11.626
8.477
5.159
1.732
-1.786
-5.409
-9.126
-12.927
-16.803
-20.734
-24.723
-28.771
-32.871
-37.017
-41.186
-45.349
-49.506
-53.657
-57.758
-61.772
-65.667
-69.4
-72.984
-76.455
-79.776
-82.885
-85.902
-88.968
-91.984
-94.95
-97.888
-100.464
-103.556
-108.019
-112.623
-116.993
-118.872
-115.561
-110.048
-104.326
-101.363
-105.236
-112.347
-119.646
-125.048
-125.101
-122.285
-119.117
-116.161
-114.955
-114.623
-114.035
-113.419
-112.64
-111.786
-111.1
-110.441
-109.701
-108.93
-108.148
-107.351
-106.552
-105.769
-105.016
-104.322
-103.72
-103.208
-102.78
-102.446
-102.209
-102.073
-102.042
-102.114
-102.287
-102.561
-102.936
-103.409
-103.977
-104.635
-105.378
-106.2
-107.094
-108.052
-109.067
-110.129
-111.229
-112.357
-113.503
-114.654
-115.801
-116.931
-118.034
-119.099
-120.114
-121.071
-121.958
-122.767
-123.487
-124.111
-124.631
-125.04
-125.329
-125.495
-125.532
-125.437
-125.207
-124.84
-124.337
-123.696
-122.92
-122.012
-120.974
-119.81
-118.527
-117.13
-115.627
-114.027
-112.34
-110.576
-108.747
-106.869
-104.957
-103.026
-101.093
-99.176
-97.291
-95.455
-93.686
-91.997
-90.402
-88.915
-87.548
-86.317
-85.235
-84.315
-83.569
-83.007
-82.635
-82.461
-82.49
-82.717
-83.14
-83.755
-84.563
-85.571
-86.788
-88.216
-89.854
-91.699
-93.738
-95.953
-98.318
-100.793
-103.335
-105.902
-108.453
-110.96
-113.392
-115.711
-117.871
-119.811
-121.473
-122.809
-123.775
-124.338
-124.498
-124.269
-123.696
-122.859
-121.816
-120.65
-119.459
-118.326
-117.362
-116.686
-116.393
-116.645
-117.673
-119.575
-122.332
-125.803
-129.57
-133.179
-136.255
-138.252
-138.552
-136.867
-133.287
-128.273
-122.891
-118.523
-116.161
-116.658
-121.106
-128.733
-137.922
-148.037
-156.389
-161.818
-163.926
-156.711
-135.271
-94.702
-30.382
52.713
148.225
249.66
348.74
442.628
527.544
598.172
651.211
681.962
687.253
666.69
620.233
550.609
464.1
365.522
259.046
148.35
33.725
-79.502
-180.862
-262.444
-315.971
-339.601
-341.956
-329.039
-307.033
-283.677
-259.223
-236.885
-221.391
-209.827
-201.611
-195.28
-186.64
-177.797
-170.376
-163.739
-158.622
-153.354
-146.517
-138.726
-130.229
-121.2
-111.819
-102.179
-92.73
-84.349
-77.61
-72.562
-69.122
-67.219
-66.918
-68.223
-70.837
-74.167
-77.634
-80.873
-83.701
-86.062
-87.861
-88.965
-89.299
-88.838
-87.624
-85.703
-83.092
-79.793
-75.815
-71.205
-66.067
-60.551
-54.818
-49.016
-43.248
-37.573
-32.04
-26.693
-21.567
-16.697
-12.088
-7.728
-3.615
0.251
3.866
7.23
10.369
13.333
16.17
18.935
21.661
24.366
27.07
29.783
32.514
35.266
38.032
40.801
43.568
46.331
49.085
51.827
54.55
57.241
59.891
62.487
65.006
67.44
69.796
72.078
74.292
76.43
78.455
80.355
82.154
83.82
85.275
86.455
87.294
87.772
87.965
87.891
87.451
86.727
86.047
85.486
84.939
84.451
83.677
83.241
85.211
89.215
93.339
94.528
86.932
70.733
51.87
36.199
32.039
40.184
52.742
63.597
66.224
59.293
48.717
38.197
30.19
25.54
21.866
18.048
14.195
10.233
6.534
3.216
-0.032
-3.302
-6.525
-9.699
-12.83
-15.898
-18.881
-21.745
-24.43
-26.913
-29.219
-31.354
-33.315
-35.103
-36.718
-38.162
-39.448
-40.58
-41.559
-42.39
-43.076
-43.623
-44.039
-44.329
-44.503
-44.566
-44.527
-44.395
-44.179
-43.886
-43.526
-43.109
-42.642
-42.135
-41.595
-41.031
-40.449
-39.859
-39.265
-38.674
-38.093
-37.525
-36.976
-36.45
-35.951
-35.482
-35.045
-34.644
-34.282
-33.96
-33.682
-33.448
-33.261
-33.123
-33.035
-32.999
-33.014
-33.083
-33.205
-33.38
-33.607
-33.886
-34.216
-34.594
-35.018
-35.487
-35.997
-36.546
-37.129
-37.745
-38.388
-39.056
-39.745
-40.451
-41.169
-41.896
-42.627
-43.358
-44.082
-44.796
-45.494
-46.169
-46.816
-47.428
-48.001
-48.525
-48.997
-49.407
-49.751
-50.02
-50.21
-50.314
-50.325
-50.24
-50.054
-49.764
-49.366
-48.859
-48.242
-47.515
-46.679
-45.736
-44.688
-43.538
-42.29
-40.95
-39.523
-38.017
-36.439
-34.799
-33.11
-31.385
-29.637
-27.88
-26.13
-24.403
-22.714
-21.079
-19.51
-18.022
-16.628
-15.343
-14.187
-13.173
-12.317
-11.631
-11.125
-10.809
-10.693
-10.778
-11.063
-11.546
-12.225
-13.108
-14.209
-15.537
-17.093
-18.876
-20.876
-23.08
-25.474
-28.031
-30.712
-33.475
-36.281
-39.097
-41.903
-44.671
-47.358
-49.914
-52.266
-54.352
-56.134
-57.578
-58.669
-59.408
-59.806
-59.898
-59.746
-59.424
-59.019
-58.63
-58.351
-58.289
-58.542
-59.258
-60.668
-62.898
-65.938
-69.613
-73.511
-77.226
-80.484
-82.917
-84.051
-83.65
-81.74
-78.872
-76.229
-74.9
-75.604
-78.879
-85.05
-94.029
-105.199
-116.886
-126.351
-130.685
-127.243
-113.872
-88.798
-50.663
0.98
65.184
139.52
220.456
304.02
386.288
462.888
529.133
580.803
614.268
627.081
618.396
588.043
536.464
465.549
378.359
278.869
172.184
63.446
-42.929
-142.322
-230.481
-304.267
-361.338
-400.904
-423.908
-432.02
-427.391
-412.816
-390.951
-364.462
-335.024
-303.47
-271.68
-240.247
-211.414
-187.724
-166.381
-146.065
-124.194
-97.122
-69.237
-44.35
-25.358
-16.251
-14.24
-15.741
-18.952
-21.383
-23.298
-25.345
-26.837
-27.598
-27.482
-26.719
-26.222
-26.486
-27.534
-29.251
-31.366
-33.649
-35.916
-37.807
-38.843
-38.749
-37.437
-34.95
-31.456
-27.086
-21.936
-16.147
-9.877
-3.28
3.506
10.366
17.198
23.898
30.384
36.591
42.476
48.023
53.224
58.086
62.642
66.925
70.971
74.811
78.465
81.964
85.344
88.646
91.914
95.179
98.457
101.767
105.123
108.514
111.932
115.362
118.771
122.153
125.511
128.818
132.052
135.241
138.399
141.533
144.664
147.745
150.71
153.586
156.407
159.003
161.178
163.021
164.528
165.673
166.824
166.912
164.945
162.398
159.726
159.628
165.272
173.062
180.667
184.628
179.985
170.845
160.93
152.714
150.272
151.032
151.089
148.871
143.895
137.623
133.833
135.176
138.637
142.008
141.856
134.014
122.502
110.561
100.441
95.882
94.247
92.859
91.135
87.428
82.675
78.126
73.576
69.192
64.908
60.49
56.109
51.913
47.871
43.984
40.275
36.749
33.404
30.242
27.247
24.395
21.703
19.186
16.841
14.672
12.678
10.859
9.215
7.751
6.461
5.34
4.387
3.595
2.961
2.48
2.145
1.951
1.89
1.956
2.14
2.435
2.833
3.326
3.904
4.559
5.282
6.064
6.895
7.766
8.667
9.588
10.519
11.45
12.371
13.272
14.143
14.975
15.758
16.484
17.144
17.73
18.235
18.652
18.975
19.198
19.317
19.327
19.225
19.009
18.676
18.224
17.653
16.963
16.155
15.23
14.191
13.039
11.78
10.417
8.956
7.403
5.765
4.048
2.262
0.414
-1.485
-3.427
-5.399
-7.392
-9.394
-11.393
-13.378
-15.337
-17.259
-19.133
-20.949
-22.694
-24.361
-25.94
-27.42
-28.796
-30.057
-31.197
-32.209
-33.088
-33.827
-34.424
-34.874
-35.176
-35.327
-35.328
-35.179
-34.882
-34.44
-33.856
-33.134
-32.282
-31.305
-30.211
-29.011
-27.716
-26.34
-24.898
-23.405
-21.879
-20.334
-18.789
-17.261
-15.764
-14.31
-12.913
-11.585
-10.338
-9.187
-8.148
-7.231
-6.448
-5.809
-5.322
-4.996
-4.834
-4.834
-4.993
-5.312
-5.796
-6.462
-7.323
-8.384
-9.646
-11.106
-12.753
-14.576
-16.548
-18.626
-20.767
-22.927
-25.068
-27.169
-29.2
-31.118
-32.875
-34.403
-35.645
-36.563
-37.126
-37.325
-37.17
-36.69
-35.939
-35.003
-33.977
-32.973
-32.114
-31.509
-31.262
-31.473
-32.29
-33.941
-36.584
-40.23
-44.696
-49.616
-54.631
-59.429
-63.577
-66.508
-67.812
-67.412
-65.86
-64.166
-63.131
-63.613
-66.551
-72.493
-81.82
-93.252
-103.107
-108.998
-109.489
-104.799
-98.15
-87.371
-66.395
-28.169
36.533
128.046
239.005
357.945
468.236
558.485
622.43
659.16
674.635
673.049
657.18
626.614
577.044
507.36
419.909
320.503
215.751
109.477
2.918
-104.897
-209.54
-301.654
-372.686
-413.217
-423.125
-411.553
-385.964
-355.773
-326.001
-294.172
-260.012
-223.642
-185.739
-150.538
-121.305
-98.639
-82.292
-71.144
-63.785
-59.557
-57.942
-57.557
-56.455
-53.559
-48.557
-41.544
-33.148
-23.821
-13.802
-3.883
4.724
11.275
15.477
17.387
17.484
16.179
13.716
10.54
7.26
4.351
2.168
0.886
0.46
0.848
2.058
4.06
6.808
10.246
14.281
18.823
23.806
29.152
34.778
40.595
46.483
52.308
57.96
63.364
68.479
73.286
77.769
81.911
85.705
89.168
92.332
95.229
97.888
100.329
102.576
104.665
106.641
108.554
110.442
112.324
114.216
116.123
118.053
120.012
121.997
123.995
125.995
127.987
129.966
131.928
133.867
135.769
137.622
139.41
141.123
142.75
144.28
145.701
147.001
148.169
149.197
150.078
150.802
151.358
151.735
151.923
151.912
151.691
151.252
150.585
149.684
148.541
147.153
145.516
143.629
141.489
139.098
136.456
133.566
130.433
127.061
123.458
119.632
115.591
111.347
106.911
102.296
97.515
92.583
87.514
82.324
77.03
71.649
66.196
60.691
55.15
49.592
44.034
38.493
32.987
27.532
22.146
16.844
11.642
6.553
1.592
-3.23
-7.899
-12.406
-16.74
-20.894
-24.86
-28.631
-32.204
-35.574
-38.739
-41.697
-44.45
-46.996
-49.339
-51.481
-53.426
-55.179
-56.745
-58.13
-59.341
-60.387
-61.275
-62.013
-62.612
-63.079
-63.427
-63.663
-63.8
-63.847
-63.815
-63.715
-63.558
-63.353
-63.112
-62.844
-62.559
-62.266
-61.974
-61.69
-61.422
-61.177
-60.96
-60.777
-60.632
-60.529
-60.471
-60.46
-60.498
-60.587
-60.727
-60.919
-61.161
-61.454
-61.795
-62.183
-62.616
-63.09
-63.602
-64.15
-64.728
-65.332
-65.958
-66.6
-67.254
-67.912
-68.571
-69.222
-69.86
-70.479
-71.071
-71.63
-72.15
-72.624
-73.047
-73.412
-73.716
-73.953
-74.118
-74.208
-74.22
-74.149
-73.993
-73.749
-73.414
-72.988
-72.469
-71.856
-71.15
-70.351
-69.459
-68.476
-67.404
-66.245
-65.003
-63.68
-62.282
-60.813
-59.281
-57.693
-56.057
-54.382
-52.679
-50.961
-49.242
-47.533
-45.85
-44.207
-42.618
-41.099
-39.664
-38.323
-37.09
-35.976
-34.993
-34.153
-33.468
-32.949
-32.608
-32.458
-32.508
-32.768
-33.245
-33.939
-34.85
-35.98
-37.33
-38.912
-40.731
-42.786
-45.076
-47.595
-50.331
-53.268
-56.372
-59.589
-62.868
-66.152
-69.394
-72.571
-75.642
-78.547
-81.236
-83.635
-85.692
-87.413
-88.781
-89.746
-90.333
-90.623
-90.728
-90.835
-91.093
-91.501
-92.076
-92.933
-94.038
-95.186
-96.451
-98.038
-99.913
-102.57
-105.75
-107.455
-107.921
-108.761
-111.904
-123.1
-142.682
-163.281
-178.341
-177.281
-156.565
-127.462
-99.162
-82.266
-82.322
-88.866
-95.868
-99.989
-98.549
-99.742
-104.083
-104.262
-94.936
-65.253
-11.851
57.392
136.172
216.114
291.434
364.121
434.145
498.899
555.061
597.015
620.419
624.1
608.149
572.506
517.767
446.022
360.231
264.553
163.91
62.045
-37.495
-130.106
-211.461
-278.303
-328.695
-362.473
-380.727
-384.396
-374.785
-354.616
-327.55
-297.437
-267.403
-239.561
-215.02
-194.741
-179.803
-170.273
-164.995
-162.221
-160.188
-157.419
-153.289
-147.432
-139.105
-128.091
-114.895
-100.416
-85.933
-72.732
-61.417
-52.246
-45.581
-41.514
-39.942
-40.648
-43.067
-46.505
-50.529
-54.881
-59.354
-63.839
-68.16
-72.057
-75.366
-78.015
-79.947
-81.13
-81.527
-81.075
-79.76
-77.641
-74.803
-71.352
-67.39
-62.971
-58.146
-52.988
-47.592
-42.082
-36.591
-31.203
-25.97
-20.933
-16.122
-11.563
-7.271
-3.222
0.621
4.288
7.805
11.18
14.416
17.537
20.571
23.541
26.488
29.452
32.448
35.507
38.637
41.801
44.98
48.179
51.343
54.401
57.31
59.991
62.412
64.673
66.806
68.736
70.562
72.541
74.673
76.887
79.264
81.338
83.511
87.724
93.594
99.38
102.671
97.247
82.408
64.785
50.027
48.056
62.407
82.746
101.428
109.339
100.915
85.39
69.388
57.412
53.967
54.209
54.411
54.055
51.405
47.773
44.509
41.102
37.639
34.104
30.254
26.256
22.274
18.292
14.343
10.508
6.815
3.247
-0.196
-3.521
-6.746
-9.846
-12.8
-15.609
-18.268
-20.765
-23.098
-25.257
-27.237
-29.039
-30.663
-32.11
-33.382
-34.482
-35.412
-36.175
-36.778
-37.224
-37.519
-37.67
-37.684
-37.567
-37.326
-36.97
-36.506
-35.942
-35.286
-34.546
-33.73
-32.846
-31.902
-30.907
-29.868
-28.793
-27.69
-26.566
-25.429
-24.284
-23.139
-21.999
-20.868
-19.751
-18.652
-17.574
-16.521
-15.494
-14.497
-13.531
-12.598
-11.7
-10.838
-10.013
-9.227
-8.479
-7.771
-7.103
-6.475
-5.887
-5.339
-4.832
-4.363
-3.934
-3.542
-3.186
-2.865
-2.576
-2.317
-2.086
-1.881
-1.698
-1.536
-1.391
-1.261
-1.144
-1.036
-0.935
-0.837
-0.741
-0.642
-0.537
-0.423
-0.297
-0.155
0.006
0.192
0.404
0.648
0.926
1.244
1.603
2.009
2.463
2.968
3.526
4.139
4.808
5.531
6.309
7.14
8.023
8.954
9.931
10.948
12.003
13.087
14.194
15.314
16.436
17.551
18.645
19.706
20.721
21.677
22.561
23.363
24.072
24.676
25.162
25.514
25.718
25.762
25.635
25.326
24.825
24.121
23.21
22.092
20.767
19.232
17.48
15.491
13.256
10.769
8.033
5.056
1.851
-1.571
-5.181
-8.936
-12.791
-16.697
-20.615
-24.517
-28.367
-32.117
-35.703
-39.043
-42.07
-44.736
-47.007
-48.87
-50.319
-51.363
-52.04
-52.42
-52.595
-52.68
-52.783
-53.012
-53.487
-54.304
-55.636
-57.723
-60.684
-64.527
-69.08
-73.95
-78.812
-83.467
-87.581
-90.732
-92.657
-93.23
-92.873
-92.561
-93.003
-94.596
-97.537
-101.716
-106.934
-112.831
-118.023
-120.27
-117.477
-107.608
-89.218
-61.668
-24.07
24.528
83.695
151.949
227.472
306.406
385.283
462.738
535.239
600.73
658.044
700.548
723.703
723.332
694.116
639.377
563.961
473.052
374.447
271.122
165.716
62.279
-35.651
-122.71
-194.551
-249.322
-286.677
-307.957
-314.957
-309.203
-292.986
-269.226
-240.964
-211.039
-181.223
-152.572
-126.181
-103.43
-85.422
-72.352
-63.683
-58.535
-56.28
-56.531
-58.567
-61.057
-62.633
-62.603
-60.919
-57.95
-54.151
-49.809
-45.356
-41.599
-39.278
-38.749
-40.001
-42.688
-46.319
-50.476
-54.758
-58.677
-61.871
-64.143
-65.372
-65.56
-64.757
-63.021
-60.442
-57.135
-53.191
-48.648
-43.575
-38.124
-32.516
-26.824
-21.026
-15.297
-9.667
-4.117
1.012
6.661
13.746
21.02
28.142
32.754
32.038
29.174
26.316
26.691
34.749
46.827
59.721
71.276
77.884
81.965
86.005
90.615
97.242
104.961
113.168
121.261
128.122
135.085
142.4
152.64
170.014
190.988
211.803
226.704
226.536
215.206
200.775
190.35
194.482
211.104
230.957
248.249
255.819
253.528
247.498
240.599
235.128
231.768
228.362
224.222
219.609
214.448
209.061
203.555
197.679
191.373
184.738
177.834
170.703
163.434
156.096
148.729
141.372
134.004
126.571
119.047
111.432
103.731
95.964
88.156
80.329
72.515
64.735
56.992
49.29
41.633
34.035
26.522
19.129
11.903
4.887
-1.879
-8.362
-14.538
-20.391
-25.911
-31.095
-35.946
-40.465
-44.651
-48.504
-52.02
-55.202
-58.06
-60.601
-62.841
-64.794
-66.477
-67.907
-69.102
-70.076
-70.844
-71.419
-71.814
-72.04
-72.113
-72.047
-71.858
-71.562
-71.174
-70.712
-70.191
-69.627
-69.034
-68.425
-67.813
-67.212
-66.631
-66.083
-65.578
-65.124
-64.731
-64.406
-64.156
-63.986
-63.902
-63.908
-64.005
-64.196
-64.483
-64.865
-65.341
-65.91
-66.57
-67.318
-68.149
-69.061
-70.047
-71.102
-72.219
-73.391
-74.609
-75.866
-77.152
-78.459
-79.775
-81.094
-82.404
-83.697
-84.964
-86.194
-87.378
-88.508
-89.572
-90.564
-91.472
-92.288
-93.005
-93.615
-94.11
-94.485
-94.734
-94.851
-94.833
-94.676
-94.377
-93.935
-93.348
-92.616
-91.742
-90.726
-89.572
-88.286
-86.871
-85.335
-83.684
-81.926
-80.071
-78.127
-76.103
-74.009
-71.857
-69.657
-67.422
-65.164
-62.896
-60.633
-58.392
-56.19
-54.042
-51.967
-49.982
-48.102
-46.345
-44.722
-43.247
-41.931
-40.783
-39.815
-39.037
-38.459
-38.085
-37.922
-37.973
-38.24
-38.722
-39.413
-40.306
-41.391
-42.664
-44.127
-45.787
-47.649
-49.709
-51.962
-54.4
-57.011
-59.777
-62.668
-65.638
-68.636
-71.617
-74.542
-77.376
-80.079
-82.592
-84.851
-86.788
-88.341
-89.474
-90.161
-90.378
-90.122
-89.41
-88.282
-86.832
-85.186
-83.46
-81.794
-80.327
-79.175
-78.533
-78.648
-79.672
-81.667
-84.517
-87.894
-91.506
-95.116
-98.349
-100.755
-101.965
-101.786
-100.633
-99.458
-99.103
-100.266
-103.457
-108.994
-117.156
-127.756
-139.324
-149.377
-155.224
-154.089
-143.836
-122.706
-88.632
-40.384
21.546
95.205
177.376
263.996
351.385
435.478
510.924
572.71
616.643
639.558
640.146
618.1
573.344
507.188
422.942
324.975
218.707
109.772
2.873
-97.198
-185.815
-259.47
-315.984
-355.034
-378.087
-387.204
-384.571
-373.149
-355.883
-335.608
-314.929
-294.738
-274.906
-255.467
-236.251
-216.997
-197.871
-178.584
-158.774
-139.418
-121.671
-106.14
-93.44
-83.506
-75.599
-69.601
-65.435
-62.272
-59.474
-56.638
-53.353
-49.909
-47.041
-44.992
-43.872
-43.877
-44.915
-46.912
-49.822
-53.24
-56.587
-59.434
-61.473
-62.541
-62.668
-61.873
-60.154
-57.575
-54.238
-50.259
-45.757
-40.824
-35.515
-29.869
-23.951
-17.847
-11.674
-5.568
0.375
6.109
11.607
16.854
21.838
26.547
30.99
35.206
39.229
43.083
46.784
50.337
53.755
57.068
60.313
63.528
66.74
69.959
73.191
76.439
79.704
82.985
86.269
89.533
92.76
95.936
99.051
102.097
105.063
107.932
110.688
113.318
115.807
118.142
120.313
122.304
124.104
125.705
127.096
128.272
129.226
129.949
130.435
130.676
130.665
130.4
129.874
129.085
128.03
126.709
125.124
123.277
121.172
118.815
116.211
113.369
110.298
107.007
103.508
99.812
95.933
91.885
87.682
83.339
78.872
74.297
69.63
64.89
60.092
55.254
50.394
45.529
40.676
35.852
31.073
26.356
21.716
17.167
12.724
8.4
4.209
0.16
-3.736
-7.469
-11.031
-14.415
-17.615
-20.627
-23.447
-26.072
-28.5
-30.732
-32.767
-34.606
-36.253
-37.709
-38.979
-40.068
-40.98
-41.721
-42.299
-42.721
-42.994
-43.128
-43.13
-43.01
-42.777
-42.442
-42.013
-41.502
-40.917
-40.269
-39.567
-38.821
-38.039
-37.232
-36.406
-35.571
-34.734
-33.901
-33.081
-32.279
-31.5
-30.749
-30.03
-29.349
-28.707
-28.109
-27.556
-27.05
-26.593
-26.187
-25.831
-25.525
-25.269
-25.062
-24.902
-24.786
-24.712
-24.677
-24.677
-24.71
-24.77
-24.854
-24.959
-25.079
-25.21
-25.346
-25.484
-25.619
-25.744
-25.856
-25.95
-26.019
-26.06
-26.069
-26.041
-25.972
-25.858
-25.694
-25.477
-25.203
-24.868
-24.47
-24.004
-23.47
-22.864
-22.187
-21.437
-20.615
-19.719
-18.753
-17.716
-16.613
-15.446
-14.217
-12.93
-11.589
-10.201
-8.771
-7.305
-5.81
-4.295
-2.771
-1.25
0.258
1.739
3.183
4.576
5.905
7.159
8.329
9.404
10.377
11.236
11.967
12.561
13.008
13.302
13.434
13.399
13.187
12.799
12.239
11.51
10.612
9.538
8.275
6.814
5.156
3.303
1.263
-0.955
-3.338
-5.855
-8.462
-11.111
-13.756
-16.361
-18.9
-21.334
-23.613
-25.679
-27.461
-28.914
-30.01
-30.719
-31.031
-30.959
-30.532
-29.819
-28.918
-27.925
-26.955
-26.142
-25.601
-25.448
-25.783
-26.736
-28.521
-31.261
-34.919
-39.304
-44.069
-48.922
-53.71
-58.153
-61.68
-63.84
-64.558
-64.271
-63.833
-63.773
-64.159
-65.201
-67.55
-71.85
-76.994
-79.8
-77.104
-67.384
-53.272
-39.409
-26.048
-8.063
23.634
77.189
153.526
245.893
344.681
441.977
530.717
604.996
658.156
681.642
671.947
632.161
569.788
494.447
413.11
327.764
237.404
142.553
45.427
-50.052
-137.787
-213.725
-276.082
-323.514
-356.576
-376.76
-384.663
-381.415
-369.016
-348.99
-323.445
-294.916
-264.544
-232.991
-201.388
-170.669
-141.985
-116.764
-95.265
-77.103
-62.479
-51.434
-43.759
-39.079
-36.115
-33.46
-30.598
-27.402
-23.747
-19.726
-15.344
-10.804
-6.969
-4.55
-3.758
-4.577
-6.704
-9.752
-13.48
-17.495
-21.186
-24.115
-26.017
-26.77
-26.459
-25.164
-22.912
-19.792
-15.929
-11.442
-6.456
-1.066
4.657
10.623
16.718
22.808
28.766
34.508
39.982
45.158
50.03
54.589
58.836
62.798
66.503
69.982
73.262
76.362
79.304
82.121
84.849
87.533
90.208
92.892
95.595
98.32
101.063
103.821
106.582
109.327
112.036
114.694
117.288
119.81
122.246
124.581
126.798
128.878
130.807
132.569
134.154
135.545
136.733
137.705
138.452
138.97
139.25
139.283
139.061
138.579
137.828
136.806
135.509
133.935
132.082
129.954
127.553
124.886
121.957
118.776
115.351
111.692
107.811
103.72
99.433
94.965
90.329
85.544
80.625
75.591
70.459
65.248
59.974
54.659
49.319
43.974
38.643
33.344
28.094
22.912
17.814
12.817
7.936
3.185
-1.422
-5.873
-10.158
-14.266
-18.189
-21.92
-25.453
-28.783
-31.907
-34.822
-37.527
-40.022
-42.308
-44.385
-46.257
-47.928
-49.4
-50.681
-51.774
-52.686
-53.424
-53.995
-54.407
-54.669
-54.789
-54.776
-54.639
-54.389
-54.035
-53.586
-53.052
-52.443
-51.768
-51.037
-50.259
-49.442
-48.595
-47.726
-46.844
-45.955
-45.067
-44.186
-43.32
-42.473
-41.652
-40.861
-40.106
-39.39
-38.718
-38.093
-37.519
-36.997
-36.531
-36.122
-35.771
-35.48
-35.25
-35.08
-34.97
-34.919
-34.928
-34.993
-35.114
-35.289
-35.515
-35.789
-36.109
-36.471
-36.872
-37.308
-37.775
-38.269
-38.785
-39.319
-39.864
-40.417
-40.971
-41.521
-42.061
-42.585
-43.088
-43.564
-44.009
-44.415
-44.778
-45.092
-45.353
-45.556
-45.694
-45.765
-45.764
-45.687
-45.532
-45.294
-44.973
-44.565
-44.069
-43.485
-42.812
-42.051
-41.203
-40.27
-39.254
-38.16
-36.991
-35.752
-34.452
-33.1
-31.704
-30.276
-28.827
-27.37
-25.917
-24.483
-23.079
-21.716
-20.407
-19.161
-17.991
-16.91
-15.932
-15.071
-14.337
-13.744
-13.302
-13.02
-12.907
-12.965
-13.194
-13.596
-14.175
-14.946
-15.921
-17.107
-18.508
-20.123
-21.944
-23.959
-26.149
-28.476
-30.902
-33.39
-35.907
-38.433
-40.944
-43.413
-45.798
-48.041
-50.091
-51.904
-53.448
-54.699
-55.653
-56.318
-56.742
-57.003
-57.17
-57.317
-57.517
-57.828
-58.35
-59.187
-60.438
-62.249
-64.806
-68.224
-72.515
-77.526
-82.884
-88.158
-92.937
-96.724
-98.99
-99.381
-97.858
-94.932
-91.662
-89.224
-88.602
-90.555
-95.669
-104.113
-115.358
-127.773
-138.637
-144.724
-142.959
-130.819
-106.097
-67.131
-13.363
54.306
133.307
219.691
309.016
396.957
478.826
549.796
605.647
642.837
659.108
653.908
627.423
580.364
514.746
433.636
340.837
241.165
139.472
39.822
-53.563
-136.784
-207.104
-262.538
-302.363
-327.566
-339.722
-340.407
-332.075
-317.252
-297.984
-276.561
-254.605
-232.698
-211.442
-191.578
-173.176
-156.314
-141.326
-127.934
-115.97
-105.63
-96.609
-88.262
-80.348
-72.593
-64.563
-56.331
-48.033
-39.69
-31.764
-24.939
-19.558
-15.887
-14.193
-14.365
-16.194
-19.481
-23.753
-28.452
-33.209
-37.678
-41.535
-44.635
-46.87
-48.15
-48.518
-48.028
-46.7
-44.578
-41.705
-38.125
-33.925
-29.202
-24.037
-18.532
-12.784
-6.908
-1.043
4.706
10.277
15.626
20.735
25.591
30.174
34.488
38.556
42.4
46.048
49.52
52.826
55.988
59.037
62.005
64.933
67.847
70.758
73.672
76.59
79.509
82.426
85.327
88.191
90.999
93.736
96.389
98.95
101.406
103.738
105.932
107.971
109.841
111.528
113.021
114.305
115.37
116.206
116.806
117.165
117.277
117.135
116.735
116.073
115.143
113.946
112.48
110.744
108.739
106.47
103.94
101.157
98.128
94.861
91.366
87.655
83.738
79.629
75.343
70.893
66.295
61.565
56.72
51.778
46.757
41.674
36.548
31.399
26.243
21.101
15.99
10.927
5.93
1.015
-3.802
-8.508
-13.088
-17.529
-21.82
-25.95
-29.909
-33.688
-37.281
-40.681
-43.882
-46.88
-49.673
-52.258
-54.635
-56.803
-58.764
-60.519
-62.071
-63.424
-64.582
-65.551
-66.338
-66.949
-67.392
-67.675
-67.807
-67.797
-67.655
-67.39
-67.011
-66.528
-65.951
-65.29
-64.552
-63.749
-62.888
-61.978
-61.028
-60.046
-59.041
-58.019
-56.988
-55.956
-54.928
-53.912
-52.912
-51.935
-50.985
-50.068
-49.186
-48.343
-47.543
-46.787
-46.077
-45.415
-44.8
-44.233
-43.713
-43.241
-42.813
-42.43
-42.089
-41.789
-41.528
-41.302
-41.109
-40.947
-40.812
-40.701
-40.61
-40.536
-40.476
-40.425
-40.379
-40.334
-40.287
-40.232
-40.166
-40.083
-39.98
-39.851
-39.693
-39.5
-39.27
-38.997
-38.68
-38.314
-37.896
-37.425
-36.897
-36.31
-35.663
-34.954
-34.182
-33.346
-32.446
-31.482
-30.455
-29.366
-28.217
-27.01
-25.747
-24.433
-23.07
-21.664
-20.218
-18.738
-17.232
-15.704
-14.163
-12.618
-11.078
-9.555
-8.06
-6.607
-5.209
-3.878
-2.628
-1.473
-0.424
0.509
1.317
1.99
2.517
2.887
3.089
3.116
2.959
2.614
2.074
1.336
0.399
-0.731
-2.05
-3.554
-5.248
-7.143
-9.249
-11.563
-14.084
-16.8
-19.696
-22.755
-25.946
-29.222
-32.536
-35.837
-39.083
-42.245
-45.287
-48.16
-50.803
-53.137
-55.094
-56.633
-57.721
-58.345
-58.509
-58.232
-57.567
-56.601
-55.442
-54.203
-52.999
-51.942
-51.157
-50.761
-50.924
-51.879
-53.762
-56.58
-60.18
-64.201
-68.257
-72.041
-75.124
-76.96
-77.193
-75.718
-72.931
-69.799
-67.275
-66.062
-66.724
-69.665
-74.942
-82.084
-89.608
-95.032
-95.546
-88.443
-71.478
-42.723
-0.669
55.215
124.118
203.773
290.595
380.4
469.005
551.705
623.616
680.505
718.682
735.633
730.554
703.411
654.903
587.295
503.871
408.435
305.816
201.122
98.708
3.007
-81.751
-153.862
-212.399
-255.523
-283.916
-296.732
-292.949
-278.447
-257.797
-236.403
-220.779
-207.914
-194.649
-178.861
-156.752
-131.256
-105.791
-81.461
-60.402
-42.49
-27.313
-15.637
-7.644
-3.039
-1.039
-0.687
-1.099
-1.561
-1.626
-0.97
0.558
2.565
4.261
5.11
4.728
3.009
0.171
-3.584
-8
-12.642
-16.968
-20.546
-23.095
-24.501
-24.821
-24.113
-22.428
-19.855
-16.509
-12.515
-7.982
-3.018
2.285
7.83
13.492
19.165
24.759
30.193
35.42
40.42
45.183
49.713
54.027
58.134
62.051
65.805
69.415
72.909
76.321
79.683
83.038
86.424
89.862
93.372
96.96
100.625
104.364
108.167
112.016
115.9
119.805
123.719
127.633
131.535
135.409
139.24
143.009
146.699
150.294
153.779
157.138
160.357
163.424
166.326
169.053
171.596
173.941
176.077
177.993
179.677
181.12
182.314
183.251
183.926
184.332
184.469
184.336
183.932
183.259
182.32
181.116
179.654
177.939
175.976
173.773
171.338
168.679
165.807
162.733
159.468
156.023
152.411
148.645
144.737
140.703
136.554
132.305
127.969
123.559
119.089
114.571
110.017
105.438
100.845
96.246
91.65
87.065
82.497
77.952
73.435
68.949
64.498
60.084
55.711
51.379
47.09
42.846
38.646
34.492
30.383
26.32
22.301
18.326
14.394
10.505
6.657
2.849
-0.922
-4.655
-8.353
-12.017
-15.649
-19.25
-22.82
-26.36
-29.87
-33.35
-36.798
-40.214
-43.595
-46.94
-50.246
-53.511
-56.734
-59.91
-63.037
-66.113
-69.136
-72.102
-75.01
-77.858
-80.644
-83.367
-86.024
-88.616
-91.14
-93.598
-95.986
-98.305
-100.555
-102.733
-104.841
-106.877
-108.84
-110.732
-112.55
-114.295
-115.968
-117.568
-119.097
-120.555
-121.942
-123.26
-124.509
-125.692
-126.807
-127.857
-128.843
-129.764
-130.62
-131.414
-132.143
-132.807
-133.406
-133.938
-134.403
-134.798
-135.122
-135.374
-135.55
-135.65
-135.67
-135.61
-135.467
-135.238
-134.922
-134.518
-134.024
-133.439
-132.763
-131.993
-131.13
-130.173
-129.122
-127.977
-126.738
-125.407
-123.983
-122.468
-120.865
-119.176
-117.404
-115.551
-113.623
-111.624
-109.559
-107.434
-105.255
-103.029
-100.764
-98.467
-96.148
-93.814
-91.476
-89.146
-86.834
-84.556
-82.323
-80.149
-78.048
-76.033
-74.118
-72.314
-70.63
-69.075
-67.658
-66.387
-65.272
-64.324
-63.552
-62.963
-62.563
-62.358
-62.353
-62.548
-62.938
-63.515
-64.276
-65.221
-66.36
-67.703
-69.25
-71.001
-72.95
-75.081
-77.374
-79.797
-82.303
-84.841
-87.365
-89.831
-92.212
-94.48
-96.595
-98.508
-100.156
-101.475
-102.424
-102.964
-103.07
-102.752
-102.038
-100.994
-99.726
-98.322
-96.883
-95.518
-94.331
-93.442
-92.98
-93.061
-93.844
-95.557
-98.304
-102.04
-106.546
-111.346
-115.943
-119.94
-122.842
-124.04
-123.211
-120.482
-116.494
-112.507
-109.751
-108.896
-110.427
-114.846
-122.052
-130.973
-139.569
-144.671
-142.91
-131.915
-109.779
-74.501
-24.97
38.502
114.254
198.83
287.854
377.61
464.265
543.019
609.247
659.115
689.642
699.547
688.582
656.316
603.273
531.562
444.468
346.258
241.189
134.132
31.437
-62.06
-142.849
-211.04
-272.888
-328.823
-372.402
-393.637
-377.548
-322.915
-246.494
-170.858
-120.064
-104.145
-113.104
-130.139
-140.307
-136.798
-123.77
-109.473
-98.956
-93.245
-90.369
-86.926
-81.162
-73.198
-63.793
-54.094
-45.085
-37.439
-31.466
-27.311
-25.155
-24.962
-26.595
-29.805
-34.058
-38.701
-43.272
-47.473
-51.108
-54.11
-56.382
-57.788
-58.301
-57.967
-56.836
-54.968
-52.396
-49.129
-45.209
-40.75
-35.883
-30.76
-25.537
-20.306
-15.131
-10.071
-5.174
-0.492
3.94
8.118
12.057
15.768
19.258
22.53
25.591
28.478
31.234
33.909
36.55
39.189
41.843
44.529
47.257
50.034
52.863
55.737
58.64
61.564
64.502
67.45
70.404
73.352
76.279
79.169
82.008
84.781
87.475
90.073
92.562
94.929
97.163
99.252
101.187
102.958
104.552
105.958
107.163
108.156
108.928
109.469
109.77
109.824
109.628
109.176
108.467
107.501
106.277
104.799
103.069
101.091
98.871
96.416
93.733
90.833
87.727
84.425
80.94
77.288
73.483
69.541
65.478
61.312
57.059
52.738
48.365
43.96
39.539
35.12
30.72
26.354
22.04
17.792
13.623
9.546
5.574
1.716
-2.017
-5.618
-9.079
-12.393
-15.556
-18.562
-21.407
-24.09
-26.608
-28.96
-31.146
-33.168
-35.027
-36.725
-38.268
-39.657
-40.9
-42
-42.965
-43.8
-44.513
-45.109
-45.596
-45.982
-46.272
-46.473
-46.592
-46.635
-46.608
-46.515
-46.363
-46.154
-45.894
-45.587
-45.236
-44.844
-44.415
-43.953
-43.461
-42.942
-42.398
-41.832
-41.248
-40.648
-40.034
-39.407
-38.771
-38.126
-37.473
-36.815
-36.153
-35.487
-34.819
-34.15
-33.482
-32.815
-32.152
-31.493
-30.841
-30.199
-29.568
-28.952
-28.354
-27.777
-27.224
-26.699
-26.204
-25.744
-25.32
-24.936
-24.593
-24.294
-24.041
-23.834
-23.676
-23.567
-23.508
-23.499
-23.54
-23.631
-23.772
-23.962
-24.2
-24.486
-24.816
-25.19
-25.606
-26.061
-26.551
-27.074
-27.626
-28.202
-28.797
-29.404
-30.019
-30.634
-31.243
-31.838
-32.414
-32.963
-33.479
-33.954
-34.382
-34.756
-35.071
-35.32
-35.498
-35.598
-35.617
-35.548
-35.389
-35.135
-34.783
-34.329
-33.771
-33.107
-32.336
-31.457
-30.469
-29.374
-28.174
-26.871
-25.469
-23.974
-22.392
-20.733
-19.006
-17.221
-15.39
-13.527
-11.645
-9.757
-7.877
-6.018
-4.192
-2.413
-0.693
0.953
2.51
3.965
5.302
6.507
7.569
8.476
9.216
9.785
10.178
10.391
10.417
10.243
9.858
9.255
8.433
7.391
6.134
4.674
3.034
1.249
-0.644
-2.612
-4.626
-6.665
-8.708
-10.727
-12.684
-14.534
-16.235
-17.751
-19.06
-20.141
-20.981
-21.601
-22.054
-22.428
-22.811
-23.259
-23.817
-24.538
-25.495
-26.772
-28.469
-30.665
-33.457
-37.01
-41.411
-46.618
-52.447
-58.507
-64.304
-69.378
-73.206
-75.177
-74.922
-72.454
-68.266
-63.278
-58.543
-55.205
-54.25
-56.555
-62.811
-71.678
-80.851
-88.944
-92.917
-91.802
-85.387
-67.464
-34.721
15.728
88.173
176.231
274.522
378.886
477.583
564.735
633.999
676.728
695.06
691.857
668.412
627.827
566.863
481.694
376.701
260.504
144.534
41.316
-45.859
-120.479
-185.391
-244.844
-298.239
-340.348
-369.147
-383.051
-382.16
-370.058
-349.356
-322.423
-292.046
-259.341
-225.299
-191.607
-159.884
-131.937
-108.986
-90.883
-76.972
-66.987
-60.55
-57.157
-55.826
-54.688
-52.494
-48.994
-44.286
-38.639
-32.308
-25.372
-18.312
-12.255
-7.903
-5.459
-4.881
-5.763
-7.78
-10.792
-14.472
-18.267
-21.741
-24.575
-26.566
-27.747
-28.147
-27.745
-26.583
-24.719
-22.223
-19.19
-15.7
-11.804
-7.546
-2.969
1.888
6.952
12.136
17.348
22.492
27.506
32.355
37.005
41.442
45.654
49.647
53.445
57.082
60.583
63.965
67.238
70.409
73.497
76.525
79.52
82.512
85.52
88.551
91.614
94.711
97.836
100.981
104.127
107.251
110.333
113.355
116.301
119.158
121.91
124.539
127.027
129.356
131.51
133.473
135.229
136.765
138.067
139.125
139.928
140.471
140.747
140.747
140.467
139.898
139.038
137.882
136.428
134.674
132.621
130.272
127.629
124.701
121.494
118.019
114.287
110.309
106.101
101.679
97.058
92.257
87.294
82.189
76.961
71.63
66.217
60.741
55.223
49.684
44.142
38.618
33.13
27.697
22.336
17.065
11.9
6.856
1.948
-2.81
-7.406
-11.828
-16.065
-20.109
-23.952
-27.588
-31.012
-34.221
-37.212
-39.987
-42.545
-44.889
-47.022
-48.949
-50.676
-52.208
-53.553
-54.719
-55.715
-56.548
-57.228
-57.765
-58.168
-58.446
-58.611
-58.671
-58.636
-58.516
-58.321
-58.059
-57.74
-57.373
-56.965
-56.526
-56.062
-55.58
-55.087
-54.59
-54.092
-53.6
-53.116
-52.644
-52.186
-51.745
-51.321
-50.915
-50.528
-50.158
-49.805
-49.47
-49.15
-48.844
-48.551
-48.269
-47.998
-47.736
-47.481
-47.233
-46.989
-46.749
-46.513
-46.281
-46.054
-45.826
-45.597
-45.364
-45.128
-44.893
-44.659
-44.418
-44.173
-43.945
-43.748
-43.6
-43.505
-43.438
-43.397
-43.414
-43.472
-43.514
-43.496
-43.366
-43.118
-42.832
-42.538
-42.155
-41.759
-41.653
-41.92
-42.462
-43.318
-44.187
-45.588
-49.411
-55.394
-61.739
-65.717
-61.976
-50.444
-36.587
-25.711
-25.373
-36.587
-52.084
-66.209
-73.018
-71.039
-65.663
-60.335
-57.242
-57.23
-58.107
-58.771
-59.312
-59.634
-60.048
-60.661
-61.164
-61.454
-61.577
-61.525
-61.278
-60.845
-60.238
-59.481
-58.626
-57.692
-56.657
-55.516
-54.277
-52.943
-51.527
-50.035
-48.472
-46.845
-45.172
-43.465
-41.739
-40.008
-38.283
-36.574
-34.896
-33.26
-31.682
-30.177
-28.758
-27.439
-26.233
-25.151
-24.203
-23.397
-22.736
-22.219
-21.85
-21.633
-21.584
-21.715
-22.033
-22.544
-23.248
-24.14
-25.21
-26.441
-27.797
-29.247
-30.756
-32.295
-33.846
-35.385
-36.883
-38.301
-39.587
-40.688
-41.565
-42.184
-42.514
-42.562
-42.343
-41.905
-41.327
-40.669
-39.998
-39.404
-38.97
-38.796
-38.992
-39.647
-40.896
-42.951
-45.941
-49.86
-54.536
-59.578
-64.56
-69.109
-72.766
-74.982
-75.376
-73.93
-71.208
-68.202
-65.966
-65.567
-67.788
-73.229
-82.427
-94.006
-105.478
-115.3
-120.541
-120.317
-114.602
-97.808
-65.987
-15.323
57.523
146.248
243.659
342.938
435.604
518.349
587.931
639.595
670.548
677.715
659.367
616.273
550.176
464.589
364.378
255.242
143.321
33.882
-68.181
-158.687
-234.664
-293.903
-335.689
-361.162
-372.276
-371.159
-360.654
-343.348
-321.361
-297.365
-273.25
-249.889
-228.107
-208.238
-189.965
-173.386
-158.756
-145.46
-133.106
-121.425
-109.668
-97.647
-85.584
-73.28
-60.509
-47.562
-34.713
-22.461
-11.722
-2.881
4.037
8.863
11.532
12.165
10.908
8.177
4.649
0.739
-3.315
-7.268
-10.947
-14.151
-16.64
-18.321
-19.221
-19.35
-18.726
-17.359
-15.235
-12.407
-8.974
-5.037
-0.7
3.96
8.893
14.024
19.26
24.502
29.645
34.619
39.395
43.948
48.264
52.342
56.184
59.814
63.274
66.601
69.824
72.967
76.04
79.062
82.059
85.058
88.094
91.186
94.341
97.563
100.853
104.204
107.61
111.052
114.504
117.944
121.354
124.717
128.018
131.242
134.368
137.377
140.249
142.966
145.509
147.862
150.007
151.929
153.614
155.05
156.229
157.142
157.78
158.136
158.203
157.975
157.449
156.624
155.498
154.071
152.347
150.33
148.026
145.445
142.593
139.483
136.125
132.532
128.718
124.698
120.487
116.102
111.56
106.878
102.076
97.17
92.182
87.13
82.034
76.913
71.785
66.671
61.588
56.553
51.583
46.694
41.901
37.217
32.657
28.231
23.952
19.828
15.87
12.084
8.478
5.057
1.826
-1.211
-4.052
-6.693
-9.134
-11.375
-13.415
-15.255
-16.899
-18.347
-19.604
-20.675
-21.563
-22.276
-22.819
-23.2
-23.424
-23.502
-23.439
-23.244
-22.926
-22.494
-21.954
-21.317
-20.591
-19.784
-18.905
-17.963
-16.965
-15.92
-14.837
-13.723
-12.587
-11.437
-10.281
-9.126
-7.981
-6.853
-5.75
-4.678
-3.644
-2.654
-1.715
-0.83
-0.004
0.757
1.452
2.077
2.63
3.108
3.51
3.836
4.085
4.257
4.352
4.372
4.317
4.189
3.989
3.719
3.382
2.981
2.517
1.994
1.417
0.788
0.112
-0.606
-1.361
-2.149
-2.965
-3.802
-4.657
-5.524
-6.399
-7.276
-8.151
-9.019
-9.877
-10.721
-11.547
-12.351
-13.132
-13.887
-14.613
-15.31
-15.975
-16.607
-17.205
-17.767
-18.291
-18.776
-19.221
-19.623
-19.982
-20.297
-20.566
-20.789
-20.966
-21.096
-21.177
-21.211
-21.197
-21.135
-21.023
-20.863
-20.654
-20.397
-20.092
-19.739
-19.339
-18.893
-18.4
-17.861
-17.277
-16.647
-15.972
-15.253
-14.49
-13.685
-12.839
-11.957
-11.041
-10.098
-9.135
-8.159
-7.177
-6.199
-5.233
-4.288
-3.372
-2.492
-1.655
-0.866
-0.135
0.53
1.118
1.62
2.027
2.333
2.53
2.612
2.574
2.419
2.148
1.758
1.245
0.591
-0.218
-1.19
-2.332
-3.643
-5.116
-6.738
-8.489
-10.33
-12.224
-14.137
-16.037
-17.908
-19.729
-21.471
-23.093
-24.543
-25.768
-26.737
-27.419
-27.798
-27.892
-27.736
-27.396
-26.974
-26.552
-26.208
-26.041
-26.14
-26.61
-27.575
-29.122
-31.383
-34.563
-38.732
-43.836
-49.67
-55.739
-61.527
-66.641
-70.574
-72.757
-72.992
-71.403
-68.562
-65.776
-64.275
-64.82
-68.151
-74.759
-84.328
-95.839
-107.331
-115.487
-117.021
-109.335
-89.816
-56.522
-8.779
52.998
126.657
207.983
292.34
375.175
451.142
515.229
563.257
591.636
598.717
584.854
550.9
498.409
430.441
350.489
262.457
170.999
79.83
-8.184
-89.899
-162.71
-225.047
-275.575
-313.746
-340.389
-356.315
-362.323
-359.921
-350.419
-334.884
-315.054
-292.552
-268.119
-242.559
-216.762
-191.424
-167.804
-147.215
-129.953
-115.974
-105.495
-98.436
-94.578
-93.425
-93.63
-93.843
-93.496
-92.358
-90.317
-87.466
-83.854
-79.755
-76.014
-73.337
-71.981
-71.952
-72.993
-74.766
-77.038
-79.505
-81.678
-83.172
-83.774
-83.388
-82.082
-79.951
-77.036
-73.407
-69.169
-64.417
-59.246
-53.756
-48.024
-42.136
-36.207
-30.332
-24.589
-19.052
-13.762
-8.745
-4.014
0.43
4.6
8.503
12.152
15.566
18.759
21.757
24.592
27.296
29.912
32.474
35.007
37.532
40.06
42.595
45.139
47.687
50.23
52.758
55.266
57.747
60.198
62.611
64.979
67.29
69.533
71.695
73.766
75.736
77.596
79.337
80.951
82.43
83.771
84.967
86.011
86.895
87.612
88.153
88.514
88.686
88.664
88.443
88.02
87.393
86.56
85.524
84.285
82.846
81.21
79.383
77.371
75.179
72.816
70.29
67.61
64.787
61.832
58.756
55.573
52.294
48.934
45.507
42.025
38.503
34.954
31.392
27.83
24.282
20.761
17.278
13.848
10.48
7.186
3.977
0.861
-2.154
-5.061
-7.853
-10.525
-13.075
-15.499
-17.794
-19.957
-21.986
-23.88
-25.641
-27.273
-28.774
-30.141
-31.387
-32.523
-33.558
-34.507
-35.365
-36.121
-36.793
-37.4
-37.916
-38.32
-38.6
-38.731
-38.742
-38.689
-38.548
-38.275
-38.004
-37.894
-37.855
-37.9
-38.061
-38.01
-38.64
-40.824
-43.321
-45.756
-45.853
-40.884
-33.868
-26.819
-22.733
-25.727
-32.159
-38.943
-43.964
-43.725
-40.726
-37.498
-34.604
-33.588
-33.553
-33.346
-33.186
-32.927
-32.646
-32.577
-32.566
-32.493
-32.397
-32.288
-32.154
-31.997
-31.828
-31.653
-31.495
-31.382
-31.304
-31.252
-31.232
-31.243
-31.288
-31.368
-31.481
-31.626
-31.802
-32.011
-32.253
-32.526
-32.83
-33.163
-33.521
-33.903
-34.305
-34.724
-35.155
-35.595
-36.038
-36.479
-36.912
-37.332
-37.733
-38.108
-38.449
-38.751
-39.006
-39.208
-39.35
-39.426
-39.428
-39.352
-39.191
-38.941
-38.597
-38.153
-37.607
-36.955
-36.194
-35.323
-34.341
-33.246
-32.04
-30.723
-29.299
-27.77
-26.141
-24.417
-22.603
-20.707
-18.736
-16.701
-14.609
-12.473
-10.305
-8.119
-5.931
-3.756
-1.612
0.485
2.517
4.466
6.317
8.056
9.669
11.142
12.462
13.615
14.586
15.361
15.931
16.283
16.41
16.304
15.96
15.383
14.575
13.539
12.275
10.772
9.021
7.023
4.776
2.29
-0.42
-3.34
-6.447
-9.687
-13.011
-16.37
-19.716
-23.033
-26.303
-29.476
-32.488
-35.31
-37.908
-40.259
-42.352
-44.13
-45.545
-46.641
-47.517
-48.126
-48.375
-48.422
-48.342
-48.201
-48.43
-48.243
-46.869
-45.668
-45.223
-47.929
-56.467
-67.621
-78.985
-87.189
-87.835
-84.153
-78.676
-73.125
-71.085
-70.773
-70.766
-71.421
-71.86
-73.575
-78.269
-86.122
-95.701
-103.216
-105.951
-102.336
-93.01
-81.252
-64.131
-35.069
11.215
80.904
170.545
268.519
365.658
452.025
521.871
575.856
613.169
632.942
634.981
617.691
580.237
523.703
450.78
365.253
271.681
174.81
78.186
-14.763
-99.93
-173.901
-234.094
-278.947
-308.74
-324.881
-328.638
-321.871
-307.115
-286.928
-264.31
-241.868
-221.046
-202.484
-186.496
-173.037
-162.013
-153.252
-145.831
-138.685
-131.029
-122.548
-113.418
-103.923
-94.095
-83.835
-73.472
-63.632
-55.102
-48.397
-43.55
-40.451
-39.038
-39.354
-41.328
-44.628
-48.68
-52.959
-57.156
-61.059
-64.548
-67.467
-69.613
-70.895
-71.321
-70.937
-69.796
-67.93
-65.342
-62.067
-58.195
-53.822
-49.071
-44.064
-38.899
-33.689
-28.525
-23.476
-18.608
-13.958
-9.539
-5.361
-1.423
2.288
5.778
9.067
12.189
15.17
18.038
20.824
23.556
26.267
28.976
31.676
34.344
36.949
39.467
41.887
44.204
46.405
48.48
50.416
52.204
53.861
55.401
56.827
58.129
59.296
60.334
61.29
62.239
63.246
64.352
65.57
66.903
68.369
69.968
71.68
73.456
75.203
76.841
78.322
79.619
80.709
81.545
82.03
82.04
81.471
80.234
78.256
75.466
71.757
67.068
61.389
54.751
47.257
38.989
30.003
20.35
10.078
-0.744
-12.008
-23.579
-35.325
-47.077
-58.639
-69.791
-80.253
-89.782
-98.184
-105.28
-110.95
-115.082
-117.553
-118.251
-117.071
-113.896
-108.613
-101.155
-91.494
-79.681
-65.849
-50.171
-32.895
-14.285
5.396
25.843
46.77
67.912
89.008
109.791
129.982
149.253
167.233
183.619
198.164
210.699
221.138
229.425
235.563
239.611
241.674
241.912
240.495
237.571
233.28
227.797
221.322
214.117
206.498
198.717
190.974
183.435
176.212
169.409
163.106
157.326
152.046
147.222
142.804
138.759
135.069
131.682
128.525
125.493
122.451
119.31
116.017
112.526
108.817
104.875
100.692
96.293
91.732
87.057
82.312
77.533
72.744
67.985
63.308
58.766
54.42
50.31
46.461
42.893
39.621
36.65
33.979
31.598
29.481
27.61
25.969
24.543
23.32
22.282
21.408
20.677
20.069
19.564
19.144
18.789
18.483
18.209
17.951
17.697
17.435
17.153
16.837
16.473
16.048
15.55
14.967
14.288
13.503
12.603
11.582
10.435
9.159
7.752
6.213
4.545
2.749
0.83
-1.208
-3.358
-5.611
-7.96
-10.397
-12.915
-15.503
-18.152
-20.852
-23.592
-26.361
-29.148
-31.939
-34.718
-37.471
-40.186
-42.849
-45.449
-47.973
-50.409
-52.745
-54.971
-57.082
-59.068
-60.915
-62.613
-64.148
-65.518
-66.734
-67.802
-68.727
-69.52
-70.189
-70.751
-71.231
-71.64
-71.973
-72.23
-72.403
-72.5
-72.545
-72.558
-72.563
-72.568
-72.565
-72.556
-72.561
-72.584
-72.622
-72.668
-72.69
-72.697
-72.742
-72.868
-73.122
-73.537
-74.116
-74.869
-75.813
-76.966
-78.351
-79.976
-81.81
-83.834
-86.048
-88.456
-91.089
-93.93
-96.899
-99.927
-102.946
-105.886
-108.714
-111.386
-113.839
-116.031
-117.936
-119.551
-120.943
-122.191
-123.347
-124.454
-125.508
-126.527
-127.614
-128.875
-130.41
-132.315
-134.637
-137.461
-140.968
-145.252
-150.219
-155.572
-160.782
-165.307
-168.748
-170.68
-170.569
-168.097
-163.396
-157.169
-150.554
-144.544
-139.915
-137.432
-137.766
-141.273
-146.413
-149.519
-148.016
-140.244
-126.416
-109.421
-86.496
-51.167
1.302
76.42
170.954
273.222
373.802
462.504
532.677
584.63
617.925
632.092
627.584
603.504
559.592
497.854
421.973
336.038
244.371
151.257
59.606
-27.903
-107.799
-177.716
-236.298
-282.346
-316.026
-338.398
-349.876
-351.318
-344.548
-330.96
-312.17
-290.252
-266.356
-241.214
-216.191
-192.538
-171.047
-152.707
-137.843
-126.022
-117.132
-111.034
-106.948
-103.877
-100.932
-97.119
-92.003
-85.792
-78.64
-70.796
-62.847
-55.476
-49.228
-44.624
-41.877
-40.793
-41.117
-42.496
-44.445
-46.553
-48.626
-50.451
-51.778
-52.605
-53.086
-53.228
-53.085
-52.654
-51.23
-49.404
-49.222
-50.165
-51.013
-48.199
-34.05
-9.701
17.214
37.707
37.279
15.911
-12.449
-35.672
-37.993
-17.437
11.353
38.092
53.005
53.494
49.547
47.33
48.288
53.138
56.406
53.837
49.052
44.158
42.673
49.071
59.164
69.573
78.13
81.118
81.073
80.64
80.435
82.107
84.768
87.216
89.635
91.843
93.915
96.082
98.169
100.031
101.687
103.128
104.332
105.296
106.021
106.504
106.761
106.809
106.633
106.214
105.555
104.65
103.499
102.103
100.46
98.571
96.443
94.083
91.499
88.7
85.696
82.495
79.111
75.555
71.839
67.979
63.989
59.883
55.678
51.39
47.035
42.63
38.192
33.738
29.284
24.846
20.441
16.083
11.789
7.572
3.447
-0.575
-4.482
-8.262
-11.906
-15.405
-18.753
-21.942
-24.967
-27.824
-30.511
-33.026
-35.371
-37.544
-39.546
-41.373
-43.034
-44.534
-45.867
-47.031
-48.025
-48.845
-49.504
-50.026
-50.403
-50.63
-50.745
-50.78
-50.762
-50.728
-50.663
-50.525
-50.349
-50.194
-49.939
-49.439
-48.793
-47.999
-47.036
-46.236
-44.725
-41.654
-38.251
-34.892
-33.829
-37.755
-43.699
-49.683
-52.756
-48.866
-41.605
-34.018
-28.194
-27.581
-29.718
-32.111
-34.207
-34.486
-33.834
-33.387
-32.93
-32.608
-32.346
-31.913
-31.461
-31.109
-30.818
-30.577
-30.401
-30.285
-30.22
-30.2
-30.202
-30.198
-30.198
-30.209
-30.226
-30.248
-30.273
-30.297
-30.32
-30.345
-30.367
-30.384
-30.395
-30.396
-30.388
-30.37
-30.341
-30.301
-30.249
-30.187
-30.113
-30.029
-29.936
-29.835
-29.728
-29.616
-29.501
-29.385
-29.27
-29.159
-29.053
-28.955
-28.868
-28.793
-28.733
-28.689
-28.665
-28.661
-28.681
-28.724
-28.793
-28.888
-29.012
-29.164
-29.345
-29.553
-29.79
-30.052
-30.34
-30.649
-30.978
-31.322
-31.679
-32.045
-32.414
-32.782
-33.143
-33.492
-33.823
-34.129
-34.404
-34.642
-34.835
-34.977
-35.061
-35.083
-35.035
-34.912
-34.709
-34.42
-34.041
-33.568
-33
-32.335
-31.573
-30.715
-29.754
-28.695
-27.546
-26.3
-24.957
-23.524
-21.993
-20.381
-18.725
-17.029
-15.299
-13.589
-11.929
-10.332
-8.856
-7.5
-6.197
-4.968
-3.86
-2.72
-1.427
-0.137
1.173
2.575
3.588
4.998
7.804
10.683
13.192
13.244
7.077
-2.996
-13.634
-21.304
-19.412
-9.076
3.516
14.189
16.345
8.587
-2.804
-14.163
-21.739
-22.979
-21.502
-19.514
-17.682
-17.411
-17.544
-17.113
-16.487
-15.532
-14.409
-13.432
-12.526
-11.662
-10.966
-10.545
-10.489
-10.912
-11.993
-13.958
-16.924
-20.885
-25.618
-30.621
-35.409
-39.589
-42.632
-43.967
-43.306
-40.691
-36.743
-32.702
-29.748
-28.707
-30.284
-35.05
-43.003
-53.336
-64.098
-72.218
-74.372
-67.661
-49.567
-17.602
29.874
93.103
170.727
259.417
354.663
451.911
546.319
632.052
703.568
756.262
786.513
792.989
775.899
735.571
673.501
593.138
498.692
395.077
287.729
180.663
77.315
-17.975
-101.557
-171.057
-224.901
-263.07
-286.707
-296.312
-292.512
-277.602
-254.375
-225.71
-194.551
-162.804
-131.695
-103.17
-79.416
-61.305
-48.789
-41.201
-37.316
-36.325
-37.718
-40.226
-42.017
-41.987
-39.726
-35.364
-29.577
-22.869
-15.53
-8.265
-2.142
2.138
4.27
4.294
2.639
-0.304
-4.249
-8.776
-13.341
-17.517
-21.009
-23.644
-25.424
-26.374
-26.482
-25.781
-24.327
-22.168
-19.365
-15.997
-12.12
-7.805
-3.15
1.762
6.83
11.933
16.981
21.898
26.624
31.136
35.418
39.45
43.227
46.757
50.052
53.14
56.044
58.781
61.375
63.851
66.245
68.598
70.94
73.29
75.658
78.048
80.461
82.899
85.355
87.815
90.267
92.698
95.096
97.455
99.765
102.011
104.179
106.25
108.211
110.049
111.751
113.304
114.695
115.913
116.947
117.789
118.431
118.861
119.07
119.047
118.782
118.269
117.501
116.47
115.173
113.607
111.771
109.666
107.296
104.665
101.777
98.64
95.263
91.655
87.827
83.793
79.566
75.161
70.594
65.883
61.045
56.098
51.062
45.956
40.8
35.613
30.416
25.229
20.072
14.964
9.926
4.977
0.133
-4.586
-9.165
-13.588
-17.841
-21.913
-25.791
-29.466
-32.931
-36.178
-39.202
-41.999
-44.568
-46.908
-49.018
-50.901
-52.559
-53.998
-55.222
-56.239
-57.055
-57.68
-58.122
-58.391
-58.498
-58.454
-58.269
-57.957
-57.529
-56.998
-56.376
-55.677
-54.911
-54.093
-53.232
-52.342
-51.432
-50.513
-49.594
-48.683
-47.79
-46.92
-46.081
-45.279
-44.517
-43.8
-43.133
-42.516
-41.952
-41.442
-40.987
-40.586
-40.238
-39.942
-39.696
-39.498
-39.346
-39.237
-39.168
-39.135
-39.134
-39.163
-39.217
-39.291
-39.383
-39.488
-39.602
-39.721
-39.843
-39.965
-40.083
-40.196
-40.301
-40.398
-40.483
-40.558
-40.62
-40.67
-40.708
-40.733
-40.746
-40.749
-40.743
-40.728
-40.707
-40.681
-40.652
-40.622
-40.593
-40.566
-40.544
-40.528
-40.52
-40.522
-40.537
-40.566
-40.612
-40.675
-40.759
-40.867
-40.997
-41.149
-41.324
-41.52
-41.739
-41.985
-42.251
-42.533
-42.839
-43.175
-43.547
-43.962
-44.408
-44.866
-45.346
-45.861
-46.371
-46.849
-47.269
-47.596
-47.853
-48.09
-48.274
-48.347
-48.446
-48.733
-49.103
-49.561
-50.134
-50.458
-51.495
-54.18
-57.165
-60.037
-60.324
-55.067
-47.532
-39.892
-35.388
-38.473
-45.201
-52.228
-57.261
-56.514
-52.691
-48.533
-44.651
-42.716
-41.762
-40.539
-39.285
-37.844
-36.301
-34.914
-33.523
-31.999
-30.387
-28.715
-26.985
-25.217
-23.443
-21.671
-19.924
-18.257
-16.685
-15.177
-13.723
-12.316
-10.938
-9.631
-8.454
-7.387
-6.394
-5.614
-5.209
-5.093
-5.278
-5.788
-6.291
-7.672
-10.796
-14.447
-18.262
-19.985
-16.909
-12.028
-7.326
-5.765
-11.405
-20.589
-30.211
-38.129
-40.834
-40.782
-40.452
-40.358
-41.972
-44.327
-46.206
-47.772
-48.839
-49.462
-49.872
-49.934
-49.567
-48.882
-47.978
-46.933
-45.839
-44.783
-43.851
-43.164
-42.925
-43.391
-44.74
-47.04
-50.213
-53.979
-57.997
-61.922
-65.23
-67.223
-67.427
-65.674
-62.156
-57.782
-53.81
-51.413
-51.992
-55.791
-61.058
-66.001
-68.75
-71.165
-79.194
-95.287
-117.355
-131.642
-115.519
-54.887
54.412
198.029
346.424
478.006
578.892
648.083
697.552
733.553
758.19
769.317
759.062
723.701
663.257
580.916
483.214
376.097
265.161
155.041
49.367
-47.35
-131.244
-200.015
-252.089
-287.707
-308.816
-317.112
-314.623
-304.388
-288.861
-270.147
-250.575
-231.143
-211.785
-192.748
-174.095
-155.684
-138.181
-122.153
-107.383
-94.205
-83.294
-74.875
-69.188
-66.042
-64.205
-62.623
-61.145
-59.589
-57.579
-55.064
-51.892
-47.939
-45.065
-44.873
-46.241
-48.803
-49.863
-46.216
-41.068
-36.357
-34.845
-40.586
-49.337
-57.608
-63.171
-62.311
-57.757
-52.298
-46.608
-42.443
-38.929
-34.907
-30.663
-26.071
-21.25
-16.509
-11.77
-7.005
-2.347
2.151
6.483
10.637
14.59
18.326
21.82
25.067
28.113
30.998
33.737
36.339
38.817
41.19
43.497
45.783
48.075
50.386
52.727
55.104
57.524
59.991
62.502
65.042
67.595
70.152
72.703
75.244
77.766
80.255
82.696
85.074
87.376
89.59
91.702
93.697
95.564
97.288
98.859
100.268
101.504
102.557
103.414
104.064
104.498
104.705
104.678
104.407
103.887
103.112
102.079
100.786
99.234
97.422
95.354
93.033
90.464
87.655
84.613
81.346
77.865
74.182
70.308
66.256
62.04
57.674
53.173
48.553
43.829
39.018
34.137
29.203
24.233
19.244
14.253
9.278
4.335
-0.562
-5.395
-10.15
-14.814
-19.373
-23.815
-28.129
-32.305
-36.334
-40.209
-43.923
-47.469
-50.844
-54.042
-57.062
-59.899
-62.553
-65.023
-67.307
-69.408
-71.324
-73.059
-74.615
-75.994
-77.2
-78.237
-79.11
-79.824
-80.384
-80.795
-81.064
-81.201
-81.212
-81.106
-80.888
-80.561
-80.138
-79.631
-79.035
-78.348
-77.571
-76.698
-75.745
-74.737
-73.664
-72.516
-71.336
-70.159
-69.012
-67.936
-66.909
-65.879
-64.883
-63.987
-63.043
-61.877
-60.604
-59.218
-57.691
-56.416
-54.353
-50.49
-46.283
-42.18
-40.854
-45.505
-52.6
-59.786
-63.556
-59.092
-50.663
-41.889
-35.251
-34.847
-37.753
-41.005
-43.947
-44.772
-44.532
-44.579
-44.657
-44.937
-45.329
-45.56
-45.805
-46.205
-46.712
-47.31
-48.012
-48.81
-49.687
-50.634
-51.619
-52.603
-53.593
-54.595
-55.597
-56.593
-57.576
-58.535
-59.467
-60.368
-61.229
-62.04
-62.794
-63.483
-64.098
-64.633
-65.082
-65.437
-65.692
-65.842
-65.881
-65.806
-65.613
-65.299
-64.862
-64.302
-63.618
-62.813
-61.887
-60.844
-59.688
-58.423
-57.055
-55.589
-54.033
-52.393
-50.676
-48.892
-47.047
-45.151
-43.214
-41.247
-39.262
-37.272
-35.293
-33.339
-31.425
-29.569
-27.785
-26.089
-24.495
-23.015
-21.659
-20.441
-19.373
-18.466
-17.732
-17.179
-16.814
-16.643
-16.671
-16.899
-17.326
-17.946
-18.752
-19.745
-20.929
-22.317
-23.915
-25.724
-27.737
-29.948
-32.349
-34.925
-37.65
-40.48
-43.369
-46.275
-49.162
-52.002
-54.758
-57.373
-59.779
-61.901
-63.672
-65.055
-66.03
-66.571
-66.671
-66.341
-65.613
-64.584
-63.376
-62.099
-60.88
-59.84
-59.075
-58.777
-59.204
-60.523
-62.815
-65.973
-69.665
-73.608
-77.594
-81.292
-84.29
-86.246
-86.95
-86.782
-86.69
-87.524
-89.952
-94.403
-101.023
-109.868
-120.702
-132.158
-141.861
-147.238
-145.591
-134.849
-113.588
-80.229
-33.639
25.829
96.55
175.844
259.888
345.155
428.226
504.594
569.656
619.57
651.02
662.003
652.172
621.346
569.981
500.265
415.271
318.76
215.446
109.829
5.588
-93.451
-183.638
-262.135
-326.64
-375.797
-409.651
-428.939
-434.298
-426.669
-407.75
-379.783
-345.466
-307.527
-268.053
-228.628
-191.225
-158.081
-130.521
-108.988
-93.204
-82.251
-75.314
-71.752
-70.279
-69.021
-66.748
-62.879
-57.311
-50.518
-42.927
-34.807
-26.863
-20.191
-15.474
-12.958
-12.587
-13.913
-16.51
-20.088
-24.166
-28.09
-31.381
-33.74
-35.028
-35.315
-34.666
-33.082
-30.626
-27.399
-23.501
-19.056
-14.162
-8.878
-3.285
2.515
8.414
14.271
19.969
25.443
30.645
35.555
40.17
44.481
48.496
52.241
55.753
59.072
62.233
65.26
68.184
71.045
73.887
76.763
79.713
82.757
85.911
89.181
92.567
96.07
99.683
103.387
107.164
110.998
114.875
118.783
122.708
126.629
130.525
134.374
138.154
141.847
145.433
148.891
152.202
155.347
158.309
161.073
163.623
165.94
168.01
169.813
171.336
172.565
173.485
174.085
174.355
174.285
173.872
173.111
171.999
170.537
168.728
166.573
164.081
161.257
158.113
154.658
150.906
146.872
142.572
138.023
133.243
128.252
123.071
117.72
112.222
106.598
100.872
95.066
89.202
83.303
77.392
71.49
65.619
59.8
54.053
48.397
42.851
37.432
32.156
27.038
22.091
17.329
12.761
8.399
4.249
0.319
-3.385
-6.858
-10.098
-13.102
-15.871
-18.404
-20.702
-22.77
-24.609
-26.226
-27.624
-28.81
-29.79
-30.573
-31.165
-31.574
-31.81
-31.881
-31.797
-31.565
-31.197
-30.701
-30.086
-29.364
-28.542
-27.631
-26.639
-25.576
-24.451
-23.273
-22.05
-20.79
-19.501
-18.191
-16.866
-15.534
-14.2
-12.87
-11.549
-10.243
-8.955
-7.69
-6.451
-5.24
-4.062
-2.917
-1.809
-0.738
0.293
1.284
2.233
3.14
4.003
4.822
5.596
6.325
7.008
7.646
8.239
8.786
9.287
9.744
10.157
10.525
10.85
11.131
11.371
11.568
11.725
11.841
11.917
11.954
11.952
11.912
11.834
11.718
11.565
11.374
11.147
10.883
10.584
10.25
9.883
9.484
9.055
8.599
8.119
7.619
7.101
6.57
6.03
5.487
4.945
4.409
3.886
3.38
2.898
2.446
2.03
1.656
1.329
1.056
0.843
0.695
0.617
0.616
0.697
0.864
1.123
1.478
1.933
2.491
3.154
3.925
4.803
5.788
6.877
8.062
9.338
10.696
12.125
13.615
15.153
16.725
18.318
19.921
21.521
23.102
24.649
26.141
27.56
28.889
30.109
31.199
32.142
32.921
33.521
33.932
34.139
34.125
33.869
33.341
32.516
31.374
29.901
28.09
25.943
23.47
20.694
17.654
14.389
10.942
7.351
3.648
-0.123
-3.909
-7.648
-11.261
-14.668
-17.8
-20.603
-23.041
-25.109
-26.828
-28.235
-29.392
-30.395
-31.351
-32.372
-33.586
-35.107
-37.038
-39.556
-42.876
-47.123
-52.339
-58.415
-65.072
-72.079
-79.267
-86.357
-93.065
-99.306
-105.178
-111.146
-117.917
-125.79
-134.633
-144.138
-153.616
-161.918
-167.549
-168.353
-161.905
-146.883
-123.087
-90.848
-51.295
-5.11
47.661
105.306
164.613
220.516
267.207
302.918
331.621
363.051
408.063
471.515
549.58
629.554
697.279
744.053
767.143
770.206
757.587
728.5
680.041
608.785
511.878
395.153
270.376
148.808
43.794
-39.207
-103.917
-153.482
-193.575
-226.774
-249.472
-260.491
-260.457
-251.697
-239.615
-228.22
-218.992
-212.353
-207.792
-204.672
-202.467
-200.397
-197.356
-192.228
-184.654
-174.833
-163.199
-150.432
-137.152
-123.884
-111.27
-99.945
-90.233
-82.275
-76.115
-71.614
-68.631
-67.035
-66.606
-67.116
-68.369
-70.176
-72.365
-74.782
-77.283
-79.76
-82.145
-84.364
-86.34
-87.961
-89.079
-89.608
-89.511
-88.772
-87.416
-85.464
-82.947
-79.93
-76.503
-72.753
-68.753
-64.546
-60.151
-55.607
-50.966
-46.308
-41.735
-37.315
-33.088
-29.089
-25.334
-21.835
-18.604
-15.623
-12.853
-10.264
-7.833
-5.547
-3.407
-1.4
0.498
2.314
4.085
5.838
7.586
9.344
11.121
12.923
14.751
16.597
18.441
20.269
22.07
23.833
25.554
27.221
28.82
30.34
31.765
33.085
34.286
35.357
36.285
37.058
37.669
38.109
38.373
38.455
38.348
38.046
37.545
36.838
35.924
34.798
33.459
31.907
30.141
28.166
25.986
23.604
21.029
18.268
15.329
12.223
8.96
5.554
2.016
-1.639
-5.397
-9.242
-13.16
-17.135
-21.152
-25.195
-29.249
-33.297
-37.325
-41.318
-45.262
-49.142
-52.946
-56.659
-60.272
-63.771
-67.148
-70.392
-73.495
-76.449
-79.249
-81.887
-84.36
-86.665
-88.797
-90.756
-92.54
-94.149
-95.585
-96.848
-97.942
-98.868
-99.632
-100.237
-100.689
-100.992
-101.153
-101.176
-101.067
-100.834
-100.482
-100.017
-99.446
-98.776
-98.014
-97.165
-96.236
-95.234
-94.164
-93.031
-91.843
-90.602
-89.316
-87.988
-86.622
-85.225
-83.8
-82.351
-80.883
-79.4
-77.905
-76.403
-74.896
-73.387
-71.88
-70.378
-68.884
-67.4
-65.929
-64.476
-63.043
-61.634
-60.251
-58.897
-57.577
-56.292
-55.044
-53.838
-52.675
-51.558
-50.49
-49.475
-48.513
-47.609
-46.765
-45.982
-45.263
-44.609
-44.021
-43.499
-43.044
-42.656
-42.334
-42.077
-41.886
-41.757
-41.69
-41.681
-41.729
-41.828
-41.974
-42.163
-42.388
-42.644
-42.925
-43.222
-43.531
-43.843
-44.151
-44.448
-44.727
-44.979
-45.196
-45.37
-45.493
-45.555
-45.55
-45.469
-45.306
-45.054
-44.707
-44.259
-43.706
-43.043
-42.268
-41.376
-40.367
-39.238
-37.99
-36.624
-35.143
-33.55
-31.85
-30.05
-28.159
-26.188
-24.148
-22.051
-19.912
-17.744
-15.563
-13.384
-11.224
-9.096
-7.013
-4.991
-3.045
-1.193
0.549
2.165
3.639
4.959
6.11
7.08
7.86
8.445
8.833
9.019
8.997
8.749
8.263
7.533
6.556
5.335
3.881
2.209
0.344
-1.669
-3.787
-5.965
-8.161
-10.348
-12.493
-14.557
-16.491
-18.231
-19.716
-20.901
-21.747
-22.226
-22.34
-22.105
-21.571
-20.829
-19.959
-19.051
-18.205
-17.506
-17.062
-16.99
-17.383
-18.386
-20.194
-22.906
-26.528
-30.91
-35.668
-40.396
-44.726
-48.152
-50.114
-50.208
-48.278
-44.704
-40.405
-36.356
-33.388
-32.204
-33.42
-37.369
-43.78
-51.307
-57.55
-59.616
-54.665
-40.242
-13.912
26.364
81.585
151.306
233.21
323.51
417.925
511.916
599.961
676.339
735.827
773.954
788.333
778.281
743.652
685.498
606.899
512.228
406.951
297.24
188.133
84.194
-9.581
-89.189
-152.207
-197.802
-227.134
-242.576
-246.279
-240.927
-230.113
-217.21
-205.158
-195.733
-189.11
-184.781
-182.201
-180.497
-178.488
-174.94
-168.622
-159.033
-146.515
-131.715
-115.443
-98.468
-81.445
-65.092
-50.126
-36.982
-25.863
-16.794
-9.644
-4.311
-0.715
1.287
1.858
1.184
-0.536
-3.119
-6.383
-10.168
-14.341
-18.762
-23.3
-27.829
-32.208
-36.327
-40.105
-43.45
-46.283
-48.551
-50.196
-51.199
-51.552
-51.238
-50.266
-48.651
-46.401
-43.541
-40.08
-36.028
-31.417
-26.269
-20.606
-14.473
-7.904
-0.932
6.381
13.975
21.779
29.7
37.688
45.718
53.771
61.837
69.88
77.861
85.761
93.564
101.254
108.825
116.26
123.553
130.737
137.844
144.91
151.969
159.001
165.953
172.757
179.346
185.674
191.701
197.378
202.645
207.454
211.753
215.496
218.621
221.033
222.65
223.407
223.267
222.246
220.392
217.779
214.477
210.547
206.044
201.025
195.542
189.641
183.383
176.829
170.055
163.169
156.25
149.353
142.538
135.835
129.2
122.578
115.926
109.194
102.398
95.592
88.754
81.845
75.016
68.443
62.037
55.799
49.75
43.546
38.112
34.362
31.046
27.816
22.361
11.904
-0.424
-12.538
-21.348
-22.616
-20.093
-16.967
-15.423
-19.06
-25.312
-31.574
-37.276
-40.837
-43.194
-45.547
-47.688
-49.785
-51.775
-53.433
-54.93
-56.404
-57.822
-59.181
-60.505
-61.797
-63.054
-64.281
-65.462
-66.579
-67.649
-68.691
-69.705
-70.697
-71.671
-72.628
-73.572
-74.509
-75.436
-76.353
-77.262
-78.161
-79.054
-79.938
-80.812
-81.671
-82.515
-83.341
-84.145
-84.926
-85.678
-86.399
-87.09
-87.749
-88.379
-88.98
-89.548
-90.08
-90.572
-91.026
-91.447
-91.842
-92.212
-92.561
-92.891
-93.205
-93.512
-93.813
-94.105
-94.382
-94.635
-94.863
-95.073
-95.27
-95.472
-95.672
-95.848
-95.976
-96.024
-95.987
-95.894
-95.752
-95.557
-95.305
-94.963
-94.556
-94.204
-93.868
-93.38
-92.594
-91.3
-89.512
-87.567
-85.587
-83.463
-81.381
-79.678
-78.751
-79.244
-81.159
-83.73
-86.546
-89.506
-92.243
-94.41
-95.46
-94.419
-91.221
-86.789
-81.678
-76.224
-70.818
-65.598
-60.979
-57.812
-56.2
-55.504
-55.311
-55.274
-55.166
-55.079
-54.887
-54.196
-52.961
-51.432
-49.796
-48.261
-46.915
-45.65
-44.456
-43.414
-42.541
-41.829
-41.264
-40.802
-40.441
-40.229
-40.197
-40.367
-40.744
-41.31
-42.056
-42.983
-44.098
-45.415
-46.945
-48.688
-50.637
-52.787
-55.128
-57.647
-60.316
-63.085
-65.904
-68.721
-71.497
-74.202
-76.799
-79.24
-81.457
-83.377
-84.937
-86.098
-86.837
-87.126
-86.954
-86.322
-85.262
-83.862
-82.24
-80.517
-78.816
-77.264
-75.974
-75.115
-74.935
-75.592
-77.152
-79.537
-82.448
-85.61
-88.83
-91.793
-94.061
-95.328
-95.414
-94.544
-93.58
-93.287
-94.211
-96.921
-101.746
-108.719
-117.634
-127.404
-135.802
-140.47
-139.03
-129.082
-108.836
-76.737
-31.503
26.851
96.872
176.332
262.12
350.631
438.331
520.979
593.919
653.235
695.61
718.448
720.234
699.722
657.363
596.34
520.418
434.109
339.25
233.341
117.427
-4.558
-123.168
-219.576
-281.217
-303.195
-287.263
-251.446
-214.218
-187.294
-180.244
-188.268
-199.89
-208.748
-208.455
-199.615
-188.937
-178.859
-170.479
-163.143
-153.684
-141.299
-126.695
-110.54
-93.96
-77.702
-62.146
-47.88
-35.381
-24.838
-16.272
-9.588
-4.687
-1.474
0.185
0.488
-0.31
-1.973
-4.304
-7.118
-10.262
-13.609
-17.035
-20.429
-23.678
-26.641
-29.188
-31.197
-32.579
-33.291
-33.313
-32.65
-31.34
-29.445
-27.039
-24.204
-20.999
-17.46
-13.622
-9.512
-5.176
-0.68
3.904
8.494
13.028
17.463
21.768
25.93
29.945
33.825
37.591
41.271
44.886
48.445
51.951
55.404
58.81
62.184
65.544
68.916
72.317
75.756
79.237
82.759
86.313
89.888
93.463
97.012
100.511
103.941
107.283
110.523
113.643
116.623
119.446
122.089
124.534
126.765
128.765
130.52
132.016
133.243
134.194
134.865
135.253
135.353
135.164
134.683
133.912
132.853
131.508
129.882
127.98
125.81
123.381
120.704
117.792
114.656
111.312
107.774
104.059
100.184
96.166
92.025
87.78
83.449
79.052
74.608
70.138
65.658
61.188
56.745
52.346
48.007
43.743
39.567
35.491
31.528
27.687
23.977
20.406
16.98
13.704
10.584
7.622
4.821
2.183
-0.293
-2.607
-4.759
-6.752
-8.588
-10.272
-11.807
-13.198
-14.45
-15.57
-16.564
-17.439
-18.202
-18.86
-19.421
-19.892
-20.281
-20.594
-20.84
-21.024
-21.153
-21.234
-21.273
-21.274
-21.243
-21.184
-21.103
-21.004
-20.89
-20.766
-20.635
-20.501
-20.367
-20.236
-20.113
-20
-19.901
-19.818
-19.754
-19.713
-19.696
-19.705
-19.744
-19.814
-19.917
-20.054
-20.226
-20.436
-20.684
-20.971
-21.298
-21.667
-22.077
-22.529
-23.023
-23.56
-24.139
-24.76
-25.421
-26.123
-26.863
-27.64
-28.45
-29.292
-30.162
-31.056
-31.97
-32.9
-33.842
-34.789
-35.736
-36.677
-37.607
-38.519
-39.406
-40.261
-41.077
-41.848
-42.565
-43.223
-43.814
-44.332
-44.769
-45.121
-45.38
-45.542
-45.601
-45.552
-45.393
-45.118
-44.728
-44.219
-43.593
-42.849
-41.988
-41.015
-39.932
-38.744
-37.456
-36.074
-34.606
-33.058
-31.44
-29.762
-28.035
-26.271
-24.486
-22.696
-20.916
-19.162
-17.453
-15.805
-14.235
-12.758
-11.386
-10.133
-9.012
-8.038
-7.224
-6.582
-6.122
-5.852
-5.781
-5.913
-6.253
-6.798
-7.542
-8.479
-9.608
-10.933
-12.465
-14.206
-16.154
-18.301
-20.639
-23.155
-25.831
-28.635
-31.52
-34.438
-37.347
-40.212
-43.005
-45.686
-48.203
-50.496
-52.499
-54.163
-55.454
-56.349
-56.834
-56.917
-56.62
-55.989
-55.119
-54.114
-53.085
-52.16
-51.446
-51.024
-51.04
-51.69
-53.105
-55.352
-58.307
-61.615
-64.997
-68.257
-71.087
-73.1
-73.932
-73.319
-71.615
-69.821
-68.672
-68.558
-69.954
-73.307
-78.917
-87.036
-95.67
-100.558
-99.725
-92.378
-79.57
-65.307
-47.015
-17.856
27.38
94.937
181.983
277.038
370.679
452.548
516.558
563.598
593.212
604.873
598.091
570.569
521.428
452.18
366.135
267.62
161.549
52.81
-54.625
-156.694
-248.957
-327.909
-391.119
-436.895
-465.204
-476.879
-472.425
-453.351
-422.36
-382.422
-336.887
-289.109
-241.483
-196.11
-155.585
-121.861
-95.734
-77.222
-65.471
-59.207
-57.402
-58.907
-61.896
-64.508
-65.627
-64.775
-62.078
-58.041
-53.082
-47.642
-42.597
-38.977
-37.336
-37.814
-40.2
-43.993
-48.756
-54.095
-59.445
-64.194
-67.945
-70.485
-71.766
-71.889
-70.916
-68.894
-65.928
-62.157
-57.71
-52.707
-47.254
-41.441
-35.39
-29.249
-23.148
-17.188
-11.439
-5.936
-0.702
4.251
8.925
13.339
17.52
21.497
25.3
28.953
32.486
35.938
39.352
42.778
46.254
49.803
53.439
57.165
60.978
64.872
68.832
72.837
76.866
80.902
84.927
88.93
92.894
96.8
100.627
104.353
107.958
111.426
114.737
117.874
120.823
123.566
126.093
128.391
130.449
132.252
133.79
135.048
136.015
136.681
137.039
137.079
136.797
136.189
135.253
133.99
132.402
130.492
128.266
125.729
122.891
119.76
116.348
112.668
108.731
104.555
100.153
95.544
90.746
85.776
80.653
75.398
70.031
64.571
59.041
53.46
47.85
42.231
36.623
31.046
25.52
20.063
14.693
9.426
4.278
-0.736
-5.603
-10.311
-14.847
-19.204
-23.371
-27.341
-31.108
-34.666
-38.013
-41.144
-44.057
-46.752
-49.229
-51.488
-53.531
-55.361
-56.982
-58.396
-59.609
-60.626
-61.454
-62.099
-62.567
-62.867
-63.006
-62.993
-62.835
-62.542
-62.121
-61.582
-60.934
-60.184
-59.343
-58.419
-57.421
-56.359
-55.24
-54.073
-52.866
-51.629
-50.367
-49.09
-47.805
-46.519
-45.238
-43.97
-42.722
-41.499
-40.308
-39.154
-38.044
-36.98
-35.969
-35.014
-34.118
-33.285
-32.517
-31.817
-31.187
-30.628
-30.14
-29.724
-29.38
-29.107
-28.903
-28.765
-28.692
-28.678
-28.721
-28.816
-28.958
-29.142
-29.362
-29.612
-29.886
-30.177
-30.477
-30.779
-31.076
-31.359
-31.62
-31.85
-32.041
-32.184
-32.272
-32.297
-32.251
-32.126
-31.917
-31.616
-31.217
-30.716
-30.108
-29.388
-28.553
-27.602
-26.534
-25.349
-24.048
-22.633
-21.108
-19.478
-17.748
-15.925
-14.014
-12.026
-9.968
-7.852
-5.689
-3.489
-1.267
0.963
3.184
5.377
7.524
9.608
11.609
13.507
15.286
16.926
18.417
19.743
20.893
21.853
22.609
23.148
23.46
23.536
23.372
22.961
22.302
21.396
20.253
18.882
17.29
15.478
13.436
11.161
8.655
5.923
2.979
-0.158
-3.468
-6.916
-10.45
-14.02
-17.573
-21.067
-24.471
-27.748
-30.848
-33.712
-36.259
-38.427
-40.169
-41.451
-42.261
-42.605
-42.503
-42.007
-41.207
-40.191
-39.052
-37.88
-36.757
-35.807
-35.169
-35.019
-35.59
-37.027
-39.379
-42.568
-46.241
-49.932
-53.208
-55.548
-56.401
-55.439
-52.462
-47.831
-42.889
-39.113
-37.794
-39.002
-41.354
-44.004
-47.089
-53.424
-66.505
-85.034
-102.432
-105.837
-81.372
-23.744
62.552
164.527
267.108
361.244
444.717
519.149
584.815
638.768
676.041
691.563
683.602
652.867
600.663
529.645
443.073
344.54
238.871
131.083
25.168
-75.087
-165.93
-244.31
-307.84
-355.106
-386.244
-402.323
-404.304
-393.426
-371.778
-341.979
-306.93
-269.378
-231.341
-194.272
-159.979
-130.492
-106.803
-88.97
-76.448
-68.239
-63.485
-61.505
-60.984
-60.017
-57.474
-52.983
-46.604
-38.915
-30.402
-21.376
-12.597
-5.224
0.029
2.899
3.444
2.125
-0.647
-4.612
-9.314
-14.15
-18.631
-22.387
-25.226
-27.165
-28.228
-28.405
-27.721
-26.218
-23.955
-21.019
-17.489
-13.426
-8.895
-3.961
1.292
6.751
12.285
17.76
23.079
28.189
33.053
37.653
41.967
45.983
49.715
53.199
56.463
59.536
62.437
65.175
67.779
70.284
72.731
75.165
77.614
80.09
82.604
85.161
87.762
90.405
93.075
95.751
98.416
101.056
103.661
106.223
108.728
111.16
113.503
115.741
117.86
119.846
121.685
123.362
124.866
126.186
127.313
128.239
128.958
129.459
129.736
129.78
129.584
129.144
128.453
127.507
126.304
124.843
123.124
121.151
118.926
116.454
113.743
110.799
107.631
104.249
100.664
96.888
92.934
88.815
84.547
80.144
75.623
71
66.293
61.518
56.694
51.838
46.968
42.101
37.253
32.443
27.685
22.996
18.389
13.88
9.482
5.208
1.07
-2.923
-6.76
-10.433
-13.935
-17.259
-20.4
-23.355
-26.12
-28.693
-31.074
-33.262
-35.26
-37.068
-38.69
-40.129
-41.392
-42.482
-43.407
-44.173
-44.788
-45.26
-45.598
-45.809
-45.904
-45.891
-45.779
-45.578
-45.297
-44.945
-44.532
-44.066
-43.558
-43.014
-42.444
-41.856
-41.258
-40.656
-40.059
-39.473
-38.902
-38.354
-37.834
-37.345
-36.892
-36.479
-36.109
-35.785
-35.507
-35.279
-35.1
-34.972
-34.893
-34.864
-34.883
-34.95
-35.063
-35.22
-35.419
-35.658
-35.934
-36.245
-36.587
-36.956
-37.349
-37.763
-38.193
-38.635
-39.086
-39.54
-39.995
-40.446
-40.888
-41.319
-41.733
-42.126
-42.494
-42.833
-43.139
-43.408
-43.636
-43.82
-43.957
-44.042
-44.075
-44.051
-43.969
-43.825
-43.618
-43.346
-43.007
-42.599
-42.124
-41.579
-40.967
-40.288
-39.543
-38.734
-37.863
-36.932
-35.945
-34.906
-33.818
-32.688
-31.52
-30.321
-29.1
-27.864
-26.621
-25.382
-24.155
-22.954
-21.79
-20.681
-19.641
-18.686
-17.83
-17.085
-16.464
-15.978
-15.637
-15.45
-15.424
-15.566
-15.883
-16.388
-17.087
-17.984
-19.074
-20.341
-21.771
-23.35
-25.073
-26.941
-28.951
-31.099
-33.383
-35.805
-38.366
-41.062
-43.866
-46.727
-49.599
-52.448
-55.263
-58.068
-60.871
-63.64
-66.325
-68.843
-71.114
-73.113
-74.787
-76.022
-76.807
-77.21
-77.391
-77.715
-78.488
-79.74
-81.477
-83.688
-86.058
-88.252
-89.916
-90.328
-88.962
-85.867
-81.07
-74.723
-67.625
-60.464
-53.83
-48.755
-45.871
-45.154
-47.011
-51.874
-59.222
-68.557
-79.459
-91.085
-102.937
-114.917
-124.84
-128.746
-125.186
-113.607
-95.113
-73.925
-47.893
-10.308
43.725
120.184
216.775
322.117
426.781
520.551
596.643
655.261
695.421
716.045
716.532
694.514
649.092
581.864
496.212
396.972
289.831
180.21
72.596
-28.499
-118.849
-195.146
-255.013
-297.818
-324.887
-338.055
-339.135
-330.414
-313.947
-292.14
-267.969
-243.095
-217.949
-193.056
-168.849
-146.034
-126.139
-109.705
-96.139
-85.516
-78.173
-74.082
-73.261
-74.829
-76.812
-78.175
-78.781
-78.363
-76.916
-74.485
-70.888
-66.656
-62.98
-60.469
-59.275
-59.351
-60.253
-61.698
-63.631
-65.729
-67.505
-68.63
-68.859
-68.128
-66.586
-64.318
-61.364
-57.801
-53.699
-49.166
-44.342
-39.357
-34.331
-29.354
-24.474
-19.744
-15.206
-10.896
-6.858
-3.099
0.404
3.662
6.686
9.481
12.04
14.386
16.562
18.615
20.6
22.554
24.497
26.451
28.438
30.47
32.558
34.698
36.875
39.086
41.335
43.625
45.964
48.343
50.748
53.172
55.602
58.012
60.366
62.628
64.763
66.777
68.692
70.511
72.248
73.958
75.702
77.539
79.509
81.545
83.514
85.347
86.915
87.887
88.032
87.333
85.82
83.832
81.106
76.118
67.951
57.61
49.288
50.061
64.97
91.806
119.806
133.792
122.139
85.343
37.498
-2.027
-18.207
-8.178
17.394
42.955
57.042
56.07
44.638
30.533
18.634
10.451
5.047
0.282
-4.607
-9.396
-13.934
-17.975
-21.577
-25.029
-28.43
-31.797
-35.18
-38.58
-41.949
-45.235
-48.38
-51.334
-54.094
-56.672
-59.07
-61.283
-63.314
-65.168
-66.852
-68.374
-69.738
-70.942
-71.99
-72.886
-73.635
-74.244
-74.718
-75.064
-75.288
-75.396
-75.395
-75.293
-75.095
-74.809
-74.441
-73.998
-73.486
-72.911
-72.28
-71.599
-70.875
-70.113
-69.318
-68.497
-67.654
-66.795
-65.923
-65.044
-64.161
-63.279
-62.402
-61.534
-60.679
-59.842
-59.026
-58.236
-57.475
-56.747
-56.056
-55.405
-54.797
-54.236
-53.724
-53.264
-52.858
-52.508
-52.216
-51.984
-51.812
-51.702
-51.652
-51.664
-51.735
-51.867
-52.056
-52.302
-52.603
-52.956
-53.358
-53.808
-54.3
-54.83
-55.393
-55.984
-56.598
-57.227
-57.866
-58.506
-59.141
-59.763
-60.363
-60.935
-61.468
-61.956
-62.39
-62.76
-63.061
-63.284
-63.422
-63.469
-63.42
-63.268
-63.011
-62.645
-62.167
-61.574
-60.867
-60.045
-59.108
-58.059
-56.901
-55.639
-54.282
-52.839
-51.319
-49.735
-48.098
-46.424
-44.726
-43.018
-41.312
-39.621
-37.96
-36.343
-34.79
-33.318
-31.941
-30.676
-29.538
-28.541
-27.698
-27.019
-26.508
-26.169
-26.009
-26.037
-26.277
-26.746
-27.453
-28.403
-29.594
-31.015
-32.664
-34.523
-36.542
-38.672
-40.867
-43.082
-45.303
-47.515
-49.66
-51.667
-53.5
-55.125
-56.521
-57.689
-58.582
-59.142
-59.413
-59.498
-59.327
-58.814
-58.167
-57.473
-56.803
-56.651
-56.117
-54.374
-53.039
-52.661
-55.84
-65.542
-78.029
-90.689
-99.877
-100.535
-96.247
-90.144
-84.388
-83.159
-84.52
-86.37
-88.652
-90.254
-92.604
-97.206
-103.804
-111.562
-118.158
-121.102
-118.347
-107.555
-86.565
-53.372
-6.106
54.824
126.335
206.453
293.182
385.081
482.779
580.295
667.05
733.063
767.041
766.496
737.529
685.703
618.428
539.904
449.355
349.096
243.004
135.619
33.663
-57.791
-135.982
-198.929
-245.823
-277.336
-294.934
-300.337
-296.038
-284.495
-267.424
-247.026
-225.579
-204.402
-184.485
-166.451
-150.124
-135.581
-123.383
-113.252
-104.476
-96.494
-88.439
-79.883
-71.028
-61.718
-51.518
-40.553
-29.231
-18.168
-8.391
-0.432
5.698
9.851
11.883
11.844
9.864
6.363
2.066
-2.572
-7.331
-11.997
-16.428
-20.414
-23.695
-26.166
-27.847
-28.751
-28.888
-28.241
-26.764
-24.494
-21.53
-17.984
-13.982
-9.604
-4.914
0.008
5.06
10.119
15.076
19.869
24.467
28.848
32.994
36.885
40.513
43.904
47.095
50.126
53.028
55.824
58.532
61.185
63.82
66.48
69.195
71.981
74.844
77.789
80.816
83.927
87.112
90.352
93.626
96.92
100.218
103.51
106.782
110.014
113.187
116.282
119.283
122.173
124.937
127.56
130.027
132.324
134.44
136.367
138.093
139.609
140.902
141.964
142.785
143.357
143.674
143.73
143.52
143.043
142.299
141.288
140.014
138.481
136.694
134.661
132.389
129.889
127.17
124.245
121.126
117.827
114.364
110.751
107.004
103.139
99.174
95.124
91.006
86.838
82.635
78.415
74.193
69.987
65.81
61.68
57.61
53.613
49.705
45.896
42.199
38.624
35.181
31.879
28.725
25.728
22.891
20.221
17.722
15.397
13.247
11.274
9.479
7.861
6.418
5.149
4.05
3.12
2.355
1.75
1.302
1.005
0.855
0.847
0.974
1.231
1.612
2.111
2.721
3.436
4.249
5.154
6.144
7.211
8.349
9.55
10.808
12.114
13.461
14.843
16.252
17.681
19.124
20.575
22.028
23.477
24.917
26.342
27.749
29.131
30.484
31.804
33.086
34.327
35.521
36.666
37.758
38.794
39.771
40.685
41.534
42.316
43.029
43.67
44.239
44.736
45.161
45.514
45.797
46.012
46.162
46.25
46.279
46.252
46.173
46.047
45.878
45.669
45.427
45.155
44.859
44.546
44.223
43.894
43.563
43.235
42.915
42.611
42.332
42.079
41.853
41.671
41.547
41.492
41.523
41.636
41.818
42.087
42.46
42.906
43.399
43.919
44.432
44.965
45.568
46.211
46.835
47.576
48.594
49.784
51.148
52.71
54.104
56.273
60.138
64.355
68.51
70.151
66.343
60.305
54.179
51.16
55.643
63.713
72.049
78.368
78.911
76.342
73.362
70.57
69.612
69.526
69.076
68.492
67.617
66.536
65.497
64.337
62.931
61.326
59.539
57.573
55.451
53.205
50.872
48.493
46.12
43.764
41.436
39.179
37.025
35.001
33.131
31.41
29.846
28.48
27.356
26.499
25.903
25.488
25.205
25.095
25.114
25.149
24.961
24.114
22.386
19.844
16.529
12.449
7.744
2.608
-2.289
-5.664
-6.713
-5.229
-1.19
5.121
13.339
22.997
32.756
40.456
44.287
43.094
36.359
23.995
7.187
-11.248
-28.097
-39.557
-45.474
-49.946
-54.757
-59.035
-53.868
-23.561
42.407
148.543
285.454
431.403
564.651
663.635
719.203
736.006
723.276
695.217
659.526
614.941
557.966
483.986
393.028
290.226
182.103
74.921
-26.592
-118.444
-197.314
-261.004
-308.396
-340.033
-357.658
-363.015
-358.715
-348.262
-334.846
-321.49
-310.084
-300.724
-293.006
-286.283
-279.026
-269.634
-256.94
-239.829
-218.349
-193.978
-168.15
-142.525
-119.38
-100.393
-86.556
-78.742
-76.869
-79.593
-85.662
-93.881
-102.384
-110.78
-120.38
-130.362
-139.246
-144.948
-142.447
-132.279
-120.297
-111.887
-114.589
-128.949
-147.251
-163.403
-171.221
-169.247
-162.687
-155.138
-148.941
-144.891
-141.309
-136.387
-129.398
-121.678
-114.02
-108.989
-109.294
-111.735
-114.291
-113.826
-105.974
-94.608
-83.022
-73.47
-69.673
-68.963
-68.601
-67.958
-65.395
-61.845
-58.516
-55.15
-51.862
-48.546
-44.949
-41.225
-37.505
-33.752
-29.962
-26.167
-22.391
-18.648
-14.955
-11.306
-7.686
-4.126
-0.656
2.707
5.943
9.032
11.959
14.704
17.246
19.572
21.671
23.532
25.148
26.51
27.61
28.441
28.995
29.267
29.255
28.953
28.361
27.477
26.305
24.847
23.109
21.097
18.819
16.284
13.504
10.489
7.254
3.813
0.182
-3.622
-7.58
-11.675
-15.888
-20.197
-24.585
-29.031
-33.516
-38.02
-42.526
-47.014
-51.467
-55.868
-60.2
-64.448
-68.597
-72.634
-76.544
-80.317
-83.94
-87.404
-90.7
-93.819
-96.754
-99.499
-102.049
-104.4
-106.55
-108.497
-110.239
-111.778
-113.115
-114.253
-115.194
-115.944
-116.507
-116.889
-117.096
-117.134
-117.011
-116.733
-116.309
-115.745
-115.05
-114.232
-113.298
-112.257
-111.117
-109.886
-108.572
-107.183
-105.728
-104.214
-102.651
-101.046
-99.408
-97.746
-96.068
-94.382
-92.696
-91.018
-89.356
-87.716
-86.106
-84.532
-83
-81.515
-80.083
-78.71
-77.4
-76.156
-74.984
-73.887
-72.868
-71.93
-71.075
-70.306
-69.624
-69.031
-68.528
-68.116
-67.793
-67.561
-67.417
-67.361
-67.389
-67.498
-67.684
-67.943
-68.269
-68.656
-69.098
-69.587
-70.117
-70.68
-71.268
-71.871
-72.483
-73.095
-73.696
-74.278
-74.832
-75.349
-75.82
-76.235
-76.584
-76.86
-77.054
-77.157
-77.162
-77.061
-76.847
-76.512
-76.052
-75.461
-74.735
-73.869
-72.861
-71.71
-70.416
-68.979
-67.402
-65.687
-63.84
-61.865
-59.77
-57.562
-55.25
-52.843
-50.351
-47.786
-45.16
-42.486
-39.777
-37.049
-34.319
-31.605
-28.926
-26.299
-23.745
-21.282
-18.929
-16.704
-14.622
-12.698
-10.946
-9.382
-8.02
-6.876
-5.96
-5.283
-4.853
-4.675
-4.755
-5.094
-5.685
-6.521
-7.598
-8.916
-10.483
-12.302
-14.368
-16.675
-19.21
-21.957
-24.899
-28.007
-31.235
-34.538
-37.869
-41.189
-44.471
-47.678
-50.758
-53.649
-56.278
-58.581
-60.522
-62.07
-63.2
-63.901
-64.185
-64.087
-63.677
-63.035
-62.247
-61.403
-60.61
-59.992
-59.674
-59.835
-60.707
-62.416
-64.973
-68.223
-71.812
-75.399
-78.709
-81.346
-82.826
-82.836
-81.313
-78.778
-76.306
-74.8
-74.924
-77.169
-81.813
-89.038
-98.539
-108.705
-116.894
-120.405
-116.587
-103.479
-79.616
-43.191
6.802
69.489
142.62
222.774
305.703
387.903
465.768
534.335
589.124
626.72
644.466
641.732
619.148
576.719
515.377
437.945
347.651
248.693
145.957
42.89
-57.487
-151.208
-234.799
-305.454
-360.816
-400.544
-425.526
-436.143
-433.021
-417.56
-391.695
-358.459
-321.189
-281.861
-241.944
-203.129
-167.224
-136.331
-111.721
-93.083
-79.523
-70.5
-65.42
-63.636
-64.007
-64.476
-63.65
-61.222
-57.269
-52.095
-46.04
-39.268
-32.357
-26.496
-22.384
-20.185
-19.813
-20.8
-22.742
-25.394
-28.288
-30.797
-32.512
-33.2
-32.791
-31.425
-29.189
-26.118
-22.311
-17.881
-12.945
-7.622
-1.991
3.886
9.927
16.033
22.078
27.944
33.557
38.872
43.865
48.537
52.882
56.91
60.65
64.133
67.395
70.469
73.379
76.154
78.831
81.452
84.066
86.715
89.426
92.214
95.09
98.058
101.121
104.276
107.508
110.803
114.151
117.54
120.964
124.41
127.865
131.308
134.722
138.088
141.389
144.608
147.725
150.723
153.585
156.293
158.834
161.191
163.346
165.283
166.984
168.434
169.616
170.518
171.126
171.427
171.413
171.075
170.407
169.406
168.068
166.392
164.38
162.036
159.364
156.373
153.071
149.472
145.588
141.431
137.018
132.365
127.493
122.424
117.177
111.768
106.23
100.594
94.889
89.148
83.389
77.619
71.875
66.195
60.569
54.997
49.48
44.011
38.633
33.413
28.339
23.381
18.678
14.394
10.449
6.861
3.665
0.542
-1.63
-1.998
-1.777
-1.339
-2.917
-9.188
-17.202
-24.995
-29.64
-27.117
-21.003
-14.334
-9.195
-9.023
-11.386
-13.818
-15.785
-15.789
-14.725
-13.738
-12.63
-11.561
-10.472
-9.149
-7.759
-6.436
-5.156
-3.923
-2.764
-1.688
-0.698
0.201
1.022
1.782
2.465
3.054
3.548
3.944
4.238
4.432
4.522
4.506
4.388
4.171
3.858
3.455
2.965
2.393
1.745
1.026
0.243
-0.597
-1.489
-2.424
-3.397
-4.399
-5.424
-6.465
-7.513
-8.564
-9.609
-10.643
-11.661
-12.655
-13.621
-14.553
-15.446
-16.296
-17.097
-17.847
-18.543
-19.18
-19.758
-20.275
-20.731
-21.124
-21.455
-21.725
-21.933
-22.08
-22.167
-22.195
-22.165
-22.077
-21.934
-21.738
-21.49
-21.191
-20.844
-20.45
-20.01
-19.526
-18.998
-18.429
-17.818
-17.168
-16.48
-15.758
-15.003
-14.217
-13.403
-12.565
-11.704
-10.825
-9.929
-9.017
-8.093
-7.163
-6.234
-5.31
-4.396
-3.493
-2.611
-1.767
-0.962
-0.191
0.551
1.271
1.959
2.58
3.124
3.612
4.016
4.271
4.323
4.11
3.621
2.923
2.03
0.858
-0.513
-1.794
-2.922
-3.975
-4.909
-6.038
-6.78
-5.351
-2.169
1.134
1.826
-5.186
-19.491
-35.961
-49.442
-52.639
-45.171
-33.845
-23.919
-21.102
-26.27
-34.259
-41.897
-46.968
-48.818
-49.499
-49.904
-49.971
-49.786
-49.082
-47.874
-46.5
-45.118
-43.77
-42.541
-41.539
-40.865
-40.61
-40.91
-41.965
-43.884
-46.654
-50.131
-53.937
-57.647
-60.896
-63.183
-63.858
-62.576
-59.537
-55.303
-50.847
-47.454
-46.117
-47.521
-52.72
-61.229
-70.312
-78.414
-83.821
-85.465
-85.794
-81.847
-66.433
-33.419
25.927
111.058
213.25
324.408
431.14
525.669
604.418
661.255
697.672
714.137
709.985
688.457
647.424
585.788
506.491
412.991
311.7
207.902
105.032
4.353
-92.656
-179.476
-251.62
-304.333
-333.686
-345.341
-344.036
-334
-321.802
-307.27
-290.051
-271.416
-250.285
-227.848
-205.673
-183.641
-162.114
-141.121
-120.37
-100.476
-82.386
-66.611
-53.591
-43.421
-35.545
-29.658
-25.564
-22.627
-20.346
-18.464
-16.704
-15.23
-14.628
-15.099
-16.675
-19.466
-23.281
-27.89
-33.114
-38.477
-43.385
-47.475
-50.5
-52.322
-52.988
-52.518
-50.919
-48.303
-44.806
-40.568
-35.737
-30.421
-24.72
-18.749
-12.64
-6.545
-0.599
5.108
10.519
15.606
20.362
24.778
28.856
32.622
36.105
39.342
42.367
45.201
47.875
50.427
52.899
55.345
57.804
60.298
62.842
65.44
68.09
70.793
73.538
76.308
79.088
81.863
84.622
87.357
90.058
92.708
95.291
97.789
100.185
102.465
104.616
106.621
108.468
110.144
111.638
112.94
114.042
114.93
115.594
116.023
116.207
116.136
115.803
115.2
114.322
113.165
111.727
110.01
108.016
105.749
103.213
100.417
97.368
94.078
90.556
86.817
82.873
78.739
74.432
69.97
65.369
60.65
55.83
50.93
45.97
40.969
35.948
30.925
25.92
20.952
16.04
11.202
6.456
1.817
-2.697
-7.072
-11.295
-15.353
-19.236
-22.935
-26.442
-29.753
-32.862
-35.767
-38.465
-40.958
-43.246
-45.331
-47.216
-48.907
-50.409
-51.729
-52.874
-53.853
-54.673
-55.345
-55.878
-56.281
-56.564
-56.737
-56.81
-56.793
-56.696
-56.528
-56.301
-56.024
-55.705
-55.355
-54.981
-54.592
-54.194
-53.795
-53.4
-53.014
-52.642
-52.288
-51.956
-51.648
-51.366
-51.113
-50.888
-50.692
-50.526
-50.389
-50.28
-50.197
-50.14
-50.107
-50.096
-50.106
-50.136
-50.184
-50.247
-50.325
-50.416
-50.518
-50.628
-50.745
-50.868
-50.996
-51.126
-51.257
-51.389
-51.521
-51.653
-51.783
-51.91
-52.036
-52.158
-52.277
-52.392
-52.502
-52.607
-52.707
-52.8
-52.886
-52.964
-53.032
-53.09
-53.135
-53.166
-53.18
-53.177
-53.153
-53.107
-53.036
-52.939
-52.812
-52.653
-52.46
-52.23
-51.959
-51.645
-51.286
-50.878
-50.417
-49.903
-49.331
-48.7
-48.006
-47.249
-46.427
-45.537
-44.58
-43.556
-42.465
-41.308
-40.087
-38.806
-37.468
-36.078
-34.641
-33.161
-31.646
-30.103
-28.537
-26.957
-25.37
-23.785
-22.212
-20.663
-19.15
-17.685
-16.283
-14.956
-13.718
-12.582
-11.561
-10.665
-9.904
-9.286
-8.822
-8.524
-8.404
-8.468
-8.723
-9.175
-9.827
-10.682
-11.739
-12.987
-14.419
-16.027
-17.812
-19.781
-21.939
-24.286
-26.819
-29.528
-32.4
-35.421
-38.566
-41.794
-45.062
-48.325
-51.542
-54.685
-57.716
-60.593
-63.251
-65.617
-67.62
-69.207
-70.336
-70.983
-71.135
-70.794
-69.994
-68.786
-67.254
-65.51
-63.668
-61.863
-60.242
-58.928
-58.118
-58.082
-58.976
-60.829
-63.481
-66.513
-69.523
-72.226
-74.208
-74.973
-74.25
-72.036
-68.932
-66.174
-64.912
-65.97
-69.958
-77.252
-87.765
-100.758
-114.314
-125.392
-130.721
-127.291
-112.633
-84.645
-41.794
16.339
88.685
172.563
264.206
359.474
454.073
543.117
621.565
684.795
728.753
750.645
748.582
721.943
672.371
602.725
516.853
417.2
303.268
176.462
41.994
-89.637
-202.499
-284.266
-330.591
-343.765
-332.108
-304.37
-267.122
-227.765
-194.73
-174.838
-170.861
-179.493
-191.603
-198.748
-197.159
-187.43
-174.01
-160.432
-147.497
-134.824
-121.193
-106.362
-91.289
-76.95
-64.233
-53.686
-45.395
-39.309
-35.302
-33.112
-32.466
-33.149
-34.946
-37.624
-40.954
-44.669
-48.491
-52.207
-55.634
-58.609
-61.016
-62.739
-63.684
-63.813
-63.125
-61.638
-59.397
-56.45
-52.849
-48.674
-44.025
-39.019
-33.786
-28.444
-23.105
-17.857
-12.762
-7.873
-3.234
1.136
5.23
9.054
12.624
15.954
19.056
21.952
24.666
27.233
29.691
32.079
34.439
36.803
39.193
41.625
44.111
46.655
49.259
51.917
54.617
57.352
60.115
62.899
65.697
68.498
71.288
74.054
76.779
79.446
82.042
84.55
86.956
89.246
91.407
93.426
95.294
96.999
98.527
99.867
101.006
101.932
102.634
103.101
103.325
103.298
103.013
102.466
101.654
100.577
99.234
97.626
95.757
93.631
91.254
88.633
85.777
82.696
79.403
75.909
72.229
68.379
64.373
60.23
55.966
51.597
47.143
42.622
38.051
33.448
28.833
24.222
19.634
15.086
10.595
6.175
1.842
-2.389
-6.505
-10.496
-14.349
-18.054
-21.604
-24.989
-28.204
-31.243
-34.102
-36.778
-39.269
-41.574
-43.694
-45.631
-47.386
-48.962
-50.364
-51.596
-52.663
-53.57
-54.324
-54.931
-55.398
-55.733
-55.943
-56.035
-56.017
-55.898
-55.684
-55.384
-55.005
-54.554
-54.038
-53.466
-52.843
-52.177
-51.474
-50.74
-49.982
-49.205
-48.414
-47.615
-46.811
-46.007
-45.207
-44.413
-43.629
-42.859
-42.104
-41.368
-40.652
-39.959
-39.29
-38.648
-38.033
-37.447
-36.891
-36.366
-35.874
-35.416
-34.992
-34.605
-34.255
-33.942
-33.669
-33.434
-33.238
-33.083
-32.966
-32.889
-32.85
-32.85
-32.887
-32.961
-33.07
-33.214
-33.391
-33.598
-33.835
-34.097
-34.383
-34.691
-35.016
-35.356
-35.708
-36.068
-36.434
-36.8
-37.164
-37.519
-37.863
-38.189
-38.493
-38.769
-39.011
-39.214
-39.373
-39.482
-39.536
-39.531
-39.46
-39.32
-39.106
-38.814
-38.439
-37.978
-37.428
-36.787
-36.053
-35.226
-34.304
-33.288
-32.178
-30.976
-29.683
-28.304
-26.839
-25.294
-23.673
-21.981
-20.226
-18.413
-16.551
-14.651
-12.723
-10.781
-8.838
-6.909
-5.007
-3.148
-1.348
0.379
2.02
3.564
4.999
6.311
7.488
8.514
9.379
10.069
10.576
10.889
11.001
10.909
10.614
10.119
9.427
8.534
7.427
6.096
4.536
2.744
0.724
-1.514
-3.954
-6.568
-9.311
-12.139
-15.007
-17.876
-20.718
-23.502
-26.192
-28.735
-31.063
-33.111
-34.827
-36.17
-37.111
-37.653
-37.811
-37.64
-37.232
-36.669
-36.042
-35.431
-34.906
-34.565
-34.532
-34.949
-36.003
-37.918
-40.828
-44.755
-49.577
-54.899
-60.228
-65.076
-68.86
-70.982
-71.037
-68.924
-65.135
-60.97
-57.917
-57.179
-58.781
-61.745
-65.48
-69.806
-76.861
-89.336
-105.533
-119.58
-119.977
-93.699
-35.4
51.252
154.578
260.822
361.247
453.396
538.613
616.02
681.758
730.661
757.301
759.64
738.197
693.655
628.073
545.011
448.516
343.858
236.703
131.368
32.055
-56.99
-132.661
-192.741
-236.245
-264.274
-278.901
-281.991
-276.076
-263.886
-247.8
-230.756
-215.118
-201.432
-189.51
-179.331
-170.392
-162.311
-155.234
-147.068
-135.646
-121.998
-106.726
-92.662
-83.267
-75.582
-67.448
-56.378
-39.116
-20.133
-3.016
9.972
15.412
15.991
14.219
10.873
8.053
5.219
1.572
-2.378
-6.729
-11.269
-15.517
-19.448
-22.998
-25.944
-28.207
-29.748
-30.496
-30.426
-29.529
-27.803
-25.312
-22.168
-18.481
-14.343
-9.816
-4.946
0.196
5.518
10.907
16.244
21.458
26.504
31.347
35.963
40.337
44.46
48.36
52.077
55.642
59.08
62.4
65.604
68.709
71.738
74.719
77.685
80.655
83.636
86.635
89.653
92.687
95.73
98.764
101.761
104.7
107.566
110.341
113.016
115.573
117.995
120.264
122.364
124.278
125.993
127.492
128.763
129.795
130.577
131.102
131.367
131.367
131.098
130.556
129.739
128.644
127.273
125.625
123.704
121.512
119.055
116.34
113.375
110.171
106.739
103.09
99.239
95.199
90.987
86.618
82.11
77.481
72.749
67.933
63.051
58.123
53.168
48.205
43.253
38.33
33.453
28.639
23.904
19.264
14.731
10.32
6.043
1.91
-2.067
-5.88
-9.52
-12.98
-16.255
-19.339
-22.23
-24.925
-27.423
-29.724
-31.829
-33.74
-35.461
-36.996
-38.349
-39.528
-40.537
-41.386
-42.081
-42.632
-43.048
-43.338
-43.512
-43.579
-43.55
-43.433
-43.238
-42.975
-42.653
-42.281
-41.867
-41.421
-40.951
-40.464
-39.969
-39.472
-38.981
-38.502
-38.04
-37.601
-37.19
-36.811
-36.467
-36.162
-35.897
-35.675
-35.497
-35.363
-35.274
-35.228
-35.224
-35.261
-35.338
-35.451
-35.598
-35.778
-35.986
-36.221
-36.479
-36.757
-37.054
-37.365
-37.688
-38.02
-38.358
-38.701
-39.044
-39.387
-39.726
-40.06
-40.387
-40.705
-41.014
-41.313
-41.601
-41.877
-42.142
-42.397
-42.641
-42.878
-43.107
-43.331
-43.553
-43.773
-43.996
-44.223
-44.456
-44.698
-44.952
-45.219
-45.5
-45.798
-46.114
-46.448
-46.802
-47.174
-47.565
-47.975
-48.401
-48.843
-49.297
-49.762
-50.233
-50.707
-51.179
-51.646
-52.102
-52.541
-52.958
-53.345
-53.697
-54.006
-54.265
-54.465
-54.599
-54.659
-54.636
-54.525
-54.317
-54.006
-53.585
-53.048
-52.39
-51.608
-50.697
-49.655
-48.48
-47.172
-45.734
-44.165
-42.472
-40.658
-38.73
-36.698
-34.572
-32.364
-30.087
-27.756
-25.386
-22.994
-20.599
-18.216
-15.859
-13.546
-11.292
-9.119
-7.048
-5.094
-3.273
-1.612
-0.136
1.132
2.169
2.975
3.559
3.902
3.98
3.814
3.415
2.796
1.982
0.945
-0.364
-1.906
-3.609
-5.567
-7.891
-10.451
-13.229
-16.22
-19.042
-22.547
-27.552
-32.755
-37.751
-40.203
-37.292
-32.031
-26.479
-23.702
-27.925
-35.571
-43.536
-49.727
-50.774
-49.174
-47.271
-45.677
-46.134
-47.795
-49.928
-52.361
-53.272
-53.127
-53.615
-56.834
-67.201
-83.954
-101.476
-114.122
-114.339
-101.604
-83.189
-65.452
-55.332
-54.906
-59.977
-68.11
-77.393
-86.643
-96.294
-104.559
-108.109
-103.822
-88.623
-59.894
-16.003
43.579
117.963
204.537
299.245
397.495
494.533
584.806
662.643
723.148
762.153
777.021
766.868
731.474
671.62
590.106
491.059
379.404
261.049
141.523
25.62
-81.34
-174.601
-251.063
-308.879
-347.755
-369.008
-374.084
-364.42
-343.018
-313.432
-278.873
-242.399
-206.131
-171.343
-139.854
-113.906
-94.367
-81.107
-73.607
-70.814
-71.98
-76.581
-83.139
-89.387
-93.859
-95.914
-95.436
-92.92
-88.77
-83.213
-77.061
-71.638
-67.817
-65.988
-66.161
-67.878
-70.688
-74.297
-78.241
-81.918
-84.927
-87.016
-88.043
-88.08
-87.195
-85.402
-82.779
-79.421
-75.386
-70.756
-65.63
-60.09
-54.265
-48.297
-42.273
-36.271
-30.352
-24.558
-18.94
-13.531
-8.333
-3.339
1.449
6.031
10.399
14.557
18.533
22.363
26.088
29.752
33.383
37.002
40.629
44.271
47.934
51.615
55.305
58.987
62.652
66.294
69.906
73.483
77.011
80.477
83.866
87.161
90.348
93.411
96.336
99.108
101.717
104.152
106.405
108.467
110.332
111.988
113.427
114.64
115.616
116.35
116.833
117.059
117.023
116.721
116.151
115.313
114.207
112.835
111.2
109.307
107.162
104.771
102.144
99.289
96.217
92.94
89.47
85.822
82.01
78.049
73.956
69.746
65.436
61.042
56.582
52.072
47.528
42.968
38.407
33.86
29.343
24.871
20.457
16.115
11.857
7.695
3.639
-0.301
-4.115
-7.797
-11.34
-14.738
-17.986
-21.08
-24.018
-26.797
-29.417
-31.878
-34.179
-36.323
-38.312
-40.147
-41.834
-43.375
-44.776
-46.042
-47.178
-48.19
-49.083
-49.865
-50.54
-51.115
-51.596
-51.989
-52.301
-52.538
-52.705
-52.809
-52.856
-52.851
-52.8
-52.709
-52.581
-52.422
-52.236
-52.027
-51.798
-51.555
-51.3
-51.036
-50.766
-50.494
-50.221
-49.949
-49.681
-49.417
-49.158
-48.907
-48.662
-48.426
-48.198
-47.979
-47.77
-47.57
-47.382
-47.203
-47.036
-46.879
-46.733
-46.597
-46.472
-46.356
-46.252
-46.158
-46.075
-46.004
-45.946
-45.9
-45.867
-45.849
-45.845
-45.855
-45.878
-45.915
-45.971
-46.048
-46.151
-46.282
-46.438
-46.619
-46.832
-47.072
-47.323
-47.576
-47.816
-48.031
-48.257
-48.514
-48.791
-49.13
-49.591
-50.191
-50.976
-51.983
-53.101
-54.241
-55.431
-56.505
-57.146
-57.399
-57.368
-56.907
-56.474
-55.716
-52.804
-48.209
-43.641
-41.724
-48.613
-65.722
-87.191
-105.532
-109.605
-93.237
-64.133
-34.1
-15.607
-18.188
-36.816
-59.881
-78.519
-85.148
-80.895
-72.972
-65.17
-60.22
-58.525
-57.452
-56.16
-54.81
-53.274
-51.962
-50.983
-49.989
-48.875
-47.684
-46.367
-44.909
-43.36
-41.752
-40.129
-38.564
-37.085
-35.68
-34.364
-33.156
-32.066
-31.111
-30.303
-29.647
-29.15
-28.823
-28.671
-28.699
-28.913
-29.326
-29.95
-30.791
-31.854
-33.141
-34.649
-36.367
-38.272
-40.33
-42.501
-44.749
-47.041
-49.353
-51.66
-53.929
-56.125
-58.195
-60.094
-61.784
-63.23
-64.4
-65.281
-65.884
-66.254
-66.481
-66.647
-66.815
-67.055
-67.426
-68.011
-68.918
-70.257
-72.131
-74.665
-78.023
-82.29
-87.437
-93.278
-99.4
-105.314
-110.564
-114.644
-116.979
-117.252
-115.56
-112.39
-108.787
-105.894
-104.446
-105.112
-108.613
-114.998
-123.479
-132.55
-139.329
-140.377
-133.319
-115.811
-86.166
-44.919
8.274
73.774
150.91
240.476
338.276
434.66
519.123
579.052
609.723
615.913
603.018
578.499
544.638
496.812
433.938
356.822
268.354
174.975
80.758
-12.3
-101.522
-184.435
-258.819
-322.367
-373.789
-412.842
-439.181
-452.524
-452.787
-440.354
-416.601
-383.382
-343.861
-301.15
-256.403
-211.625
-167.207
-123.387
-85.119
-55.095
-36.38
-32.42
-38.288
-49.573
-62.072
-69.46
-72.506
-72.899
-70.832
-68.292
-64.859
-59.768
-54.234
-49.466
-46.308
-45.274
-46.146
-48.268
-51.214
-54.663
-57.999
-60.546
-62.082
-62.586
-61.953
-60.364
-57.951
-54.426
-50.883
-48.385
-45.736
-42.668
-36.863
-25.511
-11.944
1.591
11.821
14.3
12.853
10.737
10.186
14.915
22.289
29.641
36.403
40.963
44.295
47.657
50.853
54.086
57.328
60.374
63.417
66.611
69.926
73.358
76.922
80.607
84.389
88.251
92.157
96.067
99.986
103.913
107.828
111.715
115.555
119.328
123.019
126.615
130.098
133.449
136.652
139.691
142.555
145.229
147.695
149.938
151.941
153.688
155.163
156.353
157.244
157.824
158.083
158.013
157.608
156.864
155.778
154.35
152.58
150.473
148.033
145.267
142.182
138.79
135.102
131.129
126.889
122.395
117.665
112.718
107.573
102.251
96.773
91.162
85.441
79.633
73.763
67.854
61.931
56.018
50.138
44.316
38.573
32.931
27.412
22.034
16.815
11.773
6.923
2.278
-2.15
-6.349
-10.311
-14.028
-17.494
-20.706
-23.659
-26.353
-28.787
-30.962
-32.881
-34.548
-35.968
-37.146
-38.091
-38.811
-39.315
-39.615
-39.721
-39.646
-39.401
-39.001
-38.459
-37.788
-37.002
-36.115
-35.14
-34.092
-32.983
-31.826
-30.633
-29.416
-28.185
-26.951
-25.723
-24.51
-23.319
-22.157
-21.031
-19.946
-18.907
-17.917
-16.98
-16.099
-15.276
-14.511
-13.806
-13.16
-12.572
-12.041
-11.565
-11.142
-10.77
-10.445
-10.164
-9.923
-9.72
-9.551
-9.413
-9.3
-9.212
-9.143
-9.091
-9.053
-9.026
-9.009
-9
-8.996
-8.998
-9.005
-9.016
-9.031
-9.051
-9.074
-9.102
-9.136
-9.176
-9.223
-9.279
-9.344
-9.422
-9.512
-9.616
-9.737
-9.874
-10.029
-10.203
-10.396
-10.608
-10.84
-11.092
-11.362
-11.651
-11.957
-12.278
-12.613
-12.96
-13.314
-13.674
-14.035
-14.392
-14.741
-15.077
-15.396
-15.694
-15.964
-16.203
-16.405
-16.566
-16.679
-16.74
-16.744
-16.686
-16.561
-16.364
-16.093
-15.744
-15.314
-14.802
-14.205
-13.524
-12.758
-11.907
-10.972
-9.956
-8.861
-7.691
-6.45
-5.144
-3.782
-2.372
-0.922
0.559
2.064
3.581
5.091
6.576
8.026
9.42
10.738
11.961
13.058
14.013
14.855
15.601
16.244
16.82
17.353
17.834
18.3
18.745
19.034
19.062
18.81
18.107
16.715
14.72
12.23
9.279
6.504
3.615
-1.1
-7.239
-13.499
-16.961
-10.639
6.779
29.037
46.219
43.123
12.482
-35.607
-82.282
-106.059
-92.545
-49.576
0.403
37.124
45.301
27.016
-0.129
-23.443
-34.093
-31.041
-23.468
-16.657
-12.854
-13.189
-15.101
-17.414
-20.551
-24.196
-28.263
-32.573
-36.34
-38.85
-39.711
-38.71
-36.187
-33.126
-30.695
-29.948
-31.778
-36.897
-45.567
-57.35
-70.669
-82.8
-90.414
-90.148
-79.068
-54.433
-14.137
42.674
115.274
200.95
295.423
393.832
491.066
581.384
659.277
719.696
758.272
772.999
763.488
730.8
678.318
608.851
524.631
427.725
318.4
201.422
86.025
-18.167
-100.028
-156.867
-194.689
-219.553
-239.488
-257.053
-268.048
-271.216
-265.955
-253.089
-236.892
-219.228
-199.858
-179.232
-157.436
-134.759
-112.665
-92.151
-73.182
-56.257
-42.148
-31.097
-23.185
-17.93
-13.893
-9.949
-5.809
-1.155
4.216
10.255
16.997
24.03
30.342
35.187
38.274
39.526
39.172
37.527
34.757
31.217
27.467
23.96
21.073
19.03
17.833
17.465
17.927
19.186
21.202
23.929
27.281
31.181
35.567
40.367
45.53
50.986
56.64
62.384
68.084
73.646
79.021
84.178
89.098
93.767
98.165
102.297
106.197
109.897
113.424
116.802
120.039
123.158
126.193
129.185
132.177
135.2
138.265
141.384
144.563
147.804
151.109
154.467
157.858
161.265
164.676
168.079
171.467
174.826
178.14
181.391
184.561
187.635
190.599
193.435
196.127
198.66
201.018
203.19
205.163
206.925
208.462
209.76
210.805
211.585
212.088
212.302
212.218
211.825
211.117
210.089
208.735
207.052
205.04
202.698
200.027
197.03
193.711
190.074
186.126
181.876
177.333
172.506
167.407
162.048
156.442
150.605
144.55
138.294
131.854
125.246
118.489
111.602
104.601
97.507
90.339
83.114
75.852
68.571
61.29
54.027
46.8
39.624
32.518
25.495
18.571
11.761
5.078
-1.467
-7.861
-14.094
-20.156
-26.039
-31.734
-37.236
-42.539
-47.637
-52.528
-57.208
-61.676
-65.931
-69.974
-73.804
-77.425
-80.839
-84.05
-87.062
-89.881
-92.512
-94.962
-97.238
-99.347
-101.297
-103.097
-104.755
-106.28
-107.682
-108.97
-110.153
-111.241
-112.242
-113.167
-114.023
-114.818
-115.561
-116.259
-116.918
-117.546
-118.148
-118.731
-119.299
-119.857
-120.41
-120.96
-121.51
-122.064
-122.622
-123.186
-123.754
-124.329
-124.914
-125.508
-126.111
-126.721
-127.334
-127.952
-128.579
-129.202
-129.811
-130.396
-130.946
-131.466
-131.973
-132.451
-132.882
-133.302
-133.735
-134.202
-134.736
-135.31
-135.868
-136.443
-137.089
-137.665
-138.004
-138.209
-138.272
-138.165
-138.253
-137.562
-135.138
-132.345
-129.597
-129.399
-134.75
-142.341
-149.959
-154.311
-150.892
-143.709
-136.161
-130.584
-130.805
-134.063
-137.591
-140.788
-141.919
-141.937
-142.08
-142.07
-142.095
-142.127
-141.872
-141.432
-141.096
-141
-141.017
-141.168
-141.477
-141.527
-142.389
-145.088
-148.082
-150.921
-150.844
-144.53
-135.642
-126.618
-121.091
-124.058
-131.101
-138.47
-143.595
-142.235
-137.423
-132.238
-127.369
-124.698
-123.145
-121.321
-119.504
-117.529
-115.501
-113.72
-112.014
-110.247
-108.482
-106.742
-105.024
-103.351
-101.749
-100.241
-98.87
-97.681
-96.674
-95.85
-95.222
-94.793
-94.566
-94.545
-94.73
-95.132
-95.77
-96.657
-97.801
-99.207
-100.862
-102.749
-104.855
-107.144
-109.56
-112.044
-114.528
-116.967
-119.354
-121.68
-123.893
-125.94
-127.812
-129.52
-131.095
-132.562
-133.836
-134.789
-135.454
-135.801
-135.573
-134.664
-133.146
-131.072
-128.977
-126.73
-122.611
-115.922
-108.177
-103.598
-109.469
-130.349
-161.796
-192.26
-207.689
-197.542
-165.831
-128.123
-99.778
-93.034
-106.924
-128.83
-148.827
-159.866
-162.481
-164.139
-168.343
-175.761
-182.954
-183.254
-174.15
-153.923
-122.558
-82.55
-30.974
34.897
116.079
215.384
327.082
440.12
544.958
629.205
686.553
719.491
729.257
718.994
691.378
643.42
575.156
489.404
389.124
280.939
171.061
63.555
-36.896
-126.504
-202.604
-262.787
-306.285
-334.133
-347.79
-349.104
-340.552
-324.359
-303.192
-280.184
-257.417
-236.147
-217.186
-200.653
-186.642
-175.62
-167.126
-159.972
-153.251
-145.986
-137.701
-128.59
-118.522
-107.058
-94.345
-80.947
-67.609
-55.437
-45.044
-36.494
-29.956
-25.603
-23.416
-23.27
-24.781
-27.273
-30.291
-33.64
-37.156
-40.747
-44.293
-47.592
-50.525
-53.067
-55.157
-56.702
-57.617
-57.807
-57.234
-55.945
-53.999
-51.466
-48.419
-44.901
-40.948
-36.61
-31.929
-26.958
-21.756
-16.379
-10.892
-5.387
0.067
5.419
10.637
15.722
20.683
25.528
30.276
34.943
39.544
44.089
48.584
53.027
57.425
61.786
66.128
70.476
74.848
79.249
83.678
88.126
92.58
97.029
101.447
105.805
110.076
114.239
118.274
122.17
125.905
129.453
132.804
135.943
138.857
141.538
143.962
146.095
147.938
149.495
150.723
151.595
152.084
152.157
151.837
151.171
150.133
148.673
146.929
145.064
142.99
140.726
138.31
135.416
132.976
131.902
130.93
129.688
125.846
116.609
105.11
93.445
84.725
83.215
85.182
87.464
87.901
82.909
75.087
67.065
59.445
53.837
49.334
44.766
40.373
36.021
31.801
27.966
24.371
20.897
17.595
14.48
11.544
8.793
6.239
3.889
1.766
-0.105
-1.736
-3.141
-4.32
-5.279
-6.024
-6.56
-6.899
-7.052
-7.024
-6.824
-6.461
-5.946
-5.294
-4.512
-3.609
-2.603
-1.516
-0.365
0.829
2.062
3.337
4.631
5.918
7.22
8.549
9.916
11.339
12.786
14.198
15.595
17.019
18.333
19.379
20.242
20.909
21.346
21.878
21.617
19.702
17.36
14.962
14.764
19.469
26.087
32.627
36.122
32.498
25.363
17.78
11.845
11.025
12.851
14.817
16.374
15.997
14.579
13.269
11.855
10.489
9.102
7.469
5.749
4.069
2.397
0.731
-0.908
-2.517
-4.098
-5.649
-7.187
-8.732
-10.269
-11.782
-13.272
-14.734
-16.163
-17.56
-18.917
-20.227
-21.491
-22.706
-23.871
-24.983
-26.041
-27.042
-27.985
-28.869
-29.692
-30.453
-31.151
-31.784
-32.352
-32.854
-33.289
-33.656
-33.956
-34.187
-34.349
-34.443
-34.468
-34.425
-34.312
-34.131
-33.88
-33.559
-33.168
-32.706
-32.173
-31.568
-30.892
-30.146
-29.329
-28.442
-27.486
-26.462
-25.372
-24.218
-23.002
-21.727
-20.396
-19.014
-17.585
-16.115
-14.608
-13.074
-11.521
-9.957
-8.393
-6.84
-5.308
-3.809
-2.354
-0.955
0.38
1.642
2.819
3.903
4.881
5.742
6.473
7.065
7.508
7.794
7.915
7.865
7.645
7.255
6.696
5.964
5.049
3.937
2.625
1.112
-0.598
-2.493
-4.558
-6.772
-9.095
-11.486
-13.904
-16.31
-18.678
-20.983
-23.189
-25.25
-27.098
-28.67
-29.92
-30.814
-31.33
-31.465
-31.226
-30.657
-29.839
-28.849
-27.774
-26.706
-25.721
-24.93
-24.458
-24.413
-24.973
-26.357
-28.667
-31.902
-35.891
-40.226
-44.519
-48.432
-51.475
-53.129
-53.048
-51.113
-47.833
-44.27
-41.33
-39.741
-40.039
-42.508
-47.339
-54.273
-61.756
-67.251
-68.126
-61.695
-45.946
-19.333
19.985
73.098
139.443
217.126
303.128
393.523
484.66
572.635
652.382
718.866
767.508
794.683
798.245
778.103
735.888
672.461
589.46
488.232
368.764
237.988
107.132
-12.648
-107.771
-175.212
-221.527
-250.929
-271.193
-283.598
-281.896
-268.897
-247.181
-221.45
-200.937
-184.177
-167.834
-149.752
-125.948
-99.121
-73.178
-49.767
-30.579
-15.131
-3.004
5.299
9.826
10.981
10.041
8.486
6.994
6.052
6.024
6.968
8.951
11.572
13.797
14.856
14.44
12.507
9.327
5.229
0.451
-4.613
-9.38
-13.401
-16.42
-18.339
-19.242
-19.224
-18.333
-16.645
-14.275
-11.333
-7.925
-4.156
-0.107
4.136
8.459
12.771
16.991
21.046
24.9
28.539
31.961
35.177
38.209
41.072
43.787
46.385
48.89
51.337
53.761
56.201
58.701
61.297
64.016
66.878
69.892
73.059
76.376
79.834
83.419
87.115
90.912
94.792
98.745
102.753
106.798
110.86
114.913
118.936
122.905
126.798
130.594
134.27
137.806
141.18
144.375
147.371
150.147
152.683
154.958
156.954
158.652
160.036
161.09
161.801
162.157
162.15
161.771
161.016
159.881
158.363
156.463
154.182
151.525
148.498
145.107
141.363
137.276
132.861
128.132
123.105
117.799
112.231
106.423
100.394
94.167
87.763
81.207
74.521
67.729
60.854
53.92
46.95
39.966
32.99
26.042
19.143
12.313
5.568
-1.073
-7.595
-13.983
-20.222
-26.301
-32.208
-37.932
-43.465
-48.798
-53.925
-58.84
-63.538
-68.017
-72.274
-76.308
-80.118
-83.706
-87.072
-90.22
-93.152
-95.872
-98.385
-100.695
-102.81
-104.733
-106.473
-108.034
-109.424
-110.65
-111.717
-112.634
-113.407
-114.044
-114.55
-114.934
-115.203
-115.364
-115.423
-115.389
-115.267
-115.065
-114.789
-114.446
-114.042
-113.583
-113.077
-112.529
-111.945
-111.331
-110.693
-110.037
-109.367
-108.689
-108.008
-107.328
-106.655
-105.992
-105.344
-104.715
-104.109
-103.531
-102.983
-102.469
-101.993
-101.558
-101.165
-100.818
-100.518
-100.267
-100.067
-99.919
-99.823
-99.781
-99.792
-99.857
-99.975
-100.146
-100.367
-100.639
-100.958
-101.322
-101.73
-102.178
-102.663
-103.182
-103.731
-104.308
-104.908
-105.527
-106.16
-106.803
-107.452
-108.101
-108.745
-109.38
-109.999
-110.599
-111.173
-111.718
-112.228
-112.698
-113.124
-113.5
-113.822
-114.085
-114.285
-114.417
-114.476
-114.459
-114.362
-114.181
-113.912
-113.554
-113.104
-112.558
-111.915
-111.173
-110.329
-109.384
-108.334
-107.181
-105.923
-104.562
-103.099
-101.534
-99.871
-98.111
-96.258
-94.315
-92.287
-90.178
-87.992
-85.737
-83.418
-81.043
-78.619
-76.155
-73.661
-71.15
-68.632
-66.122
-63.632
-61.177
-58.771
-56.428
-54.163
-51.988
-49.914
-47.955
-46.122
-44.429
-42.89
-41.518
-40.324
-39.317
-38.506
-37.899
-37.501
-37.309
-37.321
-37.536
-37.956
-38.59
-39.449
-40.533
-41.843
-43.376
-45.12
-47.059
-49.171
-51.416
-53.757
-56.154
-58.57
-60.98
-63.357
-65.663
-67.852
-69.863
-71.629
-73.102
-74.238
-75
-75.386
-75.403
-75.088
-74.518
-73.748
-72.855
-71.925
-71.041
-70.308
-69.84
-69.732
-70.142
-71.297
-73.325
-76.243
-79.893
-83.866
-87.758
-91.216
-93.744
-94.784
-93.942
-91.116
-86.836
-82.19
-78.253
-75.924
-75.962
-79.021
-85.481
-95.019
-105.966
-115.672
-121.242
-119.532
-107.624
-82.878
-42.675
13.491
83.008
163.888
254.06
351.992
458.707
567.77
666.797
743.715
784.785
786.763
756.988
702.145
630.786
547.437
450.637
342.712
227.983
111.55
0.998
-97.988
-182.111
-248.916
-297.41
-328.329
-343.648
-345.641
-337.061
-320.694
-298.83
-274.142
-249.489
-226.605
-206.041
-187.935
-171.991
-158.034
-146.236
-136.077
-126.325
-115.967
-104.67
-92.566
-80.074
-67.412
-54.448
-41.428
-29.174
-18.653
-10.46
-4.729
-1.297
-0.006
-0.91
-3.934
-8.67
-14.484
-20.795
-27.237
-33.606
-39.745
-45.381
-50.207
-54.034
-56.798
-58.514
-59.214
-58.893
-57.539
-55.188
-51.933
-47.895
-43.21
-37.99
-32.321
-26.297
-20.027
-13.645
-7.29
-1.059
4.988
10.82
16.417
21.761
26.842
31.675
36.292
40.73
45.022
49.189
53.243
57.206
61.104
64.97
68.839
72.734
76.659
80.618
84.608
88.625
92.66
96.694
100.702
104.66
108.551
112.359
116.07
119.667
123.13
126.442
129.584
132.539
135.292
137.828
140.134
142.196
144.005
145.551
146.829
147.833
148.554
148.988
149.13
148.974
148.519
147.765
146.709
145.353
143.702
141.758
139.529
137.023
134.247
131.211
127.928
124.408
120.667
116.72
112.581
108.264
103.786
99.165
94.418
89.566
84.625
79.607
74.541
69.452
64.363
59.301
54.276
49.287
44.363
39.534
34.781
30.094
25.467
20.883
16.376
12.005
7.753
3.577
-0.386
-3.98
-7.29
-10.305
-12.992
-15.677
-17.48
-17.546
-17.098
-16.508
-18.022
-24.329
-32.46
-40.441
-45.326
-43.072
-37.268
-30.959
-26.233
-26.538
-29.422
-32.399
-34.924
-35.485
-34.972
-34.526
-33.941
-33.369
-32.741
-31.836
-30.813
-29.8
-28.764
-27.705
-26.643
-25.584
-24.524
-23.467
-22.395
-21.289
-20.165
-19.039
-17.91
-16.785
-15.667
-14.559
-13.467
-12.398
-11.355
-10.339
-9.353
-8.402
-7.487
-6.613
-5.783
-5.001
-4.268
-3.588
-2.965
-2.4
-1.897
-1.458
-1.084
-0.779
-0.544
-0.38
-0.288
-0.27
-0.327
-0.458
-0.665
-0.947
-1.305
-1.737
-2.243
-2.822
-3.471
-4.19
-4.975
-5.824
-6.734
-7.7
-8.719
-9.785
-10.894
-12.039
-13.216
-14.416
-15.635
-16.863
-18.094
-19.32
-20.533
-21.724
-22.884
-24.006
-25.079
-26.095
-27.046
-27.924
-28.719
-29.425
-30.032
-30.534
-30.923
-31.194
-31.338
-31.352
-31.229
-30.966
-30.559
-30.006
-29.305
-28.456
-27.459
-26.316
-25.029
-23.601
-22.038
-20.344
-18.526
-16.591
-14.55
-12.412
-10.188
-7.892
-5.536
-3.136
-0.71
1.727
4.157
6.561
8.92
11.215
13.429
15.544
17.544
19.411
21.131
22.687
24.061
25.241
26.211
26.957
27.467
27.73
27.738
27.492
26.991
26.235
25.223
23.95
22.412
20.613
18.559
16.256
13.717
10.962
8.025
4.96
1.814
-1.365
-4.531
-7.656
-10.703
-13.629
-16.393
-18.94
-21.225
-23.217
-24.881
-26.18
-27.101
-27.658
-27.916
-27.987
-27.974
-27.96
-28.004
-28.169
-28.546
-29.219
-30.264
-31.766
-33.777
-36.4
-39.819
-44.052
-48.979
-54.371
-59.733
-64.531
-68.376
-70.675
-70.758
-68.56
-64.22
-58.051
-51.187
-44.674
-39.221
-36.069
-35.263
-34.532
-31.897
-26.382
-19.254
-14.543
-13.519
-10.542
6.319
48.829
122.072
220.341
327.707
429.233
515.665
583.042
633.609
668.621
686.069
683.881
659.735
612.609
544.25
458.264
358.973
251.471
141.087
32.139
-71.386
-165.337
-246.304
-311.819
-360.307
-391.786
-407.395
-408.235
-395.861
-372.683
-341.489
-305.501
-267.872
-230.969
-196.569
-166.254
-141.306
-122.194
-108.625
-99.517
-93.337
-88.642
-84.144
-78.837
-71.709
-62.187
-50.563
-37.481
-23.865
-11.069
0.887
12.277
21.342
27.469
28.396
21.579
10.741
-1.352
-10.911
-13.123
-11.515
-9.061
-7.8
-11.284
-16.761
-21.539
-25.048
-25.659
-24.327
-22.301
-19.4
-15.876
-11.769
-6.942
-1.652
3.874
9.575
15.328
20.981
26.44
31.656
36.599
41.277
45.699
49.844
53.72
57.37
60.835
64.155
67.365
70.486
73.545
76.582
79.638
82.757
85.965
89.276
92.693
96.219
99.852
103.584
107.399
111.27
115.174
119.092
123.006
126.901
130.757
134.549
138.256
141.855
145.323
148.642
151.79
154.748
157.496
160.019
162.301
164.331
166.094
167.579
168.772
169.661
170.236
170.49
170.414
170.002
169.251
168.16
166.73
164.964
162.866
160.443
157.703
154.656
151.312
147.686
143.789
139.639
135.252
130.645
125.838
120.851
115.702
110.414
105.007
99.503
93.923
88.287
82.616
76.932
71.253
65.6
59.99
54.442
48.973
43.598
38.334
33.193
28.189
23.333
18.634
14.102
9.743
5.564
1.57
-2.235
-5.85
-9.274
-12.505
-15.545
-18.397
-21.062
-23.545
-25.851
-27.984
-29.95
-31.755
-33.405
-34.907
-36.268
-37.494
-38.592
-39.57
-40.435
-41.193
-41.852
-42.419
-42.9
-43.299
-43.623
-43.882
-44.084
-44.237
-44.345
-44.411
-44.439
-44.444
-44.427
-44.374
-44.274
-44.115
-43.898
-43.653
-43.386
-43.072
-42.73
-42.424
-42.202
-42.118
-42.181
-42.314
-42.494
-42.804
-43.163
-43.271
-43.058
-42.618
-41.913
-41.26
-40.084
-36.506
-30.885
-24.967
-21.555
-25.993
-38.079
-52.421
-63.686
-64.298
-53.604
-38.806
-25.485
-19.611
-22.367
-28.38
-34.308
-37.923
-38.49
-38.198
-38.075
-38.038
-38.172
-38.152
-37.889
-37.686
-37.638
-37.698
-37.875
-38.186
-38.624
-39.179
-39.825
-40.51
-41.218
-41.973
-42.783
-43.648
-44.573
-45.555
-46.599
-47.711
-48.894
-50.149
-51.474
-52.865
-54.317
-55.829
-57.399
-59.037
-60.746
-62.522
-64.362
-66.255
-68.183
-70.133
-72.08
-73.994
-75.844
-77.597
-79.221
-80.7
-82.012
-83.139
-84.068
-84.772
-85.227
-85.43
-85.373
-85.07
-84.565
-83.896
-83.107
-82.248
-81.344
-80.458
-79.682
-79.094
-78.757
-78.677
-78.799
-79.138
-79.804
-80.825
-82.098
-83.375
-84.276
-84.583
-84.362
-83.666
-82.275
-79.961
-76.773
-73.014
-69.314
-66.369
-63.997
-61.506
-59.012
-55.418
-49.088
-40.133
-27.137
-11.737
1.592
14.312
28.513
50.299
88.502
