Name,John Breau
Date of Birth,"Dec 20, 1971"
Recorded Date,2023-05-19 08:14:52 -0500
Classification,Sinus Rhythm
Symptoms,
Software Version,1.90
Device,"Watch6,3"
Sample Rate,512 hertz


Lead,Lead I
Unit,µV

-447.006
-600.982
-682.37
-683.011
-619.494
-523.004
-424.775
-342.029
-282.378
-246.035
-226.264
-218.097
-216.245
-211.622
-198.616
-174.573
-137.173
-91.758
-47.156
-9.01
15.991
25.346
23.486
13.392
-2.129
-19.784
-41.463
-69.516
-105.283
-151.829
-209.738
-277.477
-351.002
-422.773
-482.019
-516.126
-517.267
-482.618
-418.831
-342.496
-267.997
-207.722
-168.01
-144.957
-136.012
-137.808
-143.362
-147.51
-141.521
-117.436
-75.545
-21.392
34.526
82.434
118.845
145.679
168.73
192.487
218.262
245.344
271.497
295.559
317.73
338.166
357.077
374.461
389.992
403.595
415.392
425.404
433.656
440.237
445.243
448.835
451.238
452.593
453.014
452.676
451.753
450.491
449.19
448.006
446.981
446.061
445.072
443.883
442.449
440.711
438.632
436.366
434.206
432.571
432.004
432.836
435.117
438.59
442.714
446.635
449.282
449.705
447.104
440.997
431.306
418.437
403.217
386.84
370.696
355.588
341.703
329.02
317.143
305.335
292.752
278.243
261.723
245.609
233.028
226.742
226.089
225.805
222.858
219.377
226.337
262.604
340.439
459.64
604.191
744.641
856.708
928.421
961.88
971.198
967.011
952.203
923.423
872.463
795.219
693.433
572.038
438.255
299.304
160.945
27.383
-96.564
-207.963
-305.79
-386.448
-448.227
-488.725
-502.657
-490.689
-456.994
-409.261
-361.174
-322.527
-296.995
-283.266
-274.289
-264.256
-251.453
-237.421
-226.334
-220.694
-220.759
-225.348
-231.688
-238.041
-243.704
-247.908
-250.77
-252.638
-253.445
-253.461
-253.246
-253.178
-253.859
-256.025
-259.849
-265.208
-271.953
-279.754
-288.323
-297.476
-306.85
-315.992
-324.65
-332.685
-340.042
-346.755
-352.794
-358.085
-362.631
-366.484
-369.718
-372.428
-374.679
-376.509
-377.937
-378.964
-379.613
-379.906
-379.858
-379.49
-378.817
-377.863
-376.673
-375.293
-373.748
-372.056
-370.196
-368.119
-365.778
-363.112
-360.099
-356.766
-353.131
-349.212
-345.023
-340.566
-335.848
-330.886
-325.679
-320.215
-314.49
-308.496
-302.255
-295.817
-289.232
-282.566
-275.854
-269.09
-262.278
-255.428
-248.551
-241.672
-234.807
-227.957
-221.146
-214.408
-207.779
-201.299
-194.991
-188.863
-182.921
-177.171
-171.63
-166.331
-161.302
-156.564
-152.137
-148.035
-144.278
-140.887
-137.872
-135.23
-132.956
-131.043
-129.485
-128.282
-127.428
-126.912
-126.721
-126.838
-127.245
-127.924
-128.854
-130.014
-131.379
-132.923
-134.622
-136.455
-138.4
-140.433
-142.53
-144.665
-146.816
-148.959
-151.071
-153.128
-155.108
-156.987
-158.747
-160.369
-161.835
-163.128
-164.235
-165.142
-165.838
-166.314
-166.563
-166.58
-166.361
-165.903
-165.208
-164.277
-163.113
-161.72
-160.104
-158.272
-156.234
-153.996
-151.571
-148.968
-146.198
-143.274
-140.208
-137.013
-133.702
-130.288
-126.784
-123.206
-119.565
-115.877
-112.153
-108.407
-104.65
-100.895
-97.152
-93.431
-89.741
-86.089
-82.484
-78.931
-75.436
-72.001
-68.631
-65.327
-62.09
-58.921
-55.819
-52.782
-49.809
-46.897
-44.045
-41.248
-38.504
-35.81
-33.162
-30.557
-27.991
-25.46
-22.961
-20.49
-18.044
-15.621
-13.217
-10.83
-8.459
-6.103
-3.761
-1.433
0.882
3.182
5.466
7.733
9.979
12.202
14.398
16.564
18.694
20.784
22.828
24.822
26.76
28.638
30.451
32.193
33.863
35.456
36.968
38.398
39.742
40.998
42.165
43.242
44.229
45.126
45.934
46.655
47.292
47.848
48.327
48.733
49.07
49.342
49.556
49.716
49.829
49.901
49.938
49.947
49.935
49.908
49.872
49.832
49.793
49.757
49.727
49.704
49.688
49.677
49.668
49.656
49.634
49.595
49.529
49.426
49.281
49.086
48.834
48.519
48.133
47.668
47.119
46.478
45.734
44.88
43.909
42.819
41.619
40.318
38.927
37.449
35.877
34.204
32.427
30.541
28.541
26.426
24.196
21.872
19.501
17.129
14.797
12.532
10.327
8.185
6.123
4.18
2.42
0.912
-0.297
-1.146
-1.552
-1.506
-1.078
-0.427
0.174
0.468
0.276
-0.513
-1.978
-3.982
-6.176
-8.182
-9.581
-10.028
-9.348
-7.48
-4.359
-0.297
3.978
7.922
11.13
13.267
14.153
13.592
11.162
6.69
0.433
-7.64
-17.959
-29.611
-40.25
-48.055
-50.835
-49.654
-49.505
-50.757
-49.557
-36.466
3.346
77.697
185.745
318.726
461.258
599.396
722.11
822.276
895.655
940.512
958.461
951.554
922.686
872.417
799.393
703.311
585.45
453.285
315.892
182.157
60.264
-48.642
-143.846
-224.573
-291.812
-342.645
-375.536
-391.21
-389.595
-373.09
-344.94
-307.583
-264.152
-217.652
-170.102
-123.712
-81.027
-43.949
-13.766
9.03
25.095
35.583
41.375
43.715
44.376
45
47.127
51.587
58.204
66.513
76.074
86.255
96.277
105.271
112.275
116.843
119.094
119.339
118.03
115.607
112.459
109.107
106.131
103.92
102.695
102.525
103.342
105.101
107.767
111.254
115.458
120.265
125.554
131.238
137.238
143.474
149.869
156.315
162.701
168.919
174.859
180.448
185.65
190.437
194.797
198.739
202.274
205.432
208.26
210.795
213.071
215.119
216.963
218.638
220.185
221.646
223.068
224.483
225.912
227.372
228.878
230.433
232.042
233.702
235.399
237.126
238.879
240.653
242.447
244.254
246.065
247.87
249.658
251.418
253.139
254.81
256.419
257.954
259.406
260.763
262.019
263.162
264.182
265.068
265.808
266.391
266.807
267.046
267.098
266.956
266.612
266.06
265.297
264.319
263.124
261.711
260.082
258.236
256.179
253.915
251.449
248.789
245.942
242.919
239.73
236.387
232.901
229.286
225.556
221.724
217.805
213.815
209.768
205.679
201.565
197.439
193.315
189.208
185.132
181.098
177.12
173.209
169.374
165.625
161.971
158.419
154.977
151.648
148.436
145.344
142.373
139.525
136.799
134.193
131.705
129.33
127.064
124.902
122.84
120.869
118.982
117.166
115.414
113.715
112.062
110.445
108.852
107.268
105.683
104.087
102.472
100.832
99.155
97.43
95.648
93.801
91.887
89.909
87.863
85.747
83.555
81.28
78.934
76.526
74.066
71.565
69.009
66.382
63.69
60.938
58.137
55.323
52.459
49.489
46.472
43.436
40.439
37.598
34.828
31.998
29.161
26.327
23.366
20.297
16.905
12.824
8.205
3.188
-2.21
-7.664
-12.892
-17.901
-22.235
-25.273
-27.031
-27.354
-26.282
-24.535
-22.501
-20.244
-18.306
-17.237
-17.192
-18.661
-21.617
-25.215
-29.047
-32.921
-36.403
-39.254
-41.267
-41.891
-41.093
-39.431
-37.169
-34.518
-31.682
-28.614
-25.401
-22.338
-19.452
-16.555
-13.536
-10.264
-6.69
-2.914
1.023
5.133
9.381
13.714
18.076
22.412
26.647
30.731
34.72
38.646
42.538
46.454
50.289
53.908
57.367
60.729
63.859
66.715
69.158
70.964
72.415
73.831
75.217
76.649
78.3
80.202
82.642
85.953
89.753
93.63
97.421
100.81
103.576
105.608
106.483
105.801
103.698
100.287
95.597
89.788
82.872
74.838
65.882
56.162
45.664
34.462
22.684
10.476
-1.91
-14.24
-26.357
-38.07
-49.116
-59.325
-68.655
-77.211
-85.283
-93.093
-100.681
-108.118
-115.565
-122.966
-130.07
-136.353
-140.894
-143.05
-142.65
-139.471
-133.338
-124.579
-113.819
-102.169
-91.326
-82.441
-76.09
-73.095
-74.18
-79.439
-88.778
-101.557
-116.481
-132.864
-149.413
-163.378
-172.476
-175.442
-173.183
-168.125
-160.141
-144.825
-114.072
-60.881
17.194
116.839
229.274
347.035
462.381
566.874
654.9
718.689
754.342
764.051
749.533
714.933
662.379
590.168
499.587
393.344
276.094
155.234
36.444
-75.946
-177.984
-266.952
-340.806
-398.159
-438.997
-464.388
-475.527
-473.797
-460.979
-439.237
-410.982
-378.52
-343.817
-308.354
-273.644
-241.538
-213.609
-190.594
-172.553
-159.11
-149.615
-143.466
-139.83
-137.183
-133.934
-129.206
-122.717
-114.641
-105.474
-95.66
-85.692
-76.489
-69.083
-64.041
-61.533
-61.392
-63.209
-66.633
-71.353
-76.894
-82.695
-88.335
-93.522
-98.102
-102.026
-105.211
-107.572
-109.088
-109.786
-109.725
-108.974
-107.592
-105.63
-103.156
-100.246
-96.979
-93.439
-89.701
-85.851
-81.971
-78.152
-74.493
-71.07
-67.934
-65.12
-62.631
-60.461
-58.602
-57.033
-55.725
-54.653
-53.795
-53.129
-52.644
-52.323
-52.142
-52.076
-52.089
-52.157
-52.265
-52.404
-52.572
-52.772
-53.006
-53.284
-53.621
-54.028
-54.513
-55.082
-55.735
-56.473
-57.3
-58.222
-59.243
-60.367
-61.593
-62.922
-64.355
-65.888
-67.519
-69.241
-71.047
-72.929
-74.881
-76.897
-78.971
-81.097
-83.266
-85.472
-87.71
-89.97
-92.247
-94.532
-96.817
-99.093
-101.353
-103.591
-105.798
-107.969
-110.095
-112.173
-114.195
-116.157
-118.054
-119.882
-121.637
-123.316
-124.917
-126.437
-127.875
-129.231
-130.504
-131.695
-132.805
-133.835
-134.787
-135.663
-136.465
-137.198
-137.862
-138.461
-138.999
-139.477
-139.899
-140.267
-140.585
-140.855
-141.079
-141.259
-141.397
-141.494
-141.553
-141.574
-141.557
-141.506
-141.418
-141.296
-141.139
-140.948
-140.721
-140.459
-140.161
-139.824
-139.449
-139.034
-138.576
-138.074
-137.526
-136.931
-136.286
-135.59
-134.84
-134.035
-133.174
-132.255
-131.277
-130.24
-129.143
-127.985
-126.767
-125.489
-124.15
-122.751
-121.292
-119.773
-118.193
-116.554
-114.854
-113.093
-111.273
-109.391
-107.447
-105.443
-103.377
-101.249
-99.059
-96.808
-94.495
-92.12
-89.685
-87.188
-84.631
-82.013
-79.334
-76.593
-73.792
-70.928
-68.002
-65.012
-61.958
-58.839
-55.654
-52.401
-49.081
-45.692
-42.233
-38.705
-35.106
-31.438
-27.7
-23.893
-20.017
-16.074
-12.066
-7.994
-3.86
0.335
4.589
8.9
13.262
17.675
22.133
26.636
31.183
35.766
40.376
45.017
49.691
54.396
59.135
63.892
68.648
73.405
78.167
82.898
87.567
92.147
96.603
100.945
105.203
109.34
113.299
117.177
121.092
124.948
128.739
132.474
135.853
139.631
144.546
149.515
154.204
156.637
154.449
150.229
145.698
143.425
146.944
153.112
159.268
163.592
163.078
159.88
156.175
152.437
149.986
148.048
145.629
142.925
139.823
136.407
132.907
129.241
125.349
121.316
117.195
113.005
108.783
104.577
100.444
96.473
92.756
89.335
86.244
83.522
81.168
79.164
77.453
75.929
74.5
73.071
71.532
69.784
67.707
65.175
62.095
58.324
53.643
47.924
41.145
33.462
25.295
17.084
9.207
2.173
-3.404
-7.058
-8.589
-8.431
-7.592
-7.033
-7.588
-9.995
-14.944
-23.068
-33.596
-43.722
-50.083
-49.143
-40.25
-26.077
-7.431
16.343
51.124
107.404
191.682
306.589
444.58
588.197
718.77
817.151
874.073
891.618
876.493
840.24
789.545
724.541
644.62
547.909
435.832
314.204
189.301
67.164
-47.074
-149.657
-237.882
-309.758
-363.984
-400.729
-420.836
-425.076
-415.139
-393.333
-362.104
-324.485
-283.472
-241.063
-199.151
-159.964
-125.17
-95.943
-72.811
-55.174
-42.029
-32.736
-26.384
-21.62
-17.113
-11.553
-4.239
4.607
14.451
24.851
35.257
45.024
53.413
59.528
62.938
63.752
62.28
58.969
54.258
48.501
42.164
35.843
29.96
24.781
20.485
17.077
14.566
12.987
12.3
12.429
13.295
14.793
16.826
19.325
22.21
25.405
28.836
32.394
35.974
39.481
42.805
45.888
48.692
51.185
53.366
55.25
56.858
58.232
59.424
60.474
61.422
62.299
63.132
63.957
64.813
65.739
66.775
67.951
69.282
70.78
72.449
74.284
76.279
78.415
80.671
83.024
85.459
87.955
90.499
93.071
95.649
98.212
100.736
103.196
105.573
107.843
109.985
111.978
113.803
115.443
116.884
118.109
119.104
119.854
120.344
120.562
120.497
120.139
119.481
118.516
117.241
115.653
113.754
111.546
109.034
106.222
103.119
99.734
96.078
92.164
88.006
83.619
79.019
74.225
69.255
64.128
58.866
53.488
48.016
42.47
36.873
31.245
25.607
19.979
14.38
8.831
3.349
-2.049
-7.345
-12.524
-17.572
-22.475
-27.221
-31.8
-36.202
-40.418
-44.443
-48.268
-51.891
-55.307
-58.514
-61.511
-64.297
-66.872
-69.24
-71.401
-73.361
-75.122
-76.691
-78.072
-79.273
-80.299
-81.158
-81.856
-82.403
-82.805
-83.071
-83.208
-83.226
-83.132
-82.935
-82.642
-82.263
-81.803
-81.272
-80.676
-80.023
-79.32
-78.574
-77.792
-76.981
-76.146
-75.295
-74.433
-73.566
-72.699
-71.839
-70.989
-70.155
-69.341
-68.553
-67.793
-67.067
-66.378
-65.73
-65.127
-64.571
-64.067
-63.616
-63.221
-62.884
-62.608
-62.393
-62.243
-62.157
-62.137
-62.183
-62.295
-62.473
-62.717
-63.025
-63.395
-63.825
-64.313
-64.855
-65.446
-66.083
-66.76
-67.473
-68.215
-68.981
-69.764
-70.557
-71.352
-72.144
-72.922
-73.681
-74.411
-75.104
-75.752
-76.349
-76.885
-77.354
-77.749
-78.064
-78.292
-78.428
-78.467
-78.406
-78.24
-77.967
-77.586
-77.096
-76.497
-75.793
-74.988
-74.088
-73.101
-72.038
-70.909
-69.727
-68.505
-67.259
-66.002
-64.748
-63.51
-62.304
-61.144
-60.047
-59.032
-58.117
-57.318
-56.652
-56.135
-55.783
-55.608
-55.617
-55.815
-56.21
-56.811
-57.638
-58.709
-60.035
-61.626
-63.488
-65.615
-68
-70.62
-73.437
-76.408
-79.486
-82.629
-85.805
-88.978
-92.104
-95.131
-97.99
-100.617
-102.959
-104.967
-106.606
-107.874
-108.782
-109.385
-109.783
-110.06
-110.32
-110.687
-111.26
-112.173
-113.56
-115.52
-118.219
-121.886
-126.643
-132.52
-139.407
-146.939
-154.731
-162.442
-169.508
-175.26
-179.258
-181.308
-181.622
-180.935
-180.094
-179.822
-181.009
-184.714
-190.587
-196.866
-201.797
-202.664
-199.214
-194.628
-188.62
-178.841
-159.184
-116.827
-44.729
57.267
184.159
319.355
446.536
554.996
635.809
689.878
722.408
735.283
731.031
708.252
662.494
593.17
502.362
395.207
278.992
159.1
37.53
-85.437
-207.402
-322.199
-419.504
-489.004
-527.001
-537.779
-531.893
-520.233
-508.74
-497.992
-484.89
-467.253
-445.272
-420.067
-393.481
-366.432
-338.958
-311.593
-285.031
-259.979
-237.548
-219.138
-205.768
-198.143
-196.69
-201.14
-211.053
-226.098
-245.337
-267.355
-291.09
-315.527
-339.588
-362.408
-382.778
-399.377
-411.711
-419.801
-423.587
-423.295
-419.345
-412.345
-403.58
-394.368
-385.387
-377.011
-369.474
-362.756
-356.816
-351.403
-345.796
-339.399
-331.957
-323.347
-313.647
-303.018
-291.534
-279.379
-266.894
-254.299
-241.703
-229.157
-216.583
-203.919
-191.158
-178.254
-165.15
-151.814
-138.218
-124.366
-110.299
-96.043
-81.618
-67.049
-52.351
-37.554
-22.697
-7.806
7.09
21.963
36.792
51.551
66.216
80.765
95.173
109.417
123.477
137.33
150.954
164.326
177.423
190.224
202.712
214.866
226.669
238.101
249.141
259.771
269.974
279.731
289.025
297.843
306.17
313.996
321.31
328.106
334.376
340.115
345.318
349.983
354.108
357.693
360.74
363.251
365.232
366.688
367.629
368.064
368.005
367.464
366.457
364.999
363.107
360.799
358.096
355.018
351.586
347.824
343.755
339.403
334.794
329.951
324.901
319.669
314.28
308.758
303.128
297.414
291.64
285.828
280
274.179
268.385
262.637
256.954
251.354
245.852
240.463
235.201
230.076
225.1
220.282
215.629
211.146
206.839
202.71
198.762
194.992
191.402
187.986
184.741
181.661
178.74
175.97
173.342
170.846
168.473
166.211
164.049
161.976
159.979
158.045
156.163
154.32
152.503
150.702
148.903
147.097
145.272
143.419
141.529
139.593
137.605
135.557
133.445
131.263
129.009
126.679
124.273
121.79
119.232
116.602
113.901
111.137
108.313
105.437
102.515
99.557
96.572
93.567
90.554
87.543
84.544
81.569
78.629
75.735
72.9
70.135
67.451
64.86
62.372
59.999
57.749
55.631
53.656
51.83
50.162
48.658
47.323
46.163
45.182
44.381
43.762
43.324
43.065
42.982
43.073
43.331
43.75
44.322
45.04
45.893
46.87
47.961
49.152
50.429
51.776
53.178
54.618
56.075
57.532
58.967
60.356
61.677
62.905
64.016
64.989
65.804
66.443
66.886
67.118
67.121
66.884
66.394
65.64
64.607
63.287
61.675
59.774
57.596
55.154
52.457
49.505
46.295
42.824
39.095
35.115
30.885
26.409
21.7
16.792
11.745
6.619
1.463
-3.694
-8.849
-13.99
-19.061
-23.991
-28.685
-33.044
-37.034
-40.606
-43.661
-46.195
-48.262
-49.983
-51.681
-53.66
-56.002
-58.789
-62.054
-65.557
-69.161
-72.75
-75.827
-78.017
-79.213
-79.185
-78.039
-76.408
-74.579
-72.715
-71.428
-71.104
-72.203
-75.655
-81.677
-89.931
-100.574
-113.625
-128.708
-144.663
-158.622
-167.367
-169.279
-165.576
-158.688
-148.372
-130.088
-94.451
-32.447
57.795
170.69
293.719
413.366
521.296
613.574
689.366
747.605
785.277
798.355
784.36
744.252
679.289
591.735
484.193
357.676
218.751
78.078
-54.36
-167.539
-257.547
-327.896
-381.763
-423.896
-456.43
-477.263
-486.229
-483.853
-471.569
-452.885
-430.463
-405.894
-379.948
-352.58
-324.033
-295.144
-267.225
-241.528
-218.577
-198.483
-181.574
-168.178
-158.338
-151.661
-146.959
-142.847
-138.679
-134.269
-129.502
-124.379
-118.938
-113.37
-108.42
-104.975
-103.416
-103.752
-105.754
-109.026
-113.268
-118.174
-123.211
-127.777
-131.435
-133.937
-135.228
-135.379
-134.43
-132.407
-129.378
-125.452
-120.76
-115.428
-109.562
-103.245
-96.558
-89.608
-82.528
-75.452
-68.512
-61.798
-55.353
-49.205
-43.368
-37.848
-32.639
-27.719
-23.047
-18.585
-14.3
-10.165
-6.157
-2.245
1.611
5.453
9.323
13.25
17.246
21.316
25.464
29.686
33.976
38.319
42.693
47.08
51.464
55.833
60.175
64.475
68.714
72.875
76.939
80.887
84.704
88.373
91.877
95.202
98.334
101.261
103.972
106.457
108.704
110.703
112.444
113.918
115.118
116.039
116.675
117.024
117.085
116.859
116.349
115.558
114.492
113.158
111.563
109.717
107.63
105.313
102.78
100.043
97.117
94.017
90.758
87.357
83.831
80.197
76.472
72.675
68.822
64.932
61.021
57.107
53.204
49.33
45.498
41.721
38.014
34.388
30.854
27.422
24.1
20.897
17.818
14.869
12.055
9.38
6.845
4.454
2.206
0.103
-1.857
-3.674
-5.35
-6.888
-8.29
-9.561
-10.705
-11.726
-12.629
-13.421
-14.107
-14.693
-15.186
-15.593
-15.921
-16.175
-16.364
-16.493
-16.569
-16.598
-16.586
-16.54
-16.464
-16.365
-16.247
-16.117
-15.977
-15.833
-15.689
-15.547
-15.413
-15.288
-15.175
-15.078
-14.998
-14.937
-14.898
-14.882
-14.888
-14.917
-14.97
-15.044
-15.139
-15.253
-15.384
-15.529
-15.686
-15.851
-16.021
-16.192
-16.36
-16.52
-16.668
-16.798
-16.906
-16.985
-17.029
-17.034
-16.993
-16.902
-16.754
-16.546
-16.271
-15.925
-15.503
-15.001
-14.414
-13.738
-12.971
-12.108
-11.148
-10.091
-8.935
-7.68
-6.329
-4.883
-3.346
-1.72
-0.011
1.777
3.637
5.56
7.54
9.566
11.627
13.711
15.802
17.885
19.941
21.956
23.909
25.783
27.559
29.221
30.755
32.144
33.376
34.434
35.304
35.969
36.416
36.634
36.613
36.344
35.82
35.038
34.002
32.718
31.189
29.415
27.384
25.09
22.535
19.724
16.67
13.389
9.903
6.248
2.479
-1.345
-5.165
-8.93
-12.601
-16.133
-19.471
-22.547
-25.281
-27.598
-29.441
-30.768
-31.549
-31.776
-31.466
-30.676
-29.502
-28.061
-26.478
-24.88
-23.402
-22.189
-21.366
-21.113
-21.665
-23.201
-25.829
-29.496
-33.917
-38.759
-43.724
-48.342
-51.999
-54.169
-54.46
-52.953
-50.416
-47.651
-45.246
-44.08
-45.13
-48.93
-55.851
-64.63
-71.812
-75.183
-73.252
-65.08
-51.698
-30.07
6.094
61.873
142.55
246.594
365.238
488.777
605.509
707.774
793.601
862.565
915.815
950.898
961.331
939.449
878.184
777.04
641.904
481.623
307.327
129.387
-43.089
-198.931
-327.516
-423.48
-486.793
-524.353
-547.031
-561.595
-570.386
-572.513
-565.387
-549.406
-527.331
-502.381
-477.252
-452.852
-429.696
-408.172
-388.561
-371.702
-357.775
-346.354
-337.71
-332.084
-329.073
-328.41
-329.034
-329.056
-327.689
-324.836
-320.097
-313.391
-304.789
-294.08
-282.1
-270.591
-260.446
-252.014
-245.558
-240.92
-238.137
-237.619
-239.046
-241.437
-244.147
-246.727
-248.915
-250.785
-252.206
-252.785
-252.393
-251.184
-249.289
-246.874
-244.026
-240.664
-236.781
-232.464
-227.76
-222.717
-217.384
-211.771
-205.907
-199.872
-193.744
-187.615
-181.594
-175.735
-170.06
-164.584
-159.302
-154.209
-149.304
-144.566
-139.958
-135.447
-131.004
-126.606
-122.243
-117.89
-113.515
-109.076
-104.53
-99.852
-95.031
-90.062
-84.947
-79.689
-74.295
-68.784
-63.183
-57.517
-51.805
-46.066
-40.315
-34.574
-28.868
-23.224
-17.667
-12.223
-6.915
-1.764
3.205
7.974
12.524
16.839
20.907
24.716
28.252
31.505
34.464
37.12
39.468
41.504
43.224
44.627
45.717
46.497
46.974
47.158
47.057
46.685
46.054
45.181
44.081
42.771
41.271
39.598
37.775
35.821
33.757
31.606
29.387
27.123
24.834
22.54
20.26
18.014
15.818
13.69
11.643
9.692
7.85
6.128
4.535
3.079
1.767
0.604
-0.405
-1.26
-1.958
-2.502
-2.891
-3.129
-3.219
-3.168
-2.98
-2.662
-2.221
-1.666
-1.005
-0.248
0.597
1.519
2.509
3.556
4.65
5.782
6.94
8.116
9.3
10.483
11.658
12.815
13.948
15.05
16.116
17.139
18.116
19.041
19.913
20.727
21.482
22.176
22.806
23.373
23.874
24.311
24.682
24.988
25.23
25.408
25.523
25.577
25.571
25.505
25.383
25.205
24.974
24.691
24.359
23.981
23.558
23.094
22.592
22.054
21.484
20.883
20.255
19.603
18.928
18.235
17.525
16.803
16.07
15.33
14.588
13.846
13.11
12.382
11.667
10.97
10.295
9.646
9.029
8.449
7.91
7.42
6.982
6.602
6.287
6.04
5.866
5.769
5.754
5.823
5.978
6.223
6.558
6.985
7.506
8.121
8.828
9.627
10.515
11.491
12.549
13.683
14.884
16.144
17.453
18.802
20.178
21.57
22.964
24.343
25.697
27.012
28.275
29.473
30.59
31.609
32.518
33.307
33.966
34.486
34.856
35.067
35.115
34.999
34.721
34.281
33.67
32.879
31.902
30.736
29.386
27.861
26.165
24.314
22.335
20.262
18.135
16.003
13.903
11.871
9.936
8.122
6.466
5.023
3.854
3.027
2.586
2.535
2.846
3.498
4.486
5.744
7.096
8.237
8.857
8.784
8.057
6.736
4.655
1.683
-2.087
-6.187
-9.834
-12.509
-14.225
-15.139
-15.046
-13.673
-10.953
-7.555
-4.979
-4.352
-6.207
-10.865
-18.646
-30.006
-44.377
-59.156
-70.924
-77.353
-78.663
-76.438
-70.326
-55.561
-23.099
34.395
119.523
228.67
351.558
479.333
603.208
713.989
806.049
871.899
907.962
916.427
898.967
859.616
800.077
718.97
618.203
500.873
372.346
240.487
111.161
-10.574
-119.748
-213.217
-288.711
-344.726
-381.879
-401.666
-405.426
-395.56
-375.124
-347.036
-314.471
-280.272
-246.047
-213.241
-183.646
-158.409
-138.215
-123.214
-112.65
-105.632
-101.693
-100.05
-99.445
-98.615
-96.276
-91.765
-85.26
-77.122
-67.685
-57.476
-47.165
-37.578
-29.68
-23.969
-20.424
-18.86
-18.945
-20.335
-22.727
-25.703
-28.746
-31.504
-33.779
-35.456
-36.518
-36.911
-36.563
-35.471
-33.671
-31.223
-28.194
-24.635
-20.593
-16.133
-11.321
-6.225
-0.918
4.54
10.079
15.63
21.12
26.462
31.59
36.46
41.047
45.348
49.374
53.135
56.652
59.955
63.07
66.022
68.831
71.509
74.076
76.553
78.967
81.352
83.733
86.125
88.537
90.97
93.42
95.884
98.349
100.797
103.209
105.572
107.871
110.098
112.24
114.28
116.202
117.988
119.621
121.085
122.366
123.447
124.315
124.957
125.363
125.527
125.44
125.094
124.484
123.602
122.444
121.007
119.29
117.291
115.012
112.455
109.626
106.533
103.183
99.586
95.756
91.704
87.446
82.999
78.379
73.605
68.697
63.673
58.557
53.369
48.131
42.865
37.595
32.342
27.128
21.975
16.903
11.932
7.081
2.368
-2.192
-6.583
-10.79
-14.803
-18.608
-22.197
-25.562
-28.695
-31.591
-34.247
-36.661
-38.833
-40.763
-42.454
-43.909
-45.135
-46.138
-46.924
-47.503
-47.883
-48.077
-48.094
-47.948
-47.65
-47.214
-46.653
-45.981
-45.211
-44.357
-43.431
-42.447
-41.416
-40.351
-39.262
-38.159
-37.054
-35.954
-34.868
-33.805
-32.771
-31.772
-30.814
-29.901
-29.038
-28.228
-27.472
-26.774
-26.134
-25.553
-25.031
-24.567
-24.161
-23.812
-23.517
-23.275
-23.083
-22.939
-22.84
-22.783
-22.766
-22.787
-22.842
-22.93
-23.049
-23.197
-23.374
-23.578
-23.807
-24.063
-24.344
-24.651
-24.983
-25.341
-25.726
-26.139
-26.58
-27.05
-27.551
-28.083
-28.647
-29.244
-29.874
-30.537
-31.233
-31.962
-32.724
-33.517
-34.34
-35.191
-36.069
-36.971
-37.894
-38.834
-39.788
-40.752
-41.719
-42.686
-43.645
-44.591
-45.517
-46.416
-47.281
-48.106
-48.883
-49.605
-50.264
-50.854
-51.367
-51.797
-52.137
-52.381
-52.524
-52.561
-52.49
-52.306
-52.009
-51.595
-51.066
-50.421
-49.662
-48.792
-47.814
-46.733
-45.556
-44.29
-42.945
-41.531
-40.06
-38.545
-37.001
-35.444
-33.893
-32.365
-30.883
-29.466
-28.137
-26.913
-25.815
-24.859
-24.063
-23.441
-23.008
-22.776
-22.756
-22.96
-23.399
-24.077
-24.998
-26.152
-27.53
-29.122
-30.918
-32.913
-35.106
-37.489
-40.053
-42.796
-45.711
-48.787
-52.003
-55.308
-58.659
-62.013
-65.339
-68.634
-71.883
-75.05
-78.097
-80.956
-83.561
-85.874
-87.82
-89.292
-90.269
-90.785
-90.97
-91.106
-91.408
-92.003
-93.087
-94.775
-96.955
-99.406
-101.682
-103.13
-103.366
-102.117
-98.954
-93.76
-86.811
-78.597
-70.031
-62.184
-55.671
-51.114
-49.536
-51.572
-57.269
-66.551
-78.802
-92.95
-108.448
-123.714
-135.288
-141.185
-140.467
-132.954
-120.961
-102.844
-72.699
-25.221
45.217
137.555
243.564
354.984
462.799
561.737
650.577
726.269
785.83
825.601
840.803
829.491
791.423
727.135
639.582
532.875
411.504
281.34
148.423
17.914
-104.821
-214.749
-308.313
-383.051
-437.685
-472.864
-490.161
-491.267
-478.92
-456.422
-426.79
-392.986
-357.623
-322.225
-287.823
-255.538
-225.865
-198.788
-174.372
-152.475
-132.69
-114.96
-99.291
-85.332
-72.851
-61.754
-51.68
-42.268
-33.514
-25.367
-17.799
-11.001
-5.095
-0.189
3.41
5.346
5.55
4.128
1.3
-2.592
-7.244
-12.334
-17.442
-22.087
-25.904
-28.711
-30.44
-31.125
-30.817
-29.555
-27.42
-24.545
-21.064
-17.09
-12.731
-8.053
-3.129
1.92
6.975
11.914
16.606
20.979
24.995
28.623
31.863
34.731
37.246
39.45
41.398
43.131
44.69
46.11
47.417
48.65
49.855
51.078
52.37
53.765
55.281
56.933
58.727
60.659
62.726
64.912
67.194
69.556
71.982
74.458
76.973
79.513
82.058
84.59
87.087
89.532
91.905
94.188
96.362
98.411
100.319
102.071
103.655
105.058
106.267
107.267
108.047
108.595
108.899
108.952
108.744
108.269
107.524
106.506
105.216
103.656
101.829
99.74
97.397
94.809
91.984
88.936
85.676
82.217
78.575
74.766
70.805
66.709
62.497
58.187
53.797
49.345
44.851
40.334
35.81
31.299
26.818
22.383
18.012
13.721
9.524
5.435
1.468
-2.365
-6.054
-9.589
-12.962
-16.166
-19.197
-22.051
-24.724
-27.217
-29.527
-31.658
-33.61
-35.386
-36.989
-38.425
-39.699
-40.816
-41.784
-42.608
-43.297
-43.858
-44.3
-44.63
-44.859
-44.993
-45.043
-45.016
-44.923
-44.771
-44.57
-44.329
-44.054
-43.756
-43.44
-43.114
-42.785
-42.459
-42.139
-41.832
-41.54
-41.267
-41.016
-40.788
-40.585
-40.408
-40.257
-40.133
-40.036
-39.964
-39.917
-39.894
-39.893
-39.913
-39.952
-40.008
-40.079
-40.163
-40.258
-40.361
-40.47
-40.582
-40.695
-40.806
-40.913
-41.013
-41.103
-41.183
-41.249
-41.299
-41.334
-41.351
-41.35
-41.33
-41.291
-41.233
-41.156
-41.062
-40.95
-40.821
-40.677
-40.518
-40.346
-40.162
-39.967
-39.763
-39.549
-39.328
-39.101
-38.867
-38.629
-38.386
-38.139
-37.89
-37.639
-37.385
-37.13
-36.873
-36.614
-36.353
-36.089
-35.821
-35.547
-35.267
-34.978
-34.678
-34.366
-34.04
-33.695
-33.33
-32.943
-32.528
-32.084
-31.607
-31.094
-30.541
-29.946
-29.307
-28.619
-27.882
-27.093
-26.251
-25.355
-24.405
-23.398
-22.337
-21.22
-20.051
-18.831
-17.562
-16.248
-14.895
-13.51
-12.102
-10.678
-9.249
-7.825
-6.417
-5.037
-3.696
-2.405
-1.174
-0.014
1.064
2.047
2.922
3.675
4.296
4.774
5.099
5.263
5.26
5.087
4.742
4.226
3.535
2.66
1.592
0.327
-1.14
-2.807
-4.665
-6.699
-8.888
-11.196
-13.586
-16.02
-18.457
-20.869
-23.219
-25.466
-27.573
-29.487
-31.158
-32.554
-33.616
-34.301
-34.605
-34.535
-34.142
-33.535
-32.746
-31.814
-30.911
-30.177
-29.794
-29.977
-30.719
-32.031
-34.171
-37.312
-41.367
-46.154
-51.127
-55.661
-59.665
-62.921
-64.846
-65.077
-63.543
-60.608
-57.46
-55.263
-54.514
-55.925
-60.31
-68.022
-78.124
-87.846
-93.731
-93.26
-87.532
-79.164
-68.048
-50.606
-16.535
45.381
139.046
261.47
398.159
529.925
643.233
728.746
786.623
822.463
838.664
836.861
815.741
772.6
706.99
619.554
512.39
388.161
253.263
117.384
-10.134
-119.255
-206.114
-273.659
-324.846
-364.063
-393.044
-409.37
-412.484
-402.979
-382.902
-356.31
-326.186
-294.479
-262.447
-230.652
-200.075
-171.634
-145.81
-123.055
-103.331
-86.252
-71.81
-59.879
-49.822
-41.111
-33.152
-25.164
-16.992
-8.836
-0.682
7.322
14.843
21.657
27.315
31.223
33.259
33.565
32.325
29.871
26.502
22.452
18.145
14.08
10.593
7.919
6.155
5.272
5.27
6.139
7.816
10.201
13.178
16.626
20.45
24.587
28.973
33.539
38.181
42.791
47.263
51.492
55.414
58.994
62.197
65.018
67.468
69.566
71.352
72.877
74.179
75.295
76.255
77.085
77.822
78.51
79.189
79.907
80.696
81.575
82.563
83.669
84.894
86.239
87.693
89.237
90.86
92.551
94.298
96.093
97.924
99.776
101.633
103.477
105.292
107.06
108.766
110.392
111.922
113.341
114.634
115.789
116.792
117.631
118.289
118.755
119.014
119.057
118.872
118.449
117.78
116.858
115.68
114.243
112.545
110.586
108.369
105.895
103.172
100.203
96.999
93.567
89.917
86.062
82.013
77.785
73.392
68.849
64.173
59.38
54.488
49.515
44.479
39.398
34.29
29.173
24.065
18.982
13.942
8.96
4.052
-0.767
-5.483
-10.083
-14.554
-18.885
-23.067
-27.09
-30.946
-34.627
-38.129
-41.446
-44.573
-47.509
-50.249
-52.795
-55.144
-57.298
-59.258
-61.026
-62.605
-64
-65.214
-66.254
-67.124
-67.831
-68.381
-68.781
-69.037
-69.157
-69.147
-69.016
-68.77
-68.416
-67.964
-67.419
-66.789
-66.081
-65.303
-64.461
-63.562
-62.611
-61.615
-60.581
-59.512
-58.416
-57.297
-56.161
-55.012
-53.854
-52.693
-51.531
-50.373
-49.222
-48.08
-46.952
-45.839
-44.746
-43.674
-42.626
-41.607
-40.617
-39.66
-38.739
-37.856
-37.013
-36.214
-35.459
-34.753
-34.096
-33.491
-32.941
-32.448
-32.013
-31.639
-31.328
-31.081
-30.901
-30.788
-30.743
-30.768
-30.864
-31.03
-31.269
-31.579
-31.963
-32.419
-32.947
-33.546
-34.214
-34.951
-35.753
-36.618
-37.544
-38.526
-39.561
-40.645
-41.775
-42.945
-44.151
-45.388
-46.651
-47.933
-49.228
-50.531
-51.834
-53.132
-54.417
-55.683
-56.924
-58.132
-59.302
-60.426
-61.497
-62.509
-63.456
-64.329
-65.122
-65.83
-66.445
-66.963
-67.379
-67.688
-67.886
-67.971
-67.939
-67.787
-67.514
-67.118
-66.596
-65.949
-65.176
-64.279
-63.257
-62.115
-60.854
-59.478
-57.992
-56.4
-54.707
-52.918
-51.04
-49.08
-47.046
-44.946
-42.79
-40.588
-38.355
-36.103
-33.848
-31.604
-29.387
-27.21
-25.091
-23.047
-21.094
-19.249
-17.526
-15.939
-14.503
-13.234
-12.147
-11.253
-10.56
-10.076
-9.807
-9.761
-9.945
-10.361
-11.002
-11.862
-12.934
-14.219
-15.717
-17.422
-19.325
-21.415
-23.676
-26.093
-28.646
-31.3
-34.016
-36.747
-39.439
-42.053
-44.56
-46.932
-49.153
-51.188
-52.981
-54.487
-55.649
-56.414
-56.789
-56.768
-56.328
-55.556
-54.569
-53.548
-52.834
-52.709
-53.256
-54.546
-56.577
-59.17
-62.239
-65.531
-68.367
-70.108
-70.361
-68.872
-65.766
-61.421
-55.904
-49.501
-43.131
-37.92
-35.027
-35.244
-38.701
-45.248
-55.011
-67.863
-82.013
-94.022
-100.322
-98.521
-89.631
-76.591
-59.194
-32.945
11.147
81.874
180.734
300.974
428.943
550.601
656.67
742.72
808.695
854.229
877.245
875.74
847.859
793.957
716.927
620.916
510.896
392.352
270.745
150.905
37.243
-66.601
-157.913
-234.665
-295.699
-341.03
-371.659
-389.031
-394.907
-390.893
-378.628
-359.96
-336.61
-310.118
-281.583
-251.697
-221.255
-191.486
-163.486
-138.208
-116.473
-98.519
-84.5
-74.626
-68.62
-65.619
-64.648
-64.544
-64.149
-62.969
-60.75
-57.283
-52.7
-47.402
-41.879
-36.803
-32.877
-30.341
-29.182
-29.333
-30.559
-32.584
-35.123
-37.781
-40.127
-41.929
-43.08
-43.511
-43.252
-42.331
-40.765
-38.649
-36.095
-33.187
-29.998
-26.579
-22.95
-19.16
-15.269
-11.321
-7.372
-3.471
0.336
3.975
7.392
10.562
13.472
16.135
18.565
20.778
22.796
24.651
26.37
27.982
29.509
30.964
32.369
33.749
35.131
36.554
38.044
39.616
41.281
43.043
44.901
46.855
48.895
51.004
53.168
55.372
57.607
59.865
62.133
64.397
66.64
68.846
70.997
73.078
75.073
76.966
78.741
80.384
81.883
83.228
84.407
85.411
86.227
86.845
87.256
87.452
87.425
87.169
86.679
85.952
84.987
83.784
82.345
80.674
78.774
76.654
74.319
71.78
69.045
66.125
63.031
59.776
56.373
52.836
49.179
45.418
41.567
37.643
33.662
29.641
25.594
21.539
17.491
13.465
9.478
5.544
1.677
-2.108
-5.8
-9.384
-12.849
-16.184
-19.379
-22.427
-25.318
-28.047
-30.607
-32.995
-35.205
-37.236
-39.085
-40.75
-42.231
-43.528
-44.642
-45.574
-46.327
-46.903
-47.306
-47.541
-47.612
-47.526
-47.289
-46.906
-46.386
-45.734
-44.961
-44.073
-43.079
-41.989
-40.81
-39.553
-38.226
-36.839
-35.399
-33.916
-32.398
-30.853
-29.288
-27.711
-26.13
-24.55
-22.978
-21.422
-19.886
-18.378
-16.903
-15.466
-14.071
-12.724
-11.429
-10.189
-9.009
-7.89
-6.836
-5.849
-4.932
-4.085
-3.31
-2.608
-1.978
-1.42
-0.934
-0.519
-0.175
0.101
0.308
0.448
0.522
0.53
0.474
0.354
0.172
-0.072
-0.377
-0.742
-1.166
-1.647
-2.186
-2.781
-3.432
-4.137
-4.895
-5.706
-6.569
-7.482
-8.445
-9.457
-10.517
-11.624
-12.778
-13.979
-15.226
-16.52
-17.86
-19.247
-20.68
-22.159
-23.683
-25.251
-26.863
-28.517
-30.212
-31.947
-33.718
-35.526
-37.366
-39.238
-41.138
-43.063
-45.012
-46.98
-48.965
-50.963
-52.971
-54.986
-57.005
-59.024
-61.041
-63.051
-65.05
-67.035
-69.002
-70.945
-72.861
-74.743
-76.589
-78.391
-80.147
-81.852
-83.5
-85.088
-86.613
-88.068
-89.452
-90.76
-91.988
-93.134
-94.193
-95.163
-96.041
-96.826
-97.516
-98.107
-98.6
-98.992
-99.282
-99.468
-99.55
-99.526
-99.396
-99.161
-98.822
-98.38
-97.837
-97.196
-96.46
-95.634
-94.721
-93.726
-92.654
-91.511
-90.302
-89.035
-87.718
-86.36
-84.97
-83.559
-82.139
-80.722
-79.322
-77.954
-76.633
-75.375
-74.197
-73.113
-72.137
-71.283
-70.563
-69.99
-69.574
-69.325
-69.25
-69.358
-69.656
-70.152
-70.846
-71.73
-72.797
-74.036
-75.439
-77.005
-78.731
-80.616
-82.66
-84.861
-87.218
-89.727
-92.374
-95.125
-97.934
-100.756
-103.555
-106.311
-109.015
-111.646
-114.163
-116.515
-118.636
-120.465
-121.963
-123.058
-123.66
-123.775
-123.482
-122.958
-122.515
-122.378
-122.666
-123.572
-125.235
-127.557
-130.367
-133.28
-135.638
-137.085
-137.402
-136.158
-133.177
-128.633
-122.761
-116.22
-110.077
-104.924
-101.331
-100.47
-103.205
-110.049
-121.689
-137.304
-154.252
-170.572
-184.2
-194.152
-203.345
-213.205
-220.922
-220.631
-200.807
-149.918
-64.8
52.611
194.654
346.832
497.273
633.322
740.718
814.169
852.097
857.999
842.429
810.447
763.317
700.663
618.899
518.91
405.877
285.86
166.054
52.091
-52.497
-144.629
-221.905
-282.863
-327.023
-355.177
-369.143
-370.992
-362.683
-346.446
-324.605
-299.319
-272.454
-245.087
-217.627
-190.677
-165.151
-141.753
-121.044
-103.128
-87.696
-74.787
-64.648
-57.036
-51.269
-46.478
-41.663
-36.4
-30.812
-24.876
-18.538
-11.946
-5.38
0.598
5.233
8.214
9.635
9.656
8.555
6.582
3.928
0.977
-1.752
-3.896
-5.23
-5.662
-5.241
-3.992
-1.911
0.95
4.502
8.642
13.259
18.262
23.596
29.203
35.028
40.989
46.977
52.888
58.614
64.085
69.263
74.116
78.625
82.781
86.588
90.067
93.256
96.184
98.873
101.341
103.599
105.671
107.593
109.4
111.132
112.819
114.475
116.115
117.752
119.39
121.031
122.667
124.284
125.874
127.431
128.951
130.431
131.866
133.247
134.565
135.811
136.975
138.05
139.027
139.898
140.654
141.291
141.802
142.186
142.439
142.556
142.531
142.359
142.037
141.561
140.926
140.13
139.169
138.044
136.755
135.302
133.688
131.916
129.989
127.914
125.694
123.336
120.849
118.239
115.516
112.689
109.769
106.766
103.692
100.559
97.378
94.161
90.921
87.67
84.42
81.181
77.966
74.785
71.649
68.568
65.552
62.61
59.752
56.985
54.316
51.753
49.301
46.966
44.751
42.66
40.695
38.86
37.155
35.58
34.136
32.822
31.635
30.574
29.635
28.815
28.108
27.511
27.017
26.621
26.318
26.101
25.964
25.9
25.904
25.967
26.084
26.248
26.452
26.689
26.953
27.237
27.536
27.843
28.152
28.459
28.758
29.045
29.313
29.56
29.781
29.972
30.129
30.25
30.331
30.371
30.367
30.316
30.219
30.073
29.876
29.629
29.33
28.979
28.574
28.117
27.605
27.04
26.421
25.749
25.024
24.246
23.417
22.537
21.606
20.625
19.596
18.519
17.394
16.225
15.01
13.753
12.454
11.116
9.74
8.329
6.883
5.406
3.9
2.368
0.811
-0.766
-2.361
-3.97
-5.59
-7.216
-8.846
-10.475
-12.099
-13.714
-15.317
-16.904
-18.471
-20.015
-21.531
-23.017
-24.469
-25.883
-27.256
-28.585
-29.868
-31.1
-32.281
-33.408
-34.478
-35.49
-36.444
-37.337
-38.169
-38.941
-39.65
-40.299
-40.888
-41.419
-41.892
-42.311
-42.677
-42.994
-43.264
-43.49
-43.675
-43.821
-43.933
-44.012
-44.061
-44.082
-44.079
-44.053
-44.006
-43.942
-43.86
-43.764
-43.655
-43.533
-43.4
-43.256
-43.101
-42.935
-42.757
-42.567
-42.364
-42.146
-41.912
-41.66
-41.387
-41.09
-40.766
-40.411
-40.022
-39.595
-39.126
-38.611
-38.049
-37.436
-36.771
-36.051
-35.276
-34.446
-33.559
-32.616
-31.619
-30.569
-29.469
-28.322
-27.133
-25.906
-24.65
-23.374
-22.087
-20.799
-19.521
-18.264
-17.043
-15.872
-14.765
-13.736
-12.796
-11.96
-11.241
-10.654
-10.214
-9.93
-9.809
-9.86
-10.089
-10.506
-11.119
-11.927
-12.923
-14.103
-15.46
-17.001
-18.732
-20.651
-22.752
-25.026
-27.46
-30.046
-32.773
-35.606
-38.508
-41.428
-44.309
-47.117
-49.819
-52.39
-54.81
-57.019
-58.944
-60.52
-61.68
-62.392
-62.665
-62.483
-61.815
-60.726
-59.336
-57.897
-56.796
-56.26
-56.332
-57.008
-58.286
-60.204
-62.76
-65.606
-67.943
-69.116
-68.855
-67.241
-64.538
-60.776
-55.93
-50.429
-45.509
-42.701
-43.009
-46.658
-53.426
-63.272
-76.174
-91.629
-107.125
-118.237
-121.293
-114.164
-98.215
-76.716
-50.186
-15.853
34.582
110.067
213.705
342.406
481.934
613.839
724.184
802.46
848.885
870.021
869.115
849.553
810.62
748.128
662.647
556.956
435.865
307.331
178.16
53.725
-60.955
-162.136
-247.176
-314.12
-362.437
-393.425
-409.274
-412.604
-406.268
-392.743
-374.293
-353.117
-330.751
-307.778
-284.309
-260.182
-235.317
-210.201
-185.336
-161.112
-138.187
-117.319
-99.21
-84.554
-73.654
-66.102
-61.346
-58.723
-57.311
-56.447
-55.687
-54.56
-52.877
-50.849
-48.72
-46.894
-45.951
-46.089
-47.266
-49.438
-52.383
-55.785
-59.379
-62.771
-65.48
-67.279
-68.086
-67.885
-66.787
-64.873
-62.189
-58.858
-55.022
-50.798
-46.302
-41.606
-36.746
-31.806
-26.88
-22.064
-17.473
-13.171
-9.182
-5.528
-2.209
0.788
3.472
5.875
8.043
10.012
11.817
13.488
15.042
16.513
17.937
19.355
20.814
22.348
23.974
25.709
27.56
29.531
31.624
33.83
36.135
38.525
40.993
43.529
46.127
48.777
51.466
54.178
56.899
59.611
62.301
64.952
67.55
70.08
72.526
74.876
77.119
79.242
81.231
83.074
84.756
86.265
87.589
88.718
89.64
90.348
90.835
91.094
91.123
90.92
90.485
89.817
88.921
87.801
86.461
84.91
83.156
81.208
79.077
76.775
74.316
71.712
68.978
66.129
63.18
60.147
57.046
53.892
50.702
47.491
44.276
41.071
37.893
34.755
31.671
28.656
25.722
22.88
20.141
17.514
15.008
12.628
10.382
8.274
6.306
4.48
2.799
1.26
-0.138
-1.396
-2.519
-3.511
-4.377
-5.124
-5.758
-6.285
-6.714
-7.051
-7.306
-7.486
-7.6
-7.657
-7.665
-7.634
-7.573
-7.49
-7.393
-7.292
-7.194
-7.106
-7.035
-6.988
-6.971
-6.988
-7.045
-7.145
-7.29
-7.484
-7.727
-8.02
-8.362
-8.753
-9.191
-9.673
-10.197
-10.759
-11.355
-11.982
-12.635
-13.311
-14.003
-14.707
-15.419
-16.133
-16.844
-17.546
-18.235
-18.904
-19.55
-20.165
-20.747
-21.289
-21.788
-22.238
-22.637
-22.98
-23.264
-23.486
-23.644
-23.735
-23.759
-23.714
-23.601
-23.421
-23.174
-22.861
-22.486
-22.051
-21.557
-21.01
-20.411
-19.766
-19.077
-18.351
-17.59
-16.8
-15.987
-15.155
-14.31
-13.457
-12.603
-11.754
-10.914
-10.091
-9.291
-8.52
-7.785
-7.092
-6.448
-5.858
-5.33
-4.869
-4.48
-4.17
-3.942
-3.802
-3.752
-3.798
-3.941
-4.183
-4.527
-4.974
-5.523
-6.177
-6.932
-7.789
-8.746
-9.801
-10.95
-12.191
-13.519
-14.929
-16.418
-17.977
-19.602
-21.285
-23.018
-24.793
-26.6
-28.432
-30.277
-32.127
-33.97
-35.795
-37.593
-39.353
-41.063
-42.713
-44.292
-45.792
-47.202
-48.514
-49.72
-50.814
-51.788
-52.638
-53.359
-53.948
-54.402
-54.719
-54.901
-54.946
-54.858
-54.64
-54.296
-53.833
-53.262
-52.591
-51.834
-51.003
-50.114
-49.183
-48.226
-47.26
-46.3
-45.361
-44.459
-43.612
-42.836
-42.151
-41.572
-41.115
-40.796
-40.627
-40.622
-40.788
-41.129
-41.647
-42.343
-43.224
-44.306
-45.601
-47.116
-48.857
-50.822
-53.004
-55.394
-57.971
-60.695
-63.527
-66.42
-69.333
-72.239
-75.1
-77.876
-80.51
-82.928
-85.057
-86.836
-88.219
-89.172
-89.683
-89.757
-89.431
-88.774
-87.875
-86.847
-85.797
-84.824
-84.038
-83.53
-83.453
-84.059
-85.548
-88.031
-91.489
-95.695
-100.368
-105.261
-109.937
-113.751
-116.161
-116.8
-115.715
-113.528
-111.043
-109.107
-108.759
-111.222
-116.633
-123.837
-131.406
-136.907
-140.534
-145.152
-149.998
-152.319
-143.657
-110.374
-46.896
47.007
164.955
292.522
421.56
544.747
653.676
744.209
807.97
840.251
843.844
821.81
779.629
719.154
635.809
526.529
392.806
243.123
93.668
-40.138
-149.97
-235.064
-301.969
-357.828
-405.37
-443.709
-469.214
-479.369
-474.648
-457.771
-432.787
-402.97
-370.453
-336.39
-301.212
-265.983
-232.334
-201.572
-174.756
-152.228
-133.592
-118.754
-107.753
-100.002
-94.457
-89.851
-84.777
-78.586
-71.365
-63.13
-53.988
-44.319
-34.637
-25.77
-18.694
-13.817
-11.086
-10.339
-11.249
-13.51
-16.842
-20.743
-24.647
-28.201
-31.198
-33.554
-35.273
-36.283
-36.515
-35.987
-34.753
-32.894
-30.484
-27.561
-24.162
-20.34
-16.161
-11.714
-7.078
-2.308
2.534
7.39
12.195
16.859
21.322
25.564
29.571
33.353
36.927
40.302
43.499
46.554
49.497
52.356
55.157
57.91
60.635
63.353
66.091
68.882
71.746
74.689
77.713
80.814
83.982
87.208
90.475
93.756
97.031
100.28
103.487
106.639
109.719
112.709
115.589
118.338
120.94
123.377
125.632
127.691
129.538
131.163
132.554
133.704
134.607
135.253
135.637
135.752
135.595
135.162
134.453
133.466
132.205
130.672
128.874
126.818
124.514
121.97
119.199
116.212
113.025
109.65
106.103
102.399
98.554
94.586
90.51
86.345
82.107
77.814
73.484
69.134
64.783
60.446
56.14
51.882
47.686
43.568
39.541
35.619
31.813
28.135
24.595
21.202
17.964
14.888
11.98
9.243
6.682
4.298
2.092
0.066
-1.782
-3.452
-4.948
-6.27
-7.424
-8.412
-9.239
-9.91
-10.43
-10.807
-11.046
-11.155
-11.142
-11.013
-10.778
-10.445
-10.022
-9.518
-8.942
-8.303
-7.609
-6.869
-6.092
-5.285
-4.456
-3.613
-2.763
-1.913
-1.068
-0.235
0.582
1.377
2.146
2.885
3.59
4.258
4.885
5.47
6.009
6.502
6.945
7.339
7.683
7.976
8.218
8.411
8.554
8.649
8.698
8.701
8.663
8.583
8.465
8.312
8.126
7.91
7.666
7.398
7.106
6.795
6.466
6.12
5.76
5.388
5.003
4.608
4.204
3.791
3.369
2.941
2.505
2.062
1.612
1.154
0.689
0.215
-0.268
-0.76
-1.263
-1.777
-2.304
-2.844
-3.399
-3.969
-4.557
-5.164
-5.79
-6.437
-7.106
-7.797
-8.512
-9.249
-10.009
-10.792
-11.597
-12.421
-13.265
-14.126
-15.001
-15.89
-16.788
-17.693
-18.601
-19.508
-20.411
-21.304
-22.185
-23.046
-23.884
-24.694
-25.471
-26.209
-26.905
-27.553
-28.148
-28.685
-29.16
-29.568
-29.906
-30.167
-30.35
-30.451
-30.466
-30.395
-30.236
-29.987
-29.649
-29.222
-28.708
-28.109
-27.428
-26.668
-25.835
-24.935
-23.974
-22.96
-21.901
-20.808
-19.694
-18.571
-17.453
-16.355
-15.293
-14.281
-13.337
-12.474
-11.707
-11.046
-10.505
-10.096
-9.834
-9.732
-9.805
-10.062
-10.515
-11.172
-12.041
-13.126
-14.424
-15.93
-17.642
-19.558
-21.687
-24.038
-26.609
-29.398
-32.398
-35.592
-38.958
-42.467
-46.068
-49.711
-53.348
-56.933
-60.437
-63.826
-67.057
-70.08
-72.829
-75.235
-77.252
-78.837
-79.952
-80.596
-80.791
-80.589
-80.089
-79.371
-78.519
-77.63
-76.805
-76.158
-75.807
-75.852
-76.441
-77.799
-80.08
-83.312
-87.325
-91.707
-96.023
-99.866
-102.712
-103.964
-103.153
-100.134
-95.46
-90.207
-85.375
-82.006
-81.079
-83.208
-88.941
-97.358
-105.18
-109.866
-109.448
-102.845
-91.72
-73.32
-40.956
10.826
87.716
187.666
300.281
415.69
523.738
617.819
696.502
757.294
797.512
814.585
805.645
770.042
708.748
624.236
520.709
402.94
276.575
147.635
21.202
-97.979
-205.381
-297.544
-371.96
-427.186
-463.674
-483.075
-486.917
-477.067
-455.944
-426.007
-390.094
-351.055
-310.617
-269.832
-230.186
-193.256
-160.354
-132.618
-110.208
-92.551
-79.471
-70.824
-65.866
-63.456
-62.159
-60.462
-57.714
-53.964
-49.2
-43.515
-37.234
-30.879
-25.3
-21.441
-19.69
-19.947
-21.954
-25.343
-29.746
-34.779
-39.898
-44.486
-48.122
-50.623
-51.961
-52.208
-51.431
-49.67
-47.001
-43.562
-39.483
-34.882
-29.868
-24.507
-18.868
-13.064
-7.211
-1.431
4.152
9.464
14.472
19.147
23.479
27.473
31.134
34.492
37.591
40.467
43.155
45.685
48.078
50.365
52.587
54.782
56.995
59.251
61.562
63.937
66.379
68.885
71.45
74.06
76.695
79.338
81.975
84.595
87.188
89.74
92.235
94.657
96.988
99.213
101.318
103.286
105.104
106.758
108.235
109.524
110.617
111.503
112.173
112.617
112.824
112.787
112.5
111.956
111.151
110.083
108.749
107.151
105.292
103.175
100.805
98.19
95.336
92.252
88.949
85.437
81.729
77.837
73.775
69.557
65.199
60.716
56.126
51.444
46.688
41.876
37.025
32.152
27.275
22.411
17.577
12.788
8.062
3.411
-1.148
-5.604
-9.944
-14.157
-18.232
-22.161
-25.936
-29.55
-32.998
-36.275
-39.377
-42.301
-45.045
-47.609
-49.992
-52.194
-54.217
-56.063
-57.735
-59.235
-60.569
-61.74
-62.756
-63.62
-64.342
-64.926
-65.381
-65.715
-65.936
-66.052
-66.072
-66.004
-65.857
-65.638
-65.357
-65.021
-64.638
-64.215
-63.759
-63.277
-62.775
-62.26
-61.736
-61.21
-60.685
-60.167
-59.66
-59.167
-58.691
-58.237
-57.805
-57.399
-57.02
-56.669
-56.346
-56.052
-55.787
-55.549
-55.337
-55.15
-54.985
-54.841
-54.714
-54.602
-54.501
-54.409
-54.322
-54.236
-54.148
-54.055
-53.954
-53.841
-53.715
-53.571
-53.407
-53.222
-53.012
-52.776
-52.513
-52.22
-51.896
-51.541
-51.153
-50.734
-50.283
-49.8
-49.288
-48.746
-48.177
-47.582
-46.965
-46.328
-45.675
-45.008
-44.332
-43.65
-42.968
-42.288
-41.616
-40.956
-40.314
-39.692
-39.096
-38.53
-37.997
-37.503
-37.049
-36.639
-36.276
-35.963
-35.701
-35.493
-35.339
-35.24
-35.197
-35.209
-35.275
-35.395
-35.567
-35.788
-36.056
-36.368
-36.719
-37.105
-37.521
-37.963
-38.424
-38.898
-39.38
-39.862
-40.338
-40.8
-41.242
-41.657
-42.038
-42.377
-42.668
-42.904
-43.081
-43.191
-43.231
-43.195
-43.081
-42.884
-42.604
-42.237
-41.782
-41.24
-40.61
-39.894
-39.095
-38.216
-37.261
-36.236
-35.153
-34.02
-32.848
-31.648
-30.432
-29.213
-28.007
-26.828
-25.688
-24.601
-23.577
-22.632
-21.779
-21.035
-20.411
-19.914
-19.554
-19.336
-19.269
-19.361
-19.614
-20.025
-20.591
-21.311
-22.194
-23.249
-24.482
-25.891
-27.468
-29.202
-31.082
-33.094
-35.206
-37.38
-39.574
-41.737
-43.831
-45.819
-47.669
-49.35
-50.819
-52.019
-52.886
-53.359
-53.404
-53.018
-52.238
-51.091
-49.58
-47.78
-45.882
-44.192
-43.048
-42.64
-42.92
-43.853
-45.625
-48.333
-51.835
-55.567
-58.582
-60.26
-60.611
-59.777
-57.557
-53.816
-48.69
-43.119
-39.031
-37.915
-40.191
-46.014
-55.679
-69.031
-85.606
-103.036
-116.373
-122.281
-118.921
-105.707
-84.483
-53.637
-8.843
53.579
138.499
246.16
370.819
504.064
632.227
740.765
819.79
864.01
875.269
860.838
826.778
776.485
710.382
626.569
525.609
411.435
289.94
168.192
51.983
-54.616
-148.312
-226.815
-288.656
-333.16
-361.052
-374.013
-373.931
-363.132
-344.23
-319.618
-291.625
-262.396
-233.172
-204.753
-178.129
-153.848
-132.152
-113.396
-97.405
-83.674
-72.138
-62.641
-54.558
-47.45
-40.78
-33.792
-26.344
-18.637
-10.67
-2.631
5.093
12.256
18.392
22.881
25.581
26.596
26.055
24.247
21.426
17.768
13.634
9.484
5.597
2.159
-0.731
-3.063
-4.757
-5.732
-5.988
-5.581
-4.59
-3.093
-1.137
1.254
4.039
7.166
10.568
14.169
17.92
21.771
25.667
29.548
33.327
36.942
40.368
43.599
46.646
49.527
52.25
54.832
57.303
59.685
62.005
64.28
66.52
68.738
70.953
73.189
75.48
77.847
80.297
82.832
85.446
88.131
90.877
93.669
96.481
99.29
102.079
104.83
107.53
110.165
112.713
115.155
117.471
119.641
121.649
123.478
125.112
126.536
127.739
128.712
129.447
129.938
130.178
130.161
129.881
129.335
128.52
127.436
126.083
124.462
122.577
120.435
118.042
115.408
112.544
109.46
106.17
102.688
99.029
95.21
91.246
87.156
82.957
78.668
74.307
69.894
65.447
60.984
56.523
52.083
47.679
43.329
39.047
34.847
30.744
26.75
22.877
19.136
15.535
12.084
8.79
5.659
2.697
-0.093
-2.708
-5.147
-7.41
-9.495
-11.406
-13.145
-14.715
-16.119
-17.364
-18.454
-19.396
-20.196
-20.862
-21.401
-21.822
-22.132
-22.34
-22.453
-22.479
-22.427
-22.303
-22.116
-21.873
-21.58
-21.244
-20.871
-20.467
-20.037
-19.586
-19.118
-18.637
-18.146
-17.649
-17.147
-16.644
-16.14
-15.638
-15.139
-14.643
-14.151
-13.664
-13.183
-12.705
-12.232
-11.763
-11.297
-10.833
-10.371
-9.911
-9.451
-8.991
-8.531
-8.071
-7.611
-7.151
-6.691
-6.232
-5.775
-5.321
-4.872
-4.431
-3.998
-3.577
-3.172
-2.784
-2.418
-2.076
-1.762
-1.48
-1.233
-1.025
-0.858
-0.736
-0.663
-0.643
-0.677
-0.77
-0.924
-1.143
-1.427
-1.78
-2.203
-2.698
-3.266
-3.908
-4.625
-5.416
-6.282
-7.222
-8.235
-9.318
-10.47
-11.687
-12.965
-14.3
-15.686
-17.119
-18.592
-20.1
-21.635
-23.191
-24.761
-26.338
-27.913
-29.478
-31.026
-32.548
-34.036
-35.48
-36.872
-38.205
-39.47
-40.66
-41.766
-42.782
-43.7
-44.513
-45.215
-45.798
-46.257
-46.587
-46.783
-46.842
-46.761
-46.539
-46.175
-45.669
-45.023
-44.239
-43.321
-42.273
-41.1
-39.809
-38.407
-36.903
-35.306
-33.627
-31.881
-30.082
-28.246
-26.39
-24.532
-22.69
-20.883
-19.131
-17.452
-15.86
-14.373
-13.008
-11.78
-10.709
-9.812
-9.106
-8.603
-8.319
-8.265
-8.453
-8.889
-9.573
-10.505
-11.684
-13.117
-14.816
-16.794
-19.052
-21.59
-24.402
-27.475
-30.793
-34.326
-38.025
-41.838
-45.712
-49.598
-53.464
-57.268
-60.96
-64.48
-67.748
-70.692
-73.258
-75.402
-77.092
-78.32
-79.095
-79.466
-79.521
-79.357
-79.094
-78.853
-78.746
-78.893
-79.391
-80.383
-82.097
-84.706
-88.298
-92.796
-97.918
-103.361
-108.874
-114.036
-118.246
-120.963
-121.766
-120.793
-118.808
-116.451
-114.398
-113.554
-114.73
-118.744
-125.311
-132.175
-136.587
-136.737
-133.327
-128.181
-120.145
-104.011
-69.814
-8.871
79.146
188.976
309.455
429.441
544.775
650.338
740.299
808.864
846.514
849.487
820.988
765.155
688.92
597.076
490.6
372.719
247.82
121.322
0.31
-109.627
-204.662
-282.189
-341.259
-382.277
-406.569
-415.944
-412.514
-398.862
-377.857
-352.453
-325.244
-297.784
-270.99
-245.789
-223.269
-204.242
-188.774
-176.234
-165.771
-156.951
-149.579
-143.242
-137.01
-129.781
-121.071
-111.063
-100.281
-89.21
-78.185
-67.544
-57.939
-50.21
-44.824
-41.839
-41.034
-42.024
-44.49
-48.156
-52.637
-57.456
-62.245
-66.727
-70.729
-74.178
-76.972
-79.025
-80.307
-80.822
-80.608
-79.714
-78.194
-76.104
-73.523
-70.533
-67.213
-63.634
-59.863
-55.984
-52.082
-48.246
-44.567
-41.103
-37.892
-34.963
-32.315
-29.938
-27.811
-25.902
-24.167
-22.571
-21.081
-19.667
-18.309
-16.977
-15.638
-14.257
-12.795
-11.224
-9.528
-7.692
-5.711
-3.589
-1.33
1.054
3.543
6.119
8.77
11.478
14.234
17.021
19.822
22.618
25.387
28.108
30.764
33.333
35.795
38.133
40.327
42.363
44.227
45.904
47.38
48.641
49.674
50.467
51.01
51.294
51.312
51.058
50.529
49.724
48.643
47.289
45.667
43.782
41.641
39.254
36.632
33.785
30.727
27.473
24.036
20.435
16.685
12.806
8.816
4.733
0.577
-3.631
-7.873
-12.129
-16.381
-20.609
-24.796
-28.925
-32.979
-36.943
-40.803
-44.545
-48.158
-51.63
-54.953
-58.118
-61.12
-63.952
-66.612
-69.096
-71.403
-73.532
-75.485
-77.263
-78.869
-80.305
-81.577
-82.689
-83.647
-84.457
-85.127
-85.664
-86.075
-86.37
-86.555
-86.64
-86.633
-86.542
-86.376
-86.142
-85.849
-85.504
-85.113
-84.684
-84.223
-83.734
-83.222
-82.692
-82.146
-81.588
-81.019
-80.442
-79.857
-79.265
-78.666
-78.059
-77.446
-76.823
-76.192
-75.549
-74.894
-74.224
-73.539
-72.835
-72.112
-71.367
-70.597
-69.802
-68.98
-68.128
-67.246
-66.332
-65.386
-64.407
-63.395
-62.349
-61.272
-60.163
-59.025
-57.859
-56.669
-55.457
-54.227
-52.983
-51.729
-50.469
-49.21
-47.954
-46.708
-45.476
-44.262
-43.072
-41.911
-40.782
-39.691
-38.641
-37.638
-36.684
-35.783
-34.938
-34.151
-33.426
-32.763
-32.163
-31.629
-31.159
-30.753
-30.411
-30.132
-29.912
-29.748
-29.637
-29.574
-29.553
-29.568
-29.612
-29.677
-29.756
-29.839
-29.918
-29.985
-30.03
-30.045
-30.019
-29.943
-29.809
-29.606
-29.326
-28.958
-28.494
-27.926
-27.244
-26.443
-25.515
-24.453
-23.251
-21.904
-20.407
-18.756
-16.947
-14.978
-12.847
-10.554
-8.101
-5.489
-2.722
0.195
3.254
6.45
9.772
13.212
16.759
20.402
24.128
27.925
31.778
35.673
39.594
43.523
47.44
51.325
55.158
58.917
62.581
66.129
69.539
72.792
75.872
78.763
81.447
83.909
86.131
88.096
89.791
91.202
92.32
93.136
93.644
93.842
93.737
93.337
92.645
91.663
90.38
88.789
86.89
84.688
82.192
79.419
76.386
73.127
69.694
66.14
62.519
58.88
55.257
51.691
48.236
44.956
41.931
39.236
36.93
35.058
33.651
32.718
32.244
32.182
32.456
32.969
33.598
34.225
34.728
34.975
34.859
34.201
32.729
30.264
26.765
22.331
17.287
11.998
6.747
2.018
-1.494
-3.339
-3.412
-2.023
-0.019
1.575
1.89
-0.043
-5.491
-14.19
-24.076
-33.153
-38.761
-40.675
-41.886
-41.743
-36.166
-16.939
27.744
103.659
209.25
336.379
471.985
603.635
720.481
815.005
882.188
920.175
931.18
917.302
881.148
823.863
744.522
644.907
528.358
400.423
269.054
140.682
20.967
-85.653
-177.323
-252.422
-309.128
-345.199
-358.086
-348.172
-320.735
-285.818
-254.232
-232.037
-218.488
-206.8
-189.851
-164.91
-133.867
-101.7
-72.269
-46.867
-25.332
-6.78
8.724
20.551
28.596
32.826
33.452
31.136
26.527
20.471
14.162
8.362
3.248
-1.008
-4.284
-6.6
-7.821
-8.148
-8.274
-8.515
-8.84
-9.251
-9.636
-9.97
-10.486
-11.073
-11.231
-10.7
-9.385
-7.259
-4.49
-1.136
2.908
7.523
12.399
17.289
21.976
26.332
30.372
34.067
37.34
40.177
42.602
44.655
46.397
47.869
49.075
50.029
50.758
51.3
51.708
52.036
52.322
52.594
52.873
53.174
53.51
53.889
54.313
54.775
55.269
55.791
56.341
56.92
57.529
58.161
58.807
59.456
60.099
60.73
61.342
61.929
62.483
62.998
63.468
63.889
64.258
64.566
64.806
64.969
65.048
65.035
64.924
64.707
64.379
63.935
63.371
62.684
61.874
60.939
59.879
58.695
57.388
55.961
54.418
52.763
51.001
49.139
47.182
45.138
43.015
40.82
38.563
36.251
33.894
31.501
29.08
26.641
24.192
21.741
19.298
16.87
14.465
12.091
9.753
7.459
5.214
3.024
0.891
-1.18
-3.186
-5.125
-6.996
-8.797
-10.53
-12.193
-13.787
-15.314
-16.776
-18.173
-19.509
-20.785
-22.003
-23.168
-24.28
-25.343
-26.358
-27.329
-28.258
-29.145
-29.994
-30.805
-31.581
-32.321
-33.026
-33.697
-34.334
-34.936
-35.503
-36.034
-36.526
-36.98
-37.393
-37.762
-38.087
-38.363
-38.59
-38.764
-38.883
-38.945
-38.947
-38.887
-38.764
-38.575
-38.321
-37.999
-37.609
-37.151
-36.626
-36.034
-35.376
-34.655
-33.871
-33.029
-32.13
-31.179
-30.181
-29.139
-28.059
-26.947
-25.809
-24.651
-23.481
-22.306
-21.133
-19.972
-18.828
-17.711
-16.63
-15.591
-14.603
-13.674
-12.812
-12.023
-11.314
-10.693
-10.165
-9.735
-9.409
-9.191
-9.085
-9.093
-9.219
-9.465
-9.832
-10.321
-10.932
-11.665
-12.518
-13.49
-14.577
-15.776
-17.083
-18.492
-19.999
-21.596
-23.276
-25.032
-26.856
-28.738
-30.67
-32.643
-34.646
-36.67
-38.705
-40.74
-42.765
-44.77
-46.743
-48.676
-50.559
-52.382
-54.136
-55.813
-57.404
-58.9
-60.294
-61.579
-62.747
-63.792
-64.707
-65.488
-66.13
-66.629
-66.984
-67.192
-67.253
-67.168
-66.938
-66.564
-66.05
-65.399
-64.616
-63.709
-62.683
-61.548
-60.313
-58.991
-57.594
-56.139
-54.638
-53.105
-51.556
-50.008
-48.479
-46.985
-45.542
-44.164
-42.865
-41.663
-40.575
-39.615
-38.796
-38.127
-37.617
-37.274
-37.11
-37.134
-37.343
-37.734
-38.3
-39.035
-39.947
-41.039
-42.307
-43.742
-45.335
-47.07
-48.937
-50.919
-52.976
-55.069
-57.15
-59.165
-61.089
-62.895
-64.564
-66.089
-67.427
-68.523
-69.33
-69.792
-69.875
-69.599
-68.963
-67.948
-66.63
-65.123
-63.656
-62.609
-62.189
-62.414
-63.257
-64.666
-66.62
-69.118
-71.809
-73.89
-74.77
-74.214
-72.276
-69.232
-65.107
-59.77
-53.583
-47.743
-43.543
-41.789
-42.874
-46.803
-53.7
-63.96
-76.538
-88.271
-95.958
-97.595
-94.148
-88.623
-80.927
-66.152
-34.769
22.322
107.202
214.252
330.821
443.957
545.091
628.968
695.656
745.927
779.187
796.111
792.96
764.848
709.88
624.958
514.172
386.306
246.372
103.615
-34.971
-164.959
-274.962
-357.851
-411.819
-437.091
-442.76
-439.436
-431.847
-423.103
-412.818
-396.705
-374.203
-345.896
-311.636
-274.585
-237.106
-200.598
-167.31
-137.666
-111.453
-88.858
-69.997
-55.259
-44.613
-37.227
-31.831
-27.007
-21.976
-16.588
-10.71
-4.3
2.469
9.246
15.325
19.8
22.246
22.677
21.248
18.265
14.058
8.943
3.405
-1.958
-6.745
-10.726
-13.764
-15.865
-17.039
-17.281
-16.66
-15.29
-13.268
-10.692
-7.653
-4.206
-0.423
3.603
7.795
12.061
16.313
20.471
24.447
28.18
31.636
34.802
37.682
40.293
42.652
44.791
46.751
48.567
50.272
51.895
53.456
54.984
56.508
58.06
59.676
61.378
63.177
65.077
67.078
69.171
71.348
73.593
75.881
78.193
80.511
82.819
85.105
87.352
89.542
91.656
93.675
95.581
97.358
98.99
100.463
101.761
102.873
103.789
104.501
105
105.279
105.33
105.145
104.718
104.045
103.124
101.951
100.526
98.85
96.926
94.759
92.355
89.72
86.865
83.797
80.528
77.07
73.436
69.64
65.695
61.617
57.421
53.124
48.741
44.29
39.786
35.247
30.69
26.13
21.584
17.067
12.595
8.183
3.845
-0.405
-4.555
-8.593
-12.507
-16.286
-19.921
-23.404
-26.726
-29.881
-32.863
-35.667
-38.291
-40.73
-42.984
-45.052
-46.933
-48.629
-50.14
-51.47
-52.621
-53.596
-54.401
-55.04
-55.518
-55.842
-56.017
-56.049
-55.947
-55.717
-55.367
-54.905
-54.337
-53.673
-52.919
-52.085
-51.177
-50.205
-49.175
-48.095
-46.973
-45.816
-44.631
-43.425
-42.203
-40.971
-39.737
-38.503
-37.276
-36.059
-34.858
-33.674
-32.513
-31.377
-30.268
-29.19
-28.145
-27.134
-26.16
-25.224
-24.328
-23.473
-22.66
-21.89
-21.164
-20.484
-19.85
-19.263
-18.724
-18.233
-17.791
-17.4
-17.06
-16.771
-16.536
-16.354
-16.228
-16.158
-16.146
-16.193
-16.3
-16.47
-16.704
-17.003
-17.369
-17.803
-18.307
-18.882
-19.53
-20.25
-21.043
-21.91
-22.85
-23.862
-24.946
-26.1
-27.323
-28.611
-29.962
-31.374
-32.842
-34.363
-35.93
-37.54
-39.186
-40.861
-42.56
-44.273
-45.993
-47.712
-49.421
-51.111
-52.772
-54.396
-55.971
-57.489
-58.937
-60.308
-61.589
-62.77
-63.843
-64.797
-65.624
-66.315
-66.863
-67.26
-67.502
-67.582
-67.496
-67.241
-66.814
-66.214
-65.441
-64.497
-63.383
-62.104
-60.666
-59.075
-57.343
-55.482
-53.503
-51.421
-49.252
-47.014
-44.722
-42.396
-40.051
-37.705
-35.374
-33.078
-30.838
-28.674
-26.607
-24.655
-22.838
-21.173
-19.676
-18.36
-17.233
-16.3
-15.569
-15.05
-14.76
-14.717
-14.929
-15.403
-16.142
-17.139
-18.382
-19.85
-21.502
-23.299
-25.2
-27.168
-29.176
-31.194
-33.18
-35.088
-36.855
-38.419
-39.733
-40.747
-41.425
-41.764
-41.779
-41.518
-41.069
-40.498
-39.887
-39.341
-38.947
-38.813
-39.053
-39.744
-41.029
-43.134
-46.175
-50.178
-55.041
-60.406
-65.906
-71.251
-75.936
-79.331
-81.066
-81.002
-79.381
-76.989
-74.668
-73.085
-73.102
-75.774
-80.78
-86.471
-91.172
-92.166
-89.178
-85.188
-79.892
-71.594
-54.868
-17.95
45.709
138.427
257.331
388.288
516.661
628.2
710.763
762.623
786.828
789.289
776.245
748.518
703.93
639.56
554.413
451.45
336.247
215.486
95.134
-20.173
-126.731
-221.421
-301.593
-365.401
-412.145
-442.403
-457.753
-460.024
-450.849
-432.131
-405.921
-374.236
-339.129
-302.048
-263.799
-225.35
-188.12
-153.383
-122.305
-95.792
-73.986
-56.966
-44.923
-37.554
-33.972
-33.101
-33.613
-34.199
-34.265
-33.491
-31.599
-28.668
-25.061
-21.245
-17.906
-15.76
-15.037
-15.677
-17.535
-20.263
-23.455
-26.721
-29.593
-31.616
-32.581
-32.449
-31.25
-29.112
-26.15
-22.456
-18.176
-13.468
-8.451
-3.224
2.127
7.528
12.865
18.002
22.846
27.331
31.422
35.117
38.415
41.32
43.863
46.084
48.026
49.73
51.229
52.546
53.719
54.786
55.796
56.801
57.842
58.943
60.125
61.398
62.768
64.237
65.797
67.432
69.13
70.881
72.677
74.511
76.375
78.254
80.134
82.001
83.838
85.633
87.37
89.035
90.614
92.094
93.463
94.713
95.832
96.807
97.628
98.281
98.757
99.044
99.132
99.013
98.678
98.123
97.341
96.331
95.092
93.622
91.925
90.003
87.861
85.504
82.94
80.177
77.224
74.092
70.792
67.337
63.739
60.012
56.171
52.229
48.201
44.103
39.95
35.755
31.533
27.3
23.069
18.854
14.668
10.524
6.434
2.411
-1.535
-5.392
-9.153
-12.808
-16.351
-19.773
-23.071
-26.239
-29.273
-32.171
-34.929
-37.548
-40.026
-42.362
-44.558
-46.614
-48.532
-50.314
-51.961
-53.477
-54.864
-56.124
-57.261
-58.278
-59.178
-59.963
-60.639
-61.207
-61.671
-62.036
-62.304
-62.479
-62.566
-62.567
-62.488
-62.33
-62.099
-61.798
-61.43
-60.999
-60.508
-59.96
-59.359
-58.707
-58.008
-57.265
-56.481
-55.66
-54.804
-53.918
-53.006
-52.071
-51.118
-50.152
-49.178
-48.2
-47.223
-46.254
-45.297
-44.357
-43.442
-42.554
-41.701
-40.887
-40.116
-39.395
-38.726
-38.115
-37.566
-37.082
-36.667
-36.324
-36.057
-35.869
-35.762
-35.738
-35.799
-35.948
-36.185
-36.51
-36.924
-37.427
-38.016
-38.69
-39.446
-40.28
-41.189
-42.168
-43.21
-44.31
-45.461
-46.656
-47.888
-49.148
-50.429
-51.722
-53.019
-54.31
-55.587
-56.84
-58.06
-59.239
-60.366
-61.435
-62.435
-63.358
-64.196
-64.94
-65.582
-66.115
-66.531
-66.824
-66.986
-67.013
-66.902
-66.648
-66.25
-65.707
-65.019
-64.188
-63.218
-62.11
-60.871
-59.505
-58.02
-56.424
-54.728
-52.94
-51.073
-49.14
-47.159
-45.147
-43.119
-41.095
-39.091
-37.126
-35.222
-33.399
-31.674
-30.063
-28.585
-27.258
-26.101
-25.134
-24.372
-23.825
-23.505
-23.42
-23.58
-23.993
-24.657
-25.57
-26.725
-28.119
-29.757
-31.643
-33.775
-36.144
-38.739
-41.539
-44.529
-47.682
-50.958
-54.312
-57.694
-61.05
-64.337
-67.514
-70.541
-73.383
-75.993
-78.314
-80.281
-81.83
-82.919
-83.538
-83.72
-83.49
-82.85
-81.867
-80.712
-79.664
-79.023
-78.959
-79.42
-80.361
-81.958
-84.31
-87.27
-90.33
-92.666
-93.713
-93.477
-92.066
-89.212
-84.728
-78.754
-72.077
-66.256
-62.662
-61.927
-64.386
-70.721
-80.499
-91.852
-102.577
-109.327
-111.502
-112.159
-111.38
-106.426
-89.321
-46.779
27.763
132.762
258.841
389.303
510.934
616.127
702.544
771.284
822.405
854.364
861.646
840.583
790.334
710.138
605.989
483.624
346.853
205.477
67.659
-58.784
-163.234
-243.252
-301.904
-342.151
-370.267
-389.163
-396.865
-393.662
-380.73
-360.351
-336.927
-313.232
-290.13
-267.896
-246.514
-226.239
-207.29
-189.64
-173.151
-157.589
-143.029
-129.853
-118.188
-107.714
-98.136
-89.084
-80.1
-71.138
-62.216
-53.19
-44.109
-35.241
-26.836
-19.314
-13.23
-8.728
-5.745
-4.217
-3.929
-4.688
-6.367
-8.674
-11.19
-13.662
-15.94
-17.928
-19.626
-20.971
-21.831
-22.165
-21.996
-21.362
-20.328
-18.933
-17.175
-15.072
-12.661
-9.989
-7.124
-4.116
-0.989
2.218
5.459
8.668
11.754
14.664
17.38
19.899
22.233
24.395
26.388
28.232
29.96
31.601
33.184
34.73
36.247
37.754
39.277
40.847
42.505
44.278
46.174
48.2
50.355
52.636
55.037
57.544
60.131
62.78
65.474
68.197
70.939
73.683
76.409
79.098
81.729
84.282
86.738
89.081
91.291
93.352
95.251
96.973
98.51
99.851
100.985
101.902
102.592
103.047
103.261
103.228
102.944
102.405
101.612
100.567
99.272
97.733
95.956
93.948
91.72
89.281
86.643
83.818
80.819
77.66
74.355
70.921
67.371
63.724
59.994
56.199
52.355
48.479
44.588
40.699
36.826
32.987
29.196
25.468
21.818
18.258
14.802
11.461
8.247
5.169
2.236
-0.544
-3.165
-5.62
-7.907
-10.02
-11.959
-13.721
-15.307
-16.716
-17.95
-19.01
-19.899
-20.622
-21.18
-21.579
-21.825
-21.922
-21.877
-21.698
-21.391
-20.964
-20.425
-19.783
-19.047
-18.226
-17.328
-16.365
-15.344
-14.277
-13.171
-12.037
-10.884
-9.72
-8.555
-7.398
-6.256
-5.138
-4.05
-3.001
-1.998
-1.047
-0.154
0.673
1.43
2.11
2.709
3.221
3.641
3.967
4.192
4.316
4.334
4.244
4.044
3.734
3.311
2.777
2.132
1.376
0.51
-0.463
-1.541
-2.721
-4
-5.374
-6.839
-8.39
-10.022
-11.73
-13.508
-15.349
-17.247
-19.195
-21.185
-23.209
-25.26
-27.33
-29.409
-31.488
-33.559
-35.612
-37.637
-39.625
-41.564
-43.446
-45.26
-46.997
-48.647
-50.202
-51.653
-52.992
-54.21
-55.3
-56.256
-57.071
-57.739
-58.255
-58.614
-58.814
-58.851
-58.724
-58.432
-57.976
-57.358
-56.578
-55.642
-54.553
-53.315
-51.936
-50.422
-48.781
-47.024
-45.161
-43.205
-41.172
-39.08
-36.945
-34.785
-32.621
-30.472
-28.356
-26.292
-24.296
-22.382
-20.567
-18.867
-17.301
-15.884
-14.631
-13.553
-12.665
-11.975
-11.493
-11.221
-11.157
-11.299
-11.648
-12.211
-13.004
-14.038
-15.318
-16.844
-18.614
-20.618
-22.842
-25.258
-27.817
-30.468
-33.16
-35.848
-38.497
-41.063
-43.491
-45.713
-47.645
-49.211
-50.353
-51.034
-51.223
-50.911
-50.105
-48.837
-47.2
-45.317
-43.319
-41.337
-39.491
-37.884
-36.677
-36.134
-36.464
-37.792
-40.113
-43.196
-46.779
-50.654
-54.452
-57.619
-59.697
-60.38
-59.702
-58.3
-56.977
-56.482
-57.734
-61.734
-68.31
-76.098
-83.601
-88.364
-90.411
-92.652
-94.593
-93.555
-81.841
-46.192
19.765
115.156
232.216
355.197
472.658
579.01
671.405
750.65
815.31
861.233
884.513
882.035
852.855
797.766
719.064
620.534
506.658
383.034
255.769
130.065
10.892
-96.873
-189.508
-264.345
-319.921
-356.835
-376.921
-381.94
-374.056
-355.97
-330.344
-300.053
-267.773
-234.933
-202.191
-170.518
-140.939
-114.259
-91.196
-71.716
-55.268
-41.793
-31.453
-23.922
-18.531
-14.356
-10.275
-5.861
-1.267
3.509
8.464
13.414
18.062
21.799
23.83
23.844
21.966
18.418
13.562
7.733
1.235
-5.438
-11.691
-17.105
-21.46
-24.685
-26.841
-27.973
-28.095
-27.277
-25.635
-23.295
-20.382
-16.998
-13.219
-9.119
-4.796
-0.37
4.031
8.285
12.311
16.067
19.534
22.702
25.57
28.149
30.468
32.571
34.503
36.299
37.989
39.599
41.16
42.713
44.301
45.97
47.746
49.646
51.676
53.84
56.138
58.562
61.1
63.727
66.424
69.176
71.967
74.786
77.613
80.431
83.217
85.951
88.612
91.182
93.639
95.965
98.141
100.148
101.97
103.593
105
106.177
107.108
107.776
108.17
108.277
108.087
107.589
106.777
105.646
104.193
102.418
100.324
97.914
95.196
92.179
88.874
85.295
81.458
77.378
73.074
68.564
63.868
59.005
53.996
48.863
43.628
38.316
32.952
27.563
22.176
16.819
11.518
6.303
1.199
-3.77
-8.581
-13.211
-17.637
-21.833
-25.778
-29.463
-32.879
-36.023
-38.899
-41.512
-43.879
-46.023
-47.972
-49.749
-51.375
-52.866
-54.24
-55.511
-56.7
-57.83
-58.909
-59.933
-60.889
-61.756
-62.515
-63.139
-63.59
-63.817
-63.778
-63.453
-62.838
-61.945
-60.786
-59.385
-57.767
-55.967
-54.051
-52.101
-50.21
-48.499
-47.09
-46.111
-45.721
-46.079
-47.314
-49.522
-52.759
-57.065
-62.478
-69.016
-76.682
-85.461
-95.295
-106.119
-117.862
-130.394
-143.571
-157.227
-171.142
-185.117
-198.992
-212.625
-225.921
-238.792
-251.138
-262.882
-273.965
-284.331
-293.95
-302.782
-310.771
-317.925
-324.282
-329.906
-334.916
-339.402
-343.416
-347.004
-350.186
-352.975
-355.396
-357.459
-359.153
-360.48
-361.445
-362.069
-362.405
-362.46
-362.213
-361.628
-360.632
-359.175
-357.241
-354.807
-351.86
-348.403
-344.433
-339.966
-335.038
-329.669
-323.873
-317.655
-310.999
-303.913
-296.42
-288.554
-280.361
-271.882
-263.147
-254.191
-245.052
-235.758
-226.336
-216.805
-207.169
-197.443
-187.65
-177.809
-167.95
-158.096
-148.267
-138.484
-128.766
-119.13
-109.594
-100.171
-90.875
-81.722
-72.725
-63.899
-55.259
-46.818
-38.589
-30.586
-22.822
-15.305
-8.041
-1.034
5.714
12.197
18.412
24.366
30.064
35.517
40.726
45.683
50.381
54.821
59.006
62.948
66.661
70.155
73.454
76.595
79.624
82.589
85.534
88.496
91.5
94.572
97.748
101.07
104.595
108.388
112.486
116.908
121.653
126.671
131.929
137.424
143.032
148.52
153.663
158.189
161.981
165.175
167.708
169.273
169.826
169.537
168.795
168.377
168.635
169.305
170.519
172.789
176.322
181.11
186.459
190.774
193.173
193.543
191.332
185.902
176.925
165.281
154.03
146.966
146.355
151.06
158.527
169.201
187.901
224.46
288.261
380.998
496.293
620.654
739.783
844.456
930.462
997.698
1045.812
1072.484
1074.753
1049.726
996.963
918.758
819.018
702.855
576.014
444.408
313.897
190.268
78.731
-16.744
-93.487
-150.17
-187.178
-205.922
-208.287
-197.11
-175.776
-147.598
-115.859
-83.321
-51.58
-21.925
4.308
26.394
44.022
57.409
67.45
75.012
80.469
84.352
87.524
90.861
95.313
101.257
108.372
116.251
124.583
133.011
141.096
148.247
153.694
157.053
158.405
157.967
156.073
153.048
149.154
144.753
140.332
136.264
132.772
130.006
128.018
126.835
126.502
127.013
128.298
130.287
132.901
136.057
139.69
143.729
148.094
152.717
157.531
162.445
167.376
172.236
176.931
181.398
185.599
189.5
193.095
196.391
199.402
202.155
204.687
207.025
209.194
211.218
213.112
214.901
216.614
218.283
219.946
221.63
223.352
225.129
226.969
228.871
230.837
232.857
234.918
237.008
239.118
241.239
243.366
245.49
247.6
249.683
251.726
253.714
255.634
257.474
259.218
260.854
262.37
263.756
265.001
266.098
267.034
267.798
268.381
268.771
268.959
268.937
268.694
268.223
267.519
266.577
265.392
263.964
262.291
260.374
258.215
255.816
253.183
250.322
247.239
243.943
240.443
236.751
232.877
228.835
224.638
220.301
215.837
211.264
206.596
201.85
197.042
192.189
187.306
182.41
177.516
172.641
167.8
163.007
158.277
153.624
149.06
144.597
140.247
136.019
131.923
127.965
124.154
120.493
116.988
113.641
110.454
107.429
104.565
101.861
99.313
96.919
94.674
92.573
90.609
88.776
87.065
85.469
83.978
82.584
81.276
80.045
78.88
77.772
76.71
75.683
74.682
73.697
72.718
71.735
70.739
69.722
68.676
67.594
66.468
65.293
64.064
62.775
61.424
60.007
58.522
56.967
55.34
53.642
51.873
50.032
48.123
46.146
44.105
42.002
39.84
37.624
35.358
33.047
30.693
28.304
25.883
23.436
20.968
18.484
15.992
13.496
11.001
8.514
6.039
3.583
1.148
-1.259
-3.635
-5.976
-8.278
-10.538
-12.752
-14.917
-17.03
-19.088
-21.086
-23.024
-24.897
-26.705
-28.444
-30.113
-31.711
-33.234
-34.683
-36.055
-37.35
-38.567
-39.704
-40.762
-41.741
-42.642
-43.466
-44.216
-44.892
-45.498
-46.037
-46.511
-46.924
-47.281
-47.584
-47.838
-48.049
-48.222
-48.363
-48.48
-48.581
-48.679
-48.784
-48.909
-49.067
-49.272
-49.536
-49.875
-50.3
-50.82
-51.447
-52.188
-53.056
-54.063
-55.219
-56.531
-58.009
-59.658
-61.482
-63.488
-65.673
-68.031
-70.558
-73.251
-76.115
-79.165
-82.411
-85.855
-89.497
-93.331
-97.348
-101.535
-105.862
-110.281
-114.739
-119.187
-123.581
-127.89
-132.074
-136.078
-139.836
-143.266
-146.299
-148.893
-151.019
-152.652
-153.796
-154.471
-154.728
-154.681
-154.468
-154.228
-154.104
-154.228
-154.71
-155.712
-157.478
-160.212
-164.028
-168.88
-174.513
-180.646
-187.047
-193.37
-199.081
-203.664
-206.76
-208.486
-209.558
-210.67
-212.515
-215.871
-221.477
-230.167
-241.583
-253.475
-263.101
-267.516
-266.242
-261.963
-254.877
-243.389
-221.5
-177.652
-105.687
-3.291
125.34
264.872
400.19
515.409
597.383
644.057
658.019
645.987
615.51
568.552
504.066
420.133
316.907
198.197
70.3
-59.554
-185.708
-303.711
-409.847
-501.585
-577.004
-635.012
-675.819
-700.385
-709.89
-705.901
-690.262
-665.204
-633.218
-596.582
-557.348
-517.259
-478.077
-441.874
-410.399
-384.497
-364.302
-349.506
-339.447
-333.414
-330.397
-328.664
-326.48
-322.885
-317.549
-310.635
-302.623
-293.945
-285.128
-277.163
-271.135
-267.612
-266.722
-268.236
-271.691
-276.708
-282.939
-289.852
-296.815
-303.365
-309.207
-314.185
-318.269
-321.413
-323.562
-324.726
-324.975
-324.39
-323.057
-321.056
-318.445
-315.292
-311.678
-307.685
-303.405
-298.933
-294.351
-289.749
-285.218
-280.826
-276.618
-272.623
-268.834
-265.237
-261.813
-258.527
-255.34
-252.218
-249.128
-246.042
-242.938
-239.789
-236.569
-233.249
-229.796
-226.189
-222.42
-218.485
-214.392
-210.157
-205.794
-201.328
-196.791
-192.212
-187.619
-183.038
-178.492
-174.006
-169.609
-165.329
-161.197
-157.24
-153.485
-149.957
-146.68
-143.679
-140.974
-138.583
-136.521
-134.804
-133.445
-132.458
-131.855
-131.645
-131.834
-132.427
-133.427
-134.835
-136.648
-138.861
-141.465
-144.45
-147.805
-151.514
-155.561
-159.928
-164.594
-169.538
-174.736
-180.165
-185.799
-191.614
-197.581
-203.675
-209.869
-216.134
-222.446
-228.776
-235.099
-241.39
-247.625
-253.782
-259.839
-265.775
-271.574
-277.218
-282.693
-287.985
-293.085
-297.982
-302.669
-307.142
-311.397
-315.433
-319.249
-322.849
-326.236
-329.414
-332.391
-335.173
-337.77
-340.19
-342.444
-344.542
-346.496
-348.317
-350.016
-351.606
-353.098
-354.504
-355.833
-357.098
-358.307
-359.468
-360.589
-361.677
-362.736
-363.77
-364.781
-365.771
-366.738
-367.681
-368.596
-369.478
-370.321
-371.117
-371.856
-372.529
-373.124
-373.628
-374.028
-374.311
-374.463
-374.469
-374.314
-373.984
-373.463
-372.736
-371.789
-370.608
-369.18
-367.49
-365.528
-363.282
-360.743
-357.903
-354.755
-351.293
-347.513
-343.415
-338.996
-334.258
-329.205
-323.842
-318.175
-312.214
-305.968
-299.451
-292.678
-285.662
-278.422
-270.975
-263.34
-255.538
-247.589
-239.514
-231.334
-223.072
-214.751
-206.393
-198.02
-189.655
-181.321
-173.039
-164.829
-156.711
-148.705
-140.828
-133.097
-125.528
-118.134
-110.931
-103.928
-97.138
-90.568
-84.225
-78.116
-72.244
-66.612
-61.219
-56.065
-51.149
-46.469
-42.021
-37.801
-33.807
-30.032
-26.475
-23.13
-19.992
-17.058
-14.322
-11.779
-9.424
-7.252
-5.256
-3.43
-1.768
-0.265
1.084
2.283
3.337
4.247
5.017
5.651
6.151
6.525
6.782
6.928
6.972
6.918
6.764
6.513
6.172
5.745
5.241
4.675
4.066
3.448
2.87
2.373
2.003
1.795
1.775
1.976
2.429
3.166
4.234
5.665
7.489
9.739
12.433
15.572
19.138
23.062
27.234
31.55
35.904
40.217
44.426
48.436
52.146
55.448
58.219
60.382
61.829
62.38
61.959
60.608
58.543
56.263
54.338
53.222
53.452
55.592
59.958
66.647
75.217
84.597
93.687
101.57
107.467
110.823
111.451
109.708
107.043
105.915
109.112
119.397
139.07
170.089
214.028
271.492
341.633
422.123
509.397
599.197
687.233
768.782
838.855
892.859
926.821
937.889
924.63
886.684
824.576
740.134
636.348
517.199
387.691
253.213
119.098
-9.592
-128.456
-233.844
-322.951
-394.141
-447.11
-482.803
-503.117
-510.225
-506.157
-493.136
-473.451
-449.274
-422.529
-394.34
-365.204
-335.865
-307.434
-280.909
-257.149
-236.46
-218.635
-203.755
-192.048
-183.183
-176.341
-170.426
-164.165
-156.916
-148.642
-139.242
-128.672
-117.149
-105.078
-93.176
-82.369
-73.11
-65.446
-59.333
-54.561
-50.926
-48.226
-46.07
-43.995
-41.743
-39.214
-36.397
-33.378
-30.188
-26.845
-23.433
-20.03
-16.675
-13.349
-9.995
-6.564
-3.031
0.618
4.392
8.34
12.545
17.067
21.949
27.24
32.982
39.254
46.169
53.794
62.154
71.231
80.982
91.385
102.431
114.082
126.274
138.916
151.88
165.086
178.48
191.998
205.58
219.134
232.543
245.727
258.648
271.281
283.619
295.643
307.323
318.663
329.694
340.464
351.035
361.436
371.666
381.732
391.638
401.393
411.023
420.525
429.874
439.049
448.027
456.786
465.311
473.57
481.51
489.081
496.227
502.907
509.097
514.773
519.912
524.499
528.517
531.962
534.841
537.154
538.904
540.092
540.723
540.807
540.36
539.401
537.951
536.029
533.656
530.853
527.642
524.047
520.089
515.79
511.171
506.256
501.074
495.65
490.015
484.197
478.226
472.132
465.943
459.691
453.402
447.105
440.824
434.587
428.419
422.342
416.382
410.56
404.897
399.413
394.128
389.057
384.217
379.622
375.285
371.216
367.427
363.925
360.716
357.807
355.201
352.901
350.907
349.217
347.829
346.739
345.939
345.422
345.178
345.197
345.466
345.971
346.699
347.633
348.757
350.054
351.506
353.094
354.797
356.596
358.47
360.397
362.355
364.323
366.278
368.198
370.061
371.844
373.524
375.081
376.493
377.738
378.796
379.646
380.27
380.65
380.766
380.605
380.15
379.387
378.305
376.892
375.14
373.039
370.585
367.772
364.596
361.058
357.155
352.891
348.268
343.292
337.969
332.307
326.317
320.01
313.399
306.499
299.326
291.897
284.231
276.348
268.268
260.014
251.608
243.074
234.436
225.719
216.948
208.149
199.348
190.569
181.837
173.176
164.609
156.16
147.85
139.7
131.728
123.952
116.39
109.057
101.965
95.128
88.555
82.255
76.232
70.491
65.031
59.849
54.941
50.302
45.923
41.793
37.901
34.235
30.786
27.539
24.482
21.6
18.873
16.282
13.812
11.443
9.159
6.941
4.774
2.643
0.544
-1.534
-3.599
-5.667
-7.762
-9.905
-12.111
-14.394
-16.76
-19.21
-21.743
-24.344
-26.98
-29.617
-32.219
-34.751
-37.194
-39.519
-41.688
-43.651
-45.344
-46.703
-47.682
-48.246
-48.372
-48.058
-47.322
-46.211
-44.797
-43.175
-41.465
-39.782
-38.241
-36.968
-36.06
-35.686
-36.1
-37.471
-39.853
-43.167
-47.116
-51.379
-55.712
-59.678
-62.651
-64.211
-64.195
-62.827
-60.864
-59.195
-58.578
-59.885
-64.213
-71.238
-79.116
-86.117
-89.704
-90.029
-90.453
-90.382
-86.367
-70.102
-28.407
44.154
145.168
265.215
387.798
501.517
600.633
682.447
748.226
796.475
823.344
826.018
802.713
754.717
685.264
597.413
492.535
371.553
238.238
99.995
-31.01
-142.001
-225.732
-282.147
-318.156
-342.238
-359.608
-370.742
-372.502
-363.298
-344.28
-318.474
-290.065
-261.207
-232.262
-203.898
-176.815
-151.761
-129.614
-110.397
-93.583
-79.179
-67.378
-57.896
-50.098
-43.067
-35.768
-27.845
-19.525
-10.907
-2.09
6.638
14.898
22.042
27.274
30.278
31.142
30.048
27.302
23.186
17.936
11.963
5.783
-0.257
-5.94
-11.14
-15.827
-19.908
-23.284
-25.939
-27.907
-29.253
-30.05
-30.349
-30.191
-29.628
-28.716
-27.527
-26.136
-24.599
-22.977
-21.328
-19.717
-18.233
-16.943
-15.879
-15.055
-14.462
-14.079
-13.894
-13.883
-14.011
-14.25
-14.571
-14.951
-15.379
-15.841
-16.313
-16.773
-17.185
-17.528
-17.792
-17.977
-18.086
-18.129
-18.117
-18.067
-18.006
-17.958
-17.942
-17.976
-18.074
-18.252
-18.53
-18.928
-19.467
-20.165
-21.039
-22.105
-23.377
-24.868
-26.59
-28.548
-30.748
-33.192
-35.885
-38.828
-42.022
-45.467
-49.157
-53.09
-57.258
-61.654
-66.268
-71.086
-76.096
-81.28
-86.624
-92.108
-97.715
-103.423
-109.213
-115.062
-120.95
-126.855
-132.753
-138.623
-144.44
-150.185
-155.833
-161.364
-166.756
-171.99
-177.046
-181.907
-186.556
-190.978
-195.161
-199.091
-202.759
-206.156
-209.275
-212.112
-214.661
-216.922
-218.893
-220.576
-221.974
-223.09
-223.93
-224.5
-224.807
-224.86
-224.667
-224.24
-223.587
-222.72
-221.651
-220.393
-218.957
-217.358
-215.608
-213.721
-211.711
-209.592
-207.377
-205.08
-202.713
-200.29
-197.823
-195.322
-192.8
-190.265
-187.728
-185.198
-182.683
-180.19
-177.726
-175.297
-172.91
-170.569
-168.278
-166.041
-163.863
-161.747
-159.695
-157.711
-155.798
-153.957
-152.192
-150.504
-148.894
-147.364
-145.915
-144.548
-143.262
-142.058
-140.935
-139.895
-138.935
-138.056
-137.258
-136.538
-135.897
-135.333
-134.846
-134.433
-134.094
-133.828
-133.633
-133.508
-133.45
-133.459
-133.532
-133.665
-133.857
-134.104
-134.402
-134.746
-135.131
-135.551
-136.002
-136.476
-136.967
-137.469
-137.975
-138.477
-138.968
-139.441
-139.887
-140.299
-140.668
-140.986
-141.247
-141.441
-141.563
-141.604
-141.559
-141.42
-141.182
-140.838
-140.383
-139.812
-139.121
-138.305
-137.362
-136.29
-135.088
-133.755
-132.294
-130.707
-128.997
-127.17
-125.23
-123.185
-121.041
-118.809
-116.498
-114.118
-111.683
-109.206
-106.704
-104.194
-101.694
-99.224
-96.801
-94.447
-92.18
-90.019
-87.978
-86.075
-84.324
-82.741
-81.343
-80.147
-79.166
-78.412
-77.897
-77.629
-77.617
-77.862
-78.362
-79.111
-80.107
-81.35
-82.852
-84.617
-86.646
-88.933
-91.471
-94.243
-97.231
-100.405
-103.716
-107.114
-110.546
-113.962
-117.328
-120.598
-123.719
-126.625
-129.234
-131.475
-133.291
-134.635
-135.477
-135.804
-135.625
-134.978
-133.932
-132.575
-131.019
-129.383
-127.794
-126.386
-125.271
-124.617
-124.678
-125.624
-127.524
-130.263
-133.501
-136.907
-140.237
-143.085
-144.893
-145.233
-143.856
-141.1
-137.926
-135.08
-133.218
-133.122
-135.45
-140.755
-148.453
-156.046
-160.452
-159.53
-153.534
-144.052
-130.494
-108.45
-69.278
-5.113
85.574
197.613
319.05
437.484
544.95
636.493
710.649
766.194
799.914
809.242
793.048
750.427
681.932
589.294
473.59
340.924
201.693
66.052
-54.556
-154.753
-236.154
-300.548
-351.399
-389.907
-413.657
-422.326
-416.772
-399.462
-374.993
-346.817
-317.124
-287.262
-257.607
-228.594
-200.899
-174.885
-150.659
-128.314
-108.038
-90.2
-75.206
-63.242
-54.115
-47.455
-42.924
-39.993
-37.96
-36.268
-34.482
-32.327
-29.843
-27.214
-24.641
-22.497
-21.255
-21.12
-22.112
-24.152
-26.995
-30.351
-33.916
-37.312
-40.147
-42.211
-43.454
-43.888
-43.602
-42.68
-41.191
-39.257
-37.029
-34.621
-32.114
-29.571
-27.032
-24.575
-22.317
-20.341
-18.697
-17.407
-16.457
-15.838
-15.542
-15.54
-15.782
-16.214
-16.783
-17.447
-18.176
-18.934
-19.68
-20.366
-20.936
-21.346
-21.569
-21.582
-21.372
-20.93
-20.247
-19.328
-18.187
-16.838
-15.292
-13.56
-11.65
-9.574
-7.352
-5.002
-2.547
-0.008
2.595
5.238
7.896
10.547
13.168
15.736
18.232
20.634
22.92
25.07
27.06
28.873
30.49
31.894
33.069
34.002
34.682
35.102
35.255
35.138
34.751
34.092
33.168
31.983
30.545
28.864
26.952
24.824
22.494
19.981
17.303
14.481
11.536
8.49
5.366
2.189
-1.019
-4.232
-7.426
-10.578
-13.664
-16.661
-19.548
-22.303
-24.907
-27.342
-29.59
-31.637
-33.469
-35.074
-36.442
-37.566
-38.44
-39.06
-39.423
-39.529
-39.381
-38.98
-38.332
-37.443
-36.321
-34.975
-33.416
-31.656
-29.706
-27.581
-25.295
-22.863
-20.3
-17.623
-14.848
-11.99
-9.067
-6.095
-3.088
-0.064
2.964
5.981
8.973
11.926
14.83
17.672
20.442
23.13
25.729
28.231
30.628
32.917
35.092
37.151
39.089
40.907
42.603
44.177
45.63
46.964
48.18
49.282
50.272
51.154
51.931
52.608
53.19
53.681
54.085
54.408
54.653
54.826
54.931
54.971
54.953
54.878
54.751
54.574
54.352
54.087
53.781
53.437
53.057
52.643
52.196
51.718
51.209
50.671
50.104
49.509
48.886
48.237
47.561
46.86
46.135
45.386
44.615
43.824
43.014
42.187
41.345
40.491
39.627
38.758
37.886
37.015
36.15
35.297
34.46
33.644
32.856
32.1
31.383
30.71
30.088
29.521
29.016
28.578
28.212
27.926
27.723
27.608
27.587
27.661
27.834
28.109
28.487
28.969
29.553
30.239
31.026
31.911
32.891
33.961
35.116
36.347
37.647
39.007
40.415
41.854
43.312
44.77
46.214
47.625
48.987
50.279
51.48
52.571
53.534
54.351
55.001
55.466
55.725
55.76
55.557
55.104
54.39
53.403
52.133
50.571
48.717
46.57
44.134
41.406
38.383
35.066
31.459
27.574
23.426
19.034
14.421
9.621
4.674
-0.372
-5.465
-10.547
-15.575
-20.502
-25.293
-29.917
-34.322
-38.447
-42.23
-45.601
-48.534
-51.05
-53.157
-54.862
-56.235
-57.393
-58.582
-60.177
-62.399
-65.294
-68.862
-73.08
-77.94
-83.386
-89.034
-94.105
-97.98
-100.373
-101.274
-100.856
-99.13
-96.079
-92.122
-88.332
-85.957
-85.909
-88.536
-93.619
-101.039
-110.812
-122.429
-134.532
-144.044
-146.671
-139.118
-119.755
-90.016
-53.978
-13.37
34.562
97.432
185.866
304.891
448.118
598.671
733.822
834.702
894.413
917.485
913.956
892.499
855.64
800.175
722.427
622.545
504.419
375.097
242.523
112.506
-9.876
-119.764
-213.902
-289.893
-346.204
-383.339
-402.546
-404.983
-393.221
-370.662
-340.482
-306.095
-270.576
-235.683
-203.29
-175.682
-153.619
-137.237
-125.763
-116.518
-108.343
-101.708
-97.418
-98.482
-105.184
-112.792
-115.842
-106.799
-82.019
-48.146
-14.795
7.756
11.989
1.671
-14.69
-30.253
-39.054
-41.637
-42.629
-44.08
-47.524
-52.909
-58.113
-62.447
-65.927
-68.375
-70.079
-71.147
-71.348
-70.642
-69.107
-66.774
-63.734
-60.144
-56.128
-51.798
-47.29
-42.715
-38.175
-33.799
-29.677
-25.856
-22.362
-19.211
-16.406
-13.946
-11.808
-9.945
-8.308
-6.856
-5.554
-4.377
-3.293
-2.261
-1.241
-0.186
0.934
2.138
3.438
4.844
6.362
7.993
9.729
11.549
13.442
15.395
17.399
19.446
21.524
23.618
25.712
27.79
29.835
31.832
33.764
35.615
37.369
39.01
40.525
41.902
43.129
44.192
45.078
45.774
46.267
46.549
46.609
46.438
46.03
45.38
44.486
43.347
41.963
40.337
38.473
36.375
34.051
31.507
28.754
25.802
22.663
19.35
15.878
12.263
8.52
4.666
0.721
-3.299
-7.373
-11.483
-15.611
-19.737
-23.843
-27.91
-31.92
-35.856
-39.702
-43.44
-47.057
-50.539
-53.874
-57.049
-60.057
-62.888
-65.537
-67.996
-70.262
-72.332
-74.204
-75.876
-77.35
-78.625
-79.706
-80.594
-81.296
-81.815
-82.16
-82.336
-82.352
-82.217
-81.938
-81.526
-80.991
-80.342
-79.59
-78.746
-77.82
-76.824
-75.768
-74.661
-73.514
-72.336
-71.136
-69.922
-68.7
-67.478
-66.263
-65.058
-63.871
-62.704
-61.563
-60.451
-59.37
-58.322
-57.31
-56.334
-55.396
-54.494
-53.63
-52.801
-52.007
-51.248
-50.52
-49.821
-49.151
-48.505
-47.88
-47.274
-46.683
-46.104
-45.533
-44.969
-44.409
-43.852
-43.295
-42.739
-42.182
-41.626
-41.07
-40.515
-39.961
-39.409
-38.86
-38.315
-37.776
-37.244
-36.721
-36.21
-35.712
-35.231
-34.77
-34.33
-33.914
-33.526
-33.169
-32.845
-32.559
-32.314
-32.113
-31.96
-31.858
-31.812
-31.822
-31.89
-32.018
-32.204
-32.448
-32.745
-33.091
-33.484
-33.917
-34.388
-34.891
-35.422
-35.976
-36.55
-37.14
-37.741
-38.348
-38.95
-39.54
-40.107
-40.642
-41.133
-41.568
-41.933
-42.217
-42.414
-42.512
-42.504
-42.374
-42.103
-41.678
-41.094
-40.346
-39.434
-38.362
-37.134
-35.768
-34.295
-32.744
-31.141
-29.503
-27.824
-26.108
-24.361
-22.585
-20.79
-18.97
-17.097
-15.154
-13.131
-11.009
-8.774
-6.385
-3.767
-0.867
2.353
5.903
9.753
13.875
18.241
22.8
27.491
32.228
36.886
41.372
45.616
49.53
53.038
56.03
58.355
59.903
60.597
60.392
59.297
57.336
54.534
50.968
46.742
41.991
36.889
31.568
26.132
20.705
15.399
10.367
5.797
1.811
-1.514
-4.128
-6.072
-7.36
-7.987
-8.122
-7.952
-7.663
-7.54
-7.663
-7.972
-8.666
-10.011
-12.012
-14.746
-18.069
-21.475
-24.904
-28.504
-31.933
-34.569
-36.11
-36.297
-35.148
-34.258
-34.708
-35.907
-38.517
-41.78
-43.319
-44.084
-44.02
-43.093
-45.626
-53.194
-63.721
-72.577
-68.277
-37.393
27.048
124.152
245.43
375.356
499.132
608.849
699.468
769.554
821.695
854.872
867.22
858.31
824.661
765.737
685.303
586.834
474.978
352.869
221.444
84.168
-51.336
-173.63
-272.405
-342.603
-384.87
-404.785
-406.933
-393.938
-369.624
-339.315
-310.062
-287.303
-271.102
-256.208
-236.797
-210.746
-180.211
-150.658
-126.254
-107.873
-94.531
-84.369
-76.111
-69.092
-62.559
-55.588
-47.547
-38.346
-28.17
-17.281
-6.059
5.026
15.274
23.74
29.897
33.703
35.299
35.008
33.157
30.001
25.949
21.548
17.202
13.177
9.652
6.693
4.403
2.902
2.229
2.371
3.286
4.914
7.21
10.132
13.619
17.601
22.004
26.743
31.738
36.903
42.147
47.372
52.469
57.354
61.97
66.285
70.292
73.998
77.413
80.557
83.462
86.157
88.668
91.02
93.227
95.312
97.305
99.239
101.153
103.077
105.027
107.011
109.031
111.08
113.152
115.232
117.298
119.331
121.316
123.239
125.093
126.865
128.541
130.105
131.542
132.836
133.975
134.946
135.738
136.339
136.742
136.939
136.927
136.702
136.259
135.593
134.7
133.578
132.226
130.642
128.828
126.785
124.517
122.03
119.33
116.427
113.33
110.048
106.594
102.979
99.216
95.319
91.302
87.178
82.962
78.669
74.314
69.912
65.48
61.032
56.584
52.151
47.749
43.39
39.089
34.859
30.713
26.661
22.716
18.887
15.184
11.614
8.186
4.906
1.78
-1.188
-3.996
-6.64
-9.119
-11.433
-13.581
-15.566
-17.387
-19.048
-20.551
-21.898
-23.094
-24.142
-25.047
-25.813
-26.446
-26.952
-27.337
-27.606
-27.766
-27.823
-27.785
-27.658
-27.449
-27.164
-26.81
-26.394
-25.923
-25.403
-24.84
-24.241
-23.61
-22.955
-22.279
-21.589
-20.89
-20.185
-19.48
-18.779
-18.086
-17.405
-16.742
-16.098
-15.48
-14.889
-14.331
-13.807
-13.323
-12.88
-12.482
-12.131
-11.829
-11.579
-11.383
-11.241
-11.157
-11.13
-11.161
-11.251
-11.401
-11.61
-11.878
-12.205
-12.59
-13.033
-13.532
-14.086
-14.695
-15.355
-16.066
-16.825
-17.63
-18.477
-19.364
-20.287
-21.243
-22.226
-23.234
-24.26
-25.302
-26.353
-27.408
-28.462
-29.51
-30.545
-31.564
-32.559
-33.526
-34.459
-35.353
-36.203
-37.004
-37.752
-38.441
-39.066
-39.624
-40.11
-40.518
-40.846
-41.088
-41.241
-41.302
-41.267
-41.135
-40.901
-40.566
-40.126
-39.581
-38.93
-38.172
-37.309
-36.339
-35.266
-34.091
-32.815
-31.443
-29.977
-28.422
-26.782
-25.062
-23.267
-21.403
-19.477
-17.494
-15.462
-13.389
-11.283
-9.155
-7.016
-4.879
-2.757
-0.662
1.391
3.387
5.313
7.155
8.902
10.543
12.067
13.464
14.721
15.826
16.77
17.544
18.14
18.551
18.773
18.801
18.641
18.295
17.764
17.049
16.136
15.018
13.689
12.151
10.406
8.464
6.336
4.044
1.625
-0.881
-3.429
-5.979
-8.504
-10.972
-13.341
-15.561
-17.561
-19.277
-20.657
-21.665
-22.28
-22.494
-22.315
-21.781
-20.963
-19.956
-18.879
-17.847
-16.979
-16.41
-16.26
-16.699
-17.969
-20.233
-23.567
-27.914
-32.982
-38.435
-43.99
-49.218
-53.58
-56.708
-58.333
-58.58
-58.26
-58.22
-59.212
-62.06
-67.295
-75.061
-85.327
-97.253
-108.731
-117.316
-120.298
-114.783
-98.482
-69.446
-25.877
33.155
106.185
189.939
280.613
373.414
466.326
559.91
650.674
732.929
796.839
827.543
818.449
770.757
690.425
590.124
476.214
348.818
210.312
64.308
-78.418
-202.987
-300.724
-370.248
-417.893
-452.255
-477.67
-493.872
-497.128
-485.283
-460.143
-425.626
-386.662
-346.914
-307.888
-270.769
-237.038
-207.845
-183.934
-165.335
-151.212
-140.636
-133.083
-127.727
-123.304
-118.656
-112.724
-105.049
-95.964
-85.912
-75.228
-64.418
-54.095
-44.937
-37.734
-32.819
-30.039
-29.135
-29.762
-31.592
-34.365
-37.696
-41.088
-44.226
-46.942
-49.15
-50.861
-52.024
-52.565
-52.491
-51.857
-50.744
-49.235
-47.386
-45.229
-42.812
-40.183
-37.402
-34.538
-31.635
-28.734
-25.878
-23.114
-20.512
-18.125
-15.97
-14.042
-12.318
-10.765
-9.359
-8.069
-6.851
-5.669
-4.487
-3.273
-2.01
-0.678
0.751
2.306
4.028
5.944
8.069
10.408
12.963
15.729
18.699
21.858
25.184
28.653
32.245
35.941
39.725
43.579
47.477
51.396
55.306
59.184
63.003
66.739
70.366
73.858
77.195
80.354
83.319
86.071
88.591
90.864
92.872
94.6
96.038
97.172
97.994
98.495
98.67
98.517
98.035
97.226
96.093
94.642
92.879
90.815
88.461
85.829
82.932
79.787
76.409
72.817
69.028
65.063
60.94
56.681
52.307
47.839
43.298
38.704
34.079
29.441
24.811
20.207
15.647
11.149
6.729
2.403
-1.815
-5.911
-9.872
-13.687
-17.346
-20.841
-24.162
-27.303
-30.26
-33.027
-35.601
-37.98
-40.162
-42.147
-43.935
-45.527
-46.924
-48.131
-49.151
-49.987
-50.646
-51.131
-51.45
-51.607
-51.611
-51.467
-51.183
-50.766
-50.222
-49.561
-48.789
-47.915
-46.946
-45.89
-44.756
-43.551
-42.284
-40.962
-39.594
-38.186
-36.748
-35.285
-33.807
-32.32
-30.83
-29.347
-27.875
-26.422
-24.994
-23.597
-22.237
-20.918
-19.647
-18.428
-17.265
-16.162
-15.124
-14.155
-13.256
-12.433
-11.686
-11.018
-10.432
-9.927
-9.506
-9.169
-8.915
-8.745
-8.657
-8.65
-8.722
-8.872
-9.096
-9.392
-9.757
-10.185
-10.675
-11.22
-11.816
-12.459
-13.141
-13.859
-14.606
-15.376
-16.163
-16.961
-17.763
-18.562
-19.352
-20.126
-20.877
-21.598
-22.282
-22.922
-23.511
-24.042
-24.508
-24.902
-25.218
-25.45
-25.591
-25.636
-25.58
-25.416
-25.141
-24.75
-24.239
-23.604
-22.842
-21.95
-20.925
-19.768
-18.476
-17.049
-15.489
-13.794
-11.968
-10.014
-7.933
-5.73
-3.41
-0.98
1.556
4.188
6.908
9.706
12.571
15.488
18.444
21.424
24.41
27.385
30.33
33.227
36.058
38.805
41.451
43.979
46.369
48.604
50.662
52.526
54.176
55.596
56.769
57.68
58.315
58.669
58.734
58.504
57.971
57.117
55.928
54.394
52.508
50.268
47.679
44.752
41.506
37.977
34.204
30.225
26.08
21.798
17.41
12.955
8.478
4.044
-0.284
-4.454
-8.417
-12.14
-15.611
-18.834
-21.841
-24.708
-27.503
-30.303
-33.21
-36.304
-39.691
-43.496
-47.816
-52.802
-58.664
-65.517
-73.397
-82.202
-91.581
-101.143
-110.532
-119.231
-126.656
-132.407
-136.233
-138.358
-139.642
-140.949
-143.049
-146.757
-152.675
-161.087
-171.919
-184.105
-195.386
-203.248
-204.964
-197.727
-179.167
-147.148
-100.172
-38.06
37.872
125.299
220.77
319.28
414.957
501.793
574.595
631.291
671.684
694.881
698.981
678.092
625.986
539.64
419.12
273.941
117.975
-33.295
-162.552
-262.595
-333.166
-379.258
-412.721
-439.883
-462.276
-479.144
-485.455
-479.348
-462.802
-438.576
-410.648
-381.601
-351.949
-321.901
-292.037
-263.532
-237.63
-215.291
-196.85
-182.146
-171.23
-164.19
-160.527
-159.265
-159.247
-159.229
-158.577
-157.222
-155.041
-151.996
-148.315
-144.421
-140.978
-138.736
-137.988
-138.625
-140.449
-143.162
-146.451
-149.984
-153.293
-155.889
-157.496
-158.031
-157.52
-156.058
-153.715
-150.54
-146.642
-142.168
-137.251
-131.999
-126.504
-120.838
-115.097
-109.413
-103.901
-98.645
-93.696
-89.076
-84.79
-80.846
-77.241
-73.951
-70.945
-68.188
-65.646
-63.297
-61.11
-59.052
-57.079
-55.142
-53.201
-51.23
-49.209
-47.128
-44.981
-42.763
-40.477
-38.133
-35.743
-33.315
-30.854
-28.366
-25.856
-23.334
-20.814
-18.308
-15.829
-13.387
-10.995
-8.664
-6.406
-4.234
-2.156
-0.181
1.681
3.417
5.016
6.466
7.756
8.875
9.812
10.557
11.102
11.44
11.566
11.475
11.165
10.634
9.882
8.91
7.721
6.318
4.706
2.892
0.883
-1.313
-3.685
-6.222
-8.914
-11.747
-14.71
-17.786
-20.963
-24.225
-27.557
-30.945
-34.372
-37.824
-41.284
-44.739
-48.173
-51.573
-54.924
-58.214
-61.431
-64.563
-67.6
-70.532
-73.352
-76.052
-78.626
-81.068
-83.373
-85.54
-87.563
-89.442
-91.176
-92.763
-94.205
-95.502
-96.656
-97.669
-98.544
-99.285
-99.895
-100.378
-100.739
-100.981
-101.111
-101.132
-101.049
-100.868
-100.592
-100.228
-99.78
-99.252
-98.649
-97.974
-97.232
-96.426
-95.558
-94.633
-93.653
-92.62
-91.537
-90.406
-89.231
-88.012
-86.754
-85.457
-84.126
-82.762
-81.367
-79.946
-78.5
-77.033
-75.547
-74.047
-72.537
-71.019
-69.498
-67.979
-66.465
-64.962
-63.474
-62.006
-60.563
-59.151
-57.774
-56.439
-55.151
-53.915
-52.737
-51.623
-50.578
-49.607
-48.715
-47.907
-47.185
-46.553
-46.014
-45.57
-45.222
-44.972
-44.818
-44.762
-44.801
-44.934
-45.157
-45.467
-45.859
-46.329
-46.869
-47.474
-48.136
-48.846
-49.598
-50.381
-51.187
-52.006
-52.826
-53.638
-54.431
-55.192
-55.91
-56.573
-57.169
-57.686
-58.113
-58.44
-58.654
-58.747
-58.709
-58.531
-58.205
-57.722
-57.076
-56.261
-55.27
-54.101
-52.748
-51.211
-49.488
-47.579
-45.485
-43.209
-40.755
-38.126
-35.328
-32.365
-29.246
-25.979
-22.573
-19.04
-15.391
-11.638
-7.798
-3.889
0.071
4.064
8.07
12.072
16.049
19.98
23.845
27.623
31.296
34.847
38.255
41.5
44.563
47.425
50.073
52.495
54.681
56.618
58.299
59.716
60.868
61.757
62.382
62.739
62.822
62.63
62.166
61.44
60.466
59.263
57.856
56.278
54.569
52.77
50.929
49.091
47.291
45.566
43.942
42.44
41.103
39.98
39.125
38.591
38.381
38.448
38.759
39.294
39.974
40.673
41.134
40.988
40.03
38.245
35.656
32.262
28.047
23.089
17.818
13.084
9.566
7.572
7.155
8.282
11.069
15.503
21.064
26.577
30.617
32.028
30.185
24.754
16.262
6.442
-3.111
-10.994
-17.901
-26.143
-34.837
-38.724
-27.128
11.519
81.715
179.342
292.513
408.186
518.427
620.289
713.886
797.869
868.087
919.03
945.426
944.668
916.003
860.758
782.986
687.07
577.84
458.436
328.913
191.955
53.352
-76.105
-181.087
-253.229
-291.229
-301.215
-296.507
-284.935
-269.624
-251.319
-226.671
-195.432
-160.343
-123.755
-88.977
-58.69
-33.671
-13.923
1.054
12.219
20.479
26.477
31.092
35.785
41.881
49.996
60.186
71.952
84.55
97.408
109.915
121.136
130.136
136.393
139.773
140.511
139.061
135.838
131.242
125.778
119.978
114.265
108.962
104.283
100.347
97.251
95.062
93.804
93.458
93.996
95.374
97.523
100.369
103.817
107.762
112.114
116.791
121.691
126.701
131.704
136.579
141.247
145.665
149.795
153.619
157.133
160.348
163.298
166.03
168.584
170.997
173.3
175.516
177.68
179.829
182.002
184.239
186.564
188.993
191.535
194.193
196.966
199.845
202.813
205.846
208.925
212.033
215.155
218.274
221.374
224.435
227.437
230.358
233.179
235.88
238.441
240.842
243.065
245.092
246.908
248.498
249.848
250.942
251.766
252.307
252.551
252.488
252.109
251.405
250.37
249.001
247.295
245.252
242.874
240.165
237.129
233.774
230.107
226.137
221.877
217.338
212.534
207.479
202.191
196.684
190.977
185.089
179.038
172.844
166.527
160.108
153.606
147.043
140.437
133.809
127.178
120.563
113.982
107.451
100.988
94.608
88.325
82.153
76.104
70.188
64.416
58.796
53.336
48.042
42.92
37.973
33.207
28.622
24.221
20.004
15.97
12.12
8.45
4.959
1.644
-1.499
-4.474
-7.286
-9.938
-12.436
-14.785
-16.99
-19.057
-20.989
-22.794
-24.474
-26.036
-27.485
-28.824
-30.057
-31.19
-32.225
-33.166
-34.016
-34.778
-35.455
-36.048
-36.559
-36.991
-37.345
-37.622
-37.824
-37.95
-38.002
-37.981
-37.886
-37.719
-37.479
-37.168
-36.786
-36.334
-35.813
-35.225
-34.571
-33.854
-33.075
-32.239
-31.347
-30.403
-29.41
-28.374
-27.297
-26.186
-25.044
-23.878
-22.693
-21.496
-20.293
-19.09
-17.894
-16.712
-15.551
-14.419
-13.321
-12.267
-11.262
-10.315
-9.433
-8.623
-7.892
-7.247
-6.694
-6.239
-5.886
-5.64
-5.505
-5.485
-5.582
-5.798
-6.134
-6.592
-7.17
-7.867
-8.683
-9.614
-10.656
-11.806
-13.058
-14.405
-15.841
-17.358
-18.948
-20.603
-22.314
-24.07
-25.863
-27.68
-29.512
-31.346
-33.17
-34.974
-36.745
-38.47
-40.14
-41.743
-43.268
-44.706
-46.047
-47.283
-48.405
-49.409
-50.286
-51.032
-51.642
-52.115
-52.449
-52.644
-52.702
-52.627
-52.422
-52.098
-51.664
-51.131
-50.512
-49.82
-49.072
-48.284
-47.471
-46.65
-45.835
-45.042
-44.288
-43.593
-42.977
-42.458
-42.055
-41.786
-41.667
-41.716
-41.945
-42.358
-42.961
-43.761
-44.767
-45.997
-47.47
-49.195
-51.183
-53.436
-55.947
-58.706
-61.689
-64.849
-68.143
-71.524
-74.948
-78.386
-81.803
-85.155
-88.394
-91.451
-94.254
-96.75
-98.882
-100.609
-101.928
-102.855
-103.441
-103.781
-103.958
-104.071
-104.233
-104.532
-105.075
-105.971
-107.316
-109.294
-112.147
-116.004
-120.922
-126.798
-133.268
-139.949
-146.427
-152.055
-156.156
-158.301
-158.234
-156.198
-153.133
-150.077
-148.086
-148.464
-151.427
-155.75
-160.407
-163.682
-165.518
-168.658
-172.782
-174.747
-166.896
-136.812
-76.723
14.475
130.86
260.393
390.499
510.423
613.009
692.169
745.533
776.178
785.462
777.462
754.586
710.727
643.746
552.97
438.698
311.162
179.527
50.317
-68.639
-174.757
-266.414
-341.033
-398.05
-436.919
-457.837
-462.043
-451.537
-429.565
-399.595
-364.964
-328.76
-293.016
-259.342
-229.7
-205.374
-186.555
-172.814
-163.082
-156.092
-151.039
-147.127
-142.992
-137.361
-129.68
-119.978
-108.825
-97.05
-85.228
-73.861
-63.77
-55.819
-50.485
-47.882
-47.772
-49.687
-53.219
-58.005
-63.582
-69.442
-75.178
-80.47
-85.104
-88.965
-91.962
-94.035
-95.168
-95.391
-94.738
-93.263
-91.038
-88.14
-84.666
-80.72
-76.392
-71.759
-66.921
-61.987
-57.077
-52.312
-47.774
-43.507
-39.549
-35.92
-32.626
-29.662
-26.997
-24.587
-22.393
-20.384
-18.532
-16.815
-15.202
-13.658
-12.141
-10.613
-9.043
-7.417
-5.722
-3.95
-2.1
-0.178
1.806
3.831
5.882
7.946
10.013
12.072
14.112
16.118
18.073
19.962
21.769
23.481
25.082
26.557
27.894
29.08
30.105
30.96
31.635
32.119
32.404
32.478
32.334
31.964
31.362
30.522
29.441
28.118
26.553
24.748
22.706
20.432
17.932
15.214
12.285
9.157
5.841
2.348
-1.306
-5.109
-9.044
-13.094
-17.244
-21.475
-25.77
-30.109
-34.474
-38.848
-43.21
-47.544
-51.83
-56.05
-60.189
-64.23
-68.156
-71.953
-75.608
-79.108
-82.441
-85.598
-88.57
-91.35
-93.931
-96.309
-98.482
-100.446
-102.2
-103.747
-105.086
-106.222
-107.157
-107.898
-108.45
-108.821
-109.019
-109.053
-108.934
-108.671
-108.275
-107.759
-107.134
-106.412
-105.605
-104.727
-103.789
-102.804
-101.783
-100.74
-99.685
-98.63
-97.584
-96.558
-95.56
-94.6
-93.683
-92.819
-92.012
-91.268
-90.591
-89.986
-89.455
-89
-88.623
-88.323
-88.101
-87.955
-87.883
-87.883
-87.951
-88.083
-88.275
-88.523
-88.821
-89.163
-89.545
-89.959
-90.401
-90.863
-91.339
-91.824
-92.311
-92.794
-93.267
-93.726
-94.165
-94.579
-94.964
-95.315
-95.63
-95.904
-96.136
-96.321
-96.459
-96.548
-96.586
-96.573
-96.509
-96.394
-96.228
-96.013
-95.75
-95.441
-95.088
-94.692
-94.256
-93.783
-93.275
-92.735
-92.165
-91.569
-90.949
-90.309
-89.651
-88.977
-88.291
-87.595
-86.891
-86.182
-85.468
-84.753
-84.037
-83.322
-82.608
-81.897
-81.189
-80.485
-79.785
-79.087
-78.392
-77.699
-77.005
-76.311
-75.612
-74.908
-74.195
-73.471
-72.734
-71.981
-71.208
-70.414
-69.596
-68.749
-67.872
-66.961
-66.013
-65.026
-63.995
-62.92
-61.796
-60.622
-59.395
-58.114
-56.778
-55.384
-53.934
-52.425
-50.859
-49.236
-47.556
-45.824
-44.04
-42.21
-40.337
-38.427
-36.49
-34.533
-32.566
-30.601
-28.648
-26.72
-24.829
-22.986
-21.203
-19.491
-17.86
-16.324
-14.893
-13.58
-12.398
-11.36
-10.475
-9.753
-9.203
-8.828
-8.632
-8.617
-8.782
-9.134
-9.68
-10.427
-11.38
-12.541
-13.909
-15.476
-17.227
-19.137
-21.172
-23.292
-25.458
-27.634
-29.786
-31.88
-33.872
-35.711
-37.345
-38.717
-39.785
-40.511
-40.849
-40.777
-40.304
-39.471
-38.36
-37.071
-35.646
-34.142
-32.73
-31.573
-30.854
-30.756
-31.319
-32.62
-34.874
-38.205
-42.377
-46.99
-51.489
-55.297
-58.199
-59.91
-59.927
-57.953
-54.373
-50.077
-46.13
-43.669
-43.344
-45.643
-51.215
-59.431
-67.613
-72.608
-72.239
-67.085
-59.993
-51.346
-36.054
-3.427
57.08
148.906
266.204
394.576
519.322
631.132
725.809
803.609
864.05
904.235
920.456
909.049
868.828
801.044
708.628
597.059
472.547
340.27
206.314
74.718
-51.093
-163.564
-257.448
-327.93
-370.978
-390.847
-391.93
-378.559
-357.334
-329.975
-298.072
-264.659
-230.8
-198.881
-171.573
-149.793
-133.659
-122.418
-114.659
-109.051
-104.743
-100.909
-96.276
-89.658
-80.544
-68.98
-55.552
-41.122
-26.331
-11.78
1.638
13.003
21.789
27.833
31.309
32.631
32.164
30.231
27.294
23.865
20.306
16.879
13.765
11.044
8.829
7.268
6.421
6.297
6.898
8.192
10.138
12.704
15.811
19.364
23.272
27.448
31.819
36.326
40.881
45.395
49.777
53.927
57.783
61.305
64.464
67.26
69.707
71.823
73.646
75.225
76.598
77.805
78.878
79.84
80.726
81.572
82.422
83.323
84.312
85.411
86.642
88.018
89.543
91.221
93.045
95.001
97.077
99.264
101.554
103.938
106.407
108.946
111.539
114.169
116.816
119.464
122.094
124.685
127.221
129.682
132.052
134.315
136.456
138.456
140.298
141.965
143.44
144.709
145.756
146.567
147.13
147.437
147.477
147.246
146.738
145.952
144.885
143.54
141.918
140.025
137.867
135.453
132.792
129.896
126.777
123.45
119.932
116.237
112.386
108.394
104.283
100.072
95.78
91.428
87.035
82.623
78.209
73.814
69.456
65.152
60.92
56.776
52.734
48.808
45.009
41.35
37.839
34.484
31.291
28.266
25.411
22.728
20.218
17.88
15.711
13.707
11.864
10.176
8.634
7.231
5.958
4.805
3.761
2.816
1.958
1.175
0.457
-0.21
-0.834
-1.429
-2.005
-2.571
-3.137
-3.713
-4.305
-4.922
-5.569
-6.252
-6.975
-7.742
-8.554
-9.413
-10.319
-11.272
-12.27
-13.311
-14.391
-15.506
-16.652
-17.822
-19.011
-20.212
-21.418
-22.621
-23.813
-24.988
-26.137
-27.251
-28.325
-29.35
-30.32
-31.229
-32.071
-32.84
-33.534
-34.147
-34.679
-35.127
-35.49
-35.77
-35.967
-36.084
-36.124
-36.09
-35.988
-35.822
-35.599
-35.324
-35.006
-34.652
-34.269
-33.866
-33.452
-33.035
-32.626
-32.233
-31.864
-31.53
-31.238
-30.997
-30.816
-30.7
-30.658
-30.696
-30.818
-31.031
-31.337
-31.739
-32.238
-32.835
-33.528
-34.317
-35.197
-36.165
-37.215
-38.341
-39.537
-40.796
-42.108
-43.466
-44.86
-46.28
-47.715
-49.154
-50.586
-51.999
-53.381
-54.721
-56.005
-57.224
-58.364
-59.415
-60.366
-61.206
-61.924
-62.511
-62.957
-63.254
-63.395
-63.374
-63.186
-62.829
-62.299
-61.596
-60.723
-59.679
-58.47
-57.099
-55.57
-53.893
-52.073
-50.122
-48.049
-45.866
-43.586
-41.227
-38.805
-36.338
-33.846
-31.345
-28.857
-26.404
-24.007
-21.689
-19.47
-17.368
-15.403
-13.596
-11.967
-10.536
-9.316
-8.319
-7.556
-7.036
-6.772
-6.772
-7.034
-7.554
-8.324
-9.34
-10.606
-12.127
-13.896
-15.903
-18.137
-20.581
-23.221
-26.039
-28.991
-32.034
-35.114
-38.171
-41.172
-44.081
-46.872
-49.522
-51.977
-54.168
-56.038
-57.522
-58.581
-59.23
-59.463
-59.26
-58.699
-57.894
-57.086
-56.66
-56.834
-57.644
-59.079
-61.099
-63.714
-66.937
-70.429
-73.388
-75.198
-75.595
-74.63
-72.585
-69.467
-65.112
-59.853
-54.894
-51.581
-50.757
-52.819
-57.65
-65.284
-76.296
-89.734
-102.257
-110.547
-111.742
-106.096
-97.638
-86.893
-70.513
-40.883
13.12
95.608
204.182
331.758
465.828
596.181
713.268
805.775
866.339
890.769
879.906
842.391
785.356
711.81
622.076
511.825
382.537
243.347
104.798
-20.383
-126.385
-215.383
-289.435
-351.89
-403.166
-439.713
-460.645
-466.214
-457.641
-438.697
-412.392
-380.846
-346.316
-310.102
-272.981
-236.162
-201.144
-169.019
-140.686
-116.786
-97.221
-81.866
-70.768
-63.465
-58.931
-56.163
-54.02
-51.428
-48.055
-43.783
-38.481
-32.358
-25.876
-19.533
-13.997
-9.947
-7.558
-6.763
-7.454
-9.346
-12.122
-15.46
-18.924
-22.05
-24.588
-26.413
-27.443
-27.706
-27.221
-26.007
-24.16
-21.794
-18.996
-15.841
-12.382
-8.644
-4.683
-0.572
3.633
7.867
12.072
16.196
20.162
23.915
27.431
30.704
33.751
36.593
39.249
41.745
44.116
46.392
48.603
50.773
52.918
55.057
57.216
59.419
61.702
64.086
66.581
69.189
71.907
74.726
77.639
80.628
83.669
86.74
89.822
92.897
95.952
98.968
101.925
104.801
107.574
110.223
112.729
115.071
117.231
119.189
120.929
122.438
123.703
124.714
125.457
125.923
126.101
125.984
125.566
124.842
123.809
122.466
120.813
118.855
116.598
114.048
111.214
108.107
104.738
101.123
97.274
93.209
88.942
84.493
79.879
75.12
70.234
65.243
60.166
55.024
49.839
44.63
39.417
34.222
29.063
23.96
18.929
13.988
9.154
4.44
-0.138
-4.568
-8.839
-12.941
-16.865
-20.605
-24.154
-27.508
-30.665
-33.623
-36.381
-38.94
-41.301
-43.467
-45.441
-47.228
-48.833
-50.261
-51.52
-52.616
-53.557
-54.352
-55.009
-55.537
-55.947
-56.246
-56.446
-56.556
-56.585
-56.542
-56.438
-56.28
-56.078
-55.839
-55.57
-55.279
-54.971
-54.652
-54.328
-54.001
-53.676
-53.355
-53.042
-52.737
-52.443
-52.16
-51.89
-51.631
-51.384
-51.148
-50.922
-50.705
-50.495
-50.292
-50.092
-49.893
-49.695
-49.493
-49.287
-49.074
-48.852
-48.619
-48.375
-48.117
-47.844
-47.557
-47.255
-46.939
-46.609
-46.266
-45.913
-45.551
-45.183
-44.812
-44.441
-44.074
-43.713
-43.364
-43.03
-42.715
-42.423
-42.159
-41.927
-41.731
-41.575
-41.463
-41.399
-41.387
-41.43
-41.53
-41.692
-41.916
-42.204
-42.558
-42.978
-43.464
-44.015
-44.629
-45.306
-46.04
-46.83
-47.67
-48.555
-49.481
-50.442
-51.43
-52.44
-53.462
-54.491
-55.517
-56.533
-57.53
-58.498
-59.43
-60.317
-61.15
-61.92
-62.62
-63.241
-63.774
-64.214
-64.553
-64.785
-64.903
-64.903
-64.78
-64.532
-64.155
-63.65
-63.014
-62.25
-61.358
-60.343
-59.208
-57.958
-56.6
-55.14
-53.585
-51.946
-50.232
-48.453
-46.622
-44.754
-42.864
-40.968
-39.083
-37.226
-35.414
-33.665
-31.995
-30.417
-28.945
-27.592
-26.371
-25.296
-24.381
-23.634
-23.066
-22.684
-22.494
-22.501
-22.705
-23.1
-23.68
-24.442
-25.387
-26.526
-27.865
-29.404
-31.139
-33.064
-35.167
-37.433
-39.837
-42.333
-44.875
-47.415
-49.91
-52.331
-54.641
-56.789
-58.709
-60.323
-61.557
-62.365
-62.717
-62.585
-61.96
-60.85
-59.285
-57.355
-55.183
-52.88
-50.558
-48.321
-46.262
-44.548
-43.434
-43.131
-43.763
-45.329
-47.648
-50.496
-53.647
-56.71
-59.125
-60.406
-60.239
-58.641
-56.124
-53.441
-51.523
-51.457
-54.274
-59.896
-67.128
-74.793
-81.652
-88.461
-96.901
-105.214
-108.117
-96.104
-58.909
7.386
99.056
206.145
317.077
423.902
523.4
614.801
695.761
761.684
806.943
826.816
820.372
788.729
732.499
651.268
544.39
414.537
270.352
126.143
-3.705
-110.215
-191.834
-254.396
-304.628
-345.841
-377.846
-397.353
-402.283
-393.41
-373.62
-347.169
-317.319
-285.986
-254.136
-221.982
-190.296
-160.344
-133.028
-109.107
-88.8
-71.8
-58.131
-47.922
-40.743
-35.784
-32.067
-28.463
-24.467
-20.137
-15.401
-10.237
-4.845
0.433
4.962
7.959
9.106
8.513
6.379
3.006
-1.319
-6.314
-11.501
-16.3
-20.304
-23.317
-25.292
-26.287
-26.346
-25.477
-23.746
-21.272
-18.182
-14.593
-10.598
-6.247
-1.591
3.276
8.241
13.179
17.966
22.528
26.828
30.839
34.545
37.942
41.037
43.861
46.459
48.868
51.119
53.236
55.237
57.151
59.018
60.879
62.779
64.747
66.796
68.94
71.186
73.534
75.981
78.514
81.113
83.763
86.453
89.171
91.908
94.653
97.389
100.101
102.771
105.383
107.922
110.371
112.715
114.939
117.027
118.968
120.75
122.362
123.791
125.025
126.05
126.855
127.43
127.765
127.85
127.679
127.245
126.545
125.577
124.339
122.831
121.056
119.016
116.717
114.162
111.361
108.32
105.049
101.559
97.861
93.969
89.895
85.655
81.265
76.739
72.096
67.353
62.527
57.636
52.697
47.73
42.752
37.78
32.833
27.927
23.079
18.305
13.62
9.039
4.575
0.241
-3.952
-7.993
-11.872
-15.581
-19.113
-22.46
-25.617
-28.579
-31.342
-33.904
-36.264
-38.421
-40.375
-42.128
-43.682
-45.041
-46.209
-47.191
-47.993
-48.621
-49.081
-49.383
-49.533
-49.541
-49.415
-49.165
-48.801
-48.331
-47.766
-47.115
-46.388
-45.594
-44.741
-43.84
-42.899
-41.926
-40.929
-39.916
-38.895
-37.871
-36.853
-35.844
-34.852
-33.88
-32.933
-32.015
-31.128
-30.277
-29.463
-28.688
-27.953
-27.259
-26.607
-25.996
-25.427
-24.9
-24.412
-23.963
-23.553
-23.178
-22.839
-22.533
-22.26
-22.016
-21.802
-21.616
-21.456
-21.321
-21.21
-21.122
-21.056
-21.011
-20.987
-20.984
-21.002
-21.041
-21.102
-21.184
-21.29
-21.419
-21.574
-21.756
-21.965
-22.203
-22.472
-22.773
-23.107
-23.476
-23.881
-24.324
-24.805
-25.326
-25.886
-26.487
-27.128
-27.81
-28.531
-29.292
-30.091
-30.928
-31.8
-32.707
-33.646
-34.615
-35.612
-36.633
-37.675
-38.735
-39.809
-40.891
-41.977
-43.062
-44.141
-45.21
-46.262
-47.292
-48.295
-49.265
-50.197
-51.086
-51.925
-52.709
-53.432
-54.09
-54.677
-55.189
-55.622
-55.972
-56.236
-56.411
-56.494
-56.481
-56.372
-56.164
-55.855
-55.444
-54.931
-54.316
-53.6
-52.785
-51.873
-50.867
-49.772
-48.593
-47.334
-46.001
-44.599
-43.136
-41.62
-40.058
-38.459
-36.833
-35.192
-33.549
-31.918
-30.314
-28.752
-27.245
-25.809
-24.457
-23.202
-22.056
-21.031
-20.138
-19.387
-18.792
-18.366
-18.12
-18.063
-18.202
-18.542
-19.085
-19.831
-20.776
-21.914
-23.242
-24.76
-26.473
-28.385
-30.492
-32.792
-35.275
-37.925
-40.719
-43.625
-46.597
-49.588
-52.558
-55.462
-58.269
-60.937
-63.41
-65.638
-67.567
-69.149
-70.358
-71.16
-71.507
-71.391
-70.839
-69.901
-68.69
-67.288
-65.715
-64.098
-62.66
-61.615
-61.218
-61.628
-62.833
-64.904
-68.004
-71.962
-76.298
-80.416
-83.525
-85.093
-85.001
-83.098
-79.191
-73.587
-67.287
-61.678
-58.405
-58.887
-63.094
-69.684
-77.52
-85.046
-91.912
-100.31
-110.124
-118.4
-118.409
-98.298
-49.387
31.055
139.51
264.752
395.581
521.628
632.64
722.321
784.694
817.399
823.642
806.396
769.77
715.827
643.279
553.43
449.036
334.697
217.358
102.19
-6.937
-106.564
-194.342
-268.375
-327.171
-370.381
-398.737
-413.089
-414.507
-404.523
-384.955
-357.976
-326.01
-291.24
-255.197
-219.494
-185.945
-156.042
-130.926
-111.018
-95.916
-84.98
-77.79
-73.608
-71.251
-69.449
-66.878
-62.82
-57.355
-50.766
-43.296
-35.325
-27.367
-20.107
-14.438
-10.826
-9.225
-9.443
-11.149
-14.013
-17.778
-22.049
-26.273
-30.068
-33.209
-35.548
-37.102
-37.884
-37.864
-37.089
-35.644
-33.601
-31.054
-28.079
-24.717
-21.023
-17.054
-12.863
-8.539
-4.169
0.166
4.371
8.39
12.189
15.738
19.035
22.089
24.915
27.544
30.018
32.367
34.618
36.796
38.917
41.011
43.11
45.248
47.464
49.783
52.22
54.789
57.493
60.329
63.292
66.367
69.533
72.773
76.07
79.409
82.777
86.158
89.532
92.88
96.18
99.411
102.553
105.585
108.489
111.246
113.837
116.248
118.465
120.474
122.262
123.814
125.118
126.161
126.933
127.425
127.627
127.535
127.143
126.45
125.454
124.159
122.566
120.681
118.511
116.063
113.348
110.377
107.163
103.72
100.064
96.21
92.176
87.981
83.644
79.184
74.621
69.975
65.267
60.517
55.745
50.97
46.212
41.49
36.822
32.225
27.716
23.311
19.025
14.873
10.866
7.017
3.335
-0.171
-3.493
-6.625
-9.561
-12.299
-14.835
-17.168
-19.298
-21.227
-22.956
-24.49
-25.832
-26.989
-27.966
-28.773
-29.415
-29.903
-30.245
-30.451
-30.531
-30.496
-30.356
-30.121
-29.804
-29.414
-28.963
-28.461
-27.918
-27.344
-26.749
-26.142
-25.531
-24.926
-24.333
-23.759
-23.21
-22.693
-22.213
-21.773
-21.377
-21.029
-20.73
-20.481
-20.284
-20.137
-20.041
-19.993
-19.993
-20.037
-20.123
-20.247
-20.405
-20.595
-20.81
-21.047
-21.302
-21.568
-21.842
-22.12
-22.395
-22.664
-22.923
-23.167
-23.394
-23.598
-23.779
-23.932
-24.056
-24.148
-24.208
-24.235
-24.227
-24.186
-24.112
-24.006
-23.87
-23.705
-23.514
-23.3
-23.065
-22.815
-22.552
-22.28
-22.005
-21.731
-21.462
-21.204
-20.962
-20.74
-20.543
-20.376
-20.243
-20.149
-20.098
-20.093
-20.137
-20.234
-20.386
-20.593
-20.859
-21.181
-21.562
-22
-22.492
-23.039
-23.636
-24.281
-24.97
-25.699
-26.464
-27.26
-28.079
-28.917
-29.767
-30.62
-31.469
-32.306
-33.121
-33.908
-34.656
-35.358
-36.005
-36.587
-37.097
-37.526
-37.866
-38.108
-38.246
-38.273
-38.182
-37.969
-37.63
-37.161
-36.56
-35.828
-34.962
-33.965
-32.838
-31.584
-30.207
-28.71
-27.101
-25.386
-23.573
-21.672
-19.696
-17.658
-15.574
-13.459
-11.333
-9.212
-7.116
-5.062
-3.069
-1.152
0.673
2.391
3.984
5.435
6.726
7.843
8.772
9.499
10.016
10.31
10.376
10.218
9.837
9.234
8.402
7.33
6.006
4.429
2.602
0.531
-1.769
-4.28
-6.971
-9.789
-12.679
-15.584
-18.452
-21.246
-23.92
-26.418
-28.675
-30.611
-32.156
-33.256
-33.873
-33.981
-33.574
-32.672
-31.327
-29.628
-27.685
-25.628
-23.596
-21.723
-20.149
-18.99
-18.41
-18.649
-19.869
-22.107
-25.238
-28.944
-32.907
-36.893
-40.505
-43.142
-44.353
-43.925
-42.122
-39.725
-37.36
-35.494
-34.807
-35.999
-39.494
-44.42
-48.248
-48.262
-42.56
-31.815
-18.23
-1.083
23.3
61.817
122.744
208.639
315.875
436.535
557.794
667.585
758.201
823.595
863.198
880.709
877.901
857.285
819.255
760.805
681.997
584.854
472.82
352.288
228.984
107.176
-8.506
-113.81
-205.325
-280.182
-336.523
-374.169
-393.685
-395.688
-382.072
-355.855
-320.275
-278.866
-235.034
-191.275
-149.9
-113.602
-84.146
-61.975
-46.793
-37.509
-32.707
-31.298
-31.966
-32.713
-31.807
-28.415
-22.382
-14.211
-4.68
5.641
16.107
25.686
33.33
38.457
40.937
41.035
39.253
36.019
31.701
26.79
21.849
17.319
13.503
10.574
8.551
7.429
7.229
7.921
9.445
11.743
14.727
18.307
22.411
26.953
31.851
37.037
42.416
47.88
53.325
58.638
63.744
68.604
73.188
77.482
81.488
85.222
88.718
92.018
95.153
98.149
101.019
103.768
106.404
108.929
111.35
113.682
115.935
118.112
120.208
122.208
124.082
125.799
127.339
128.688
129.845
130.82
131.639
132.34
132.985
133.649
134.386
135.23
136.197
137.285
138.504
139.869
141.398
143.1
144.947
146.886
148.842
150.717
152.383
153.684
154.418
154.375
153.375
151.264
147.923
143.256
137.15
129.493
120.173
109.095
96.222
81.564
65.165
47.123
27.577
6.719
-15.2
-37.91
-61.154
-84.692
-108.308
-131.789
-154.896
-177.373
-198.947
-219.357
-238.394
-255.898
-271.749
-285.875
-298.248
-308.885
-317.866
-325.296
-331.279
-335.918
-339.303
-341.537
-342.759
-343.135
-342.862
-342.133
-341.102
-339.896
-338.616
-337.333
-336.103
-334.948
-333.852
-332.786
-331.72
-330.63
-329.504
-328.32
-327.033
-325.583
-323.887
-321.873
-319.496
-316.726
-313.544
-309.948
-305.938
-301.536
-296.784
-291.728
-286.411
-280.871
-275.136
-269.241
-263.229
-257.149
-251.056
-244.993
-238.995
-233.089
-227.297
-221.637
-216.124
-210.762
-205.546
-200.474
-195.541
-190.748
-186.095
-181.582
-177.202
-172.949
-168.816
-164.795
-160.884
-157.076
-153.365
-149.745
-146.212
-142.762
-139.393
-136.103
-132.885
-129.737
-126.651
-123.622
-120.648
-117.722
-114.841
-112.001
-109.198
-106.43
-103.695
-100.992
-98.318
-95.673
-93.055
-90.463
-87.897
-85.357
-82.844
-80.358
-77.901
-75.474
-73.079
-70.717
-68.392
-66.104
-63.856
-61.652
-59.494
-57.384
-55.326
-53.322
-51.375
-49.487
-47.661
-45.896
-44.195
-42.558
-40.986
-39.478
-38.034
-36.653
-35.333
-34.073
-32.872
-31.726
-30.634
-29.592
-28.599
-27.651
-26.743
-25.873
-25.035
-24.225
-23.438
-22.669
-21.912
-21.16
-20.409
-19.652
-18.882
-18.092
-17.275
-16.425
-15.535
-14.598
-13.609
-12.562
-11.453
-10.277
-9.03
-7.711
-6.316
-4.845
-3.296
-1.669
0.036
1.817
3.671
5.597
7.589
9.642
11.751
13.903
16.09
18.301
20.523
22.745
24.951
27.124
29.249
31.31
33.295
35.186
36.968
38.623
40.131
41.478
42.649
43.631
44.411
44.973
45.307
45.406
45.268
44.895
44.283
43.419
42.293
40.899
39.235
37.308
35.127
32.703
30.056
27.221
24.241
21.163
18.039
14.912
11.814
8.775
5.833
3.037
0.456
-1.833
-3.772
-5.326
-6.49
-7.293
-7.757
-7.881
-7.761
-7.603
-7.627
-8.08
-9.073
-10.507
-12.404
-15.015
-18.456
-22.626
-27.263
-31.756
-35.704
-39.246
-42.322
-44.492
-45.389
-44.835
-43.037
-41.093
-40.014
-39.986
-41.452
-44.916
-50.558
-58.711
-68.141
-76.123
-80.841
-80.215
-73.504
-60.439
-36.695
1.384
57.606
134.625
227.199
330.022
437.547
542.603
643.078
734.827
811.114
869.141
905.58
919.186
913.496
887.045
836.708
761.592
658.358
531.503
391.039
245.217
106.719
-16.736
-121.949
-204.667
-267.488
-312.384
-340.293
-355.117
-356.715
-345.994
-326.209
-299.105
-268.075
-236.368
-204.978
-174.865
-147.12
-122.048
-99.964
-81.294
-65.715
-52.737
-42.409
-34.602
-28.649
-24.002
-19.93
-15.498
-10.494
-5.044
0.928
7.3
13.741
19.976
25.45
29.43
31.691
32.303
31.375
29.206
26.08
22.206
17.986
13.945
10.418
7.625
5.706
4.641
4.43
5.098
6.585
8.793
11.632
14.997
18.806
23.01
27.549
32.356
37.365
42.472
47.585
52.614
57.462
62.067
66.387
70.388
74.065
77.429
80.492
83.287
85.849
88.204
90.376
92.389
94.257
96.009
97.678
99.296
100.901
102.52
104.169
105.865
107.612
109.41
111.256
113.141
115.048
116.965
118.882
120.791
122.686
124.557
126.394
128.184
129.913
131.568
133.137
134.607
135.966
137.202
138.304
139.263
140.07
140.718
141.199
141.501
141.618
141.541
141.264
140.78
140.085
139.173
138.043
136.693
135.125
133.34
131.342
129.134
126.722
124.113
121.314
118.335
115.184
111.873
108.414
104.817
101.097
97.268
93.344
89.34
85.27
81.152
77.001
72.833
68.663
64.507
60.381
56.299
52.275
48.325
44.46
40.694
37.038
33.503
30.099
26.835
23.72
20.759
17.959
15.324
12.86
10.567
8.45
6.508
4.741
3.149
1.73
0.481
-0.602
-1.523
-2.288
-2.902
-3.373
-3.707
-3.912
-3.998
-3.971
-3.843
-3.621
-3.316
-2.937
-2.493
-1.994
-1.449
-0.867
-0.257
0.373
1.015
1.661
2.303
2.935
3.549
4.141
4.703
5.233
5.723
6.172
6.576
6.932
7.237
7.491
7.692
7.84
7.936
7.979
7.971
7.913
7.808
7.659
7.467
7.237
6.97
6.671
6.343
5.989
5.613
5.217
4.805
4.381
3.946
3.505
3.06
2.614
2.168
1.727
1.29
0.862
0.442
0.032
-0.366
-0.752
-1.124
-1.483
-1.828
-2.16
-2.478
-2.783
-3.076
-3.359
-3.632
-3.897
-4.155
-4.409
-4.658
-4.905
-5.15
-5.395
-5.639
-5.885
-6.131
-6.379
-6.629
-6.879
-7.13
-7.381
-7.63
-7.876
-8.118
-8.352
-8.578
-8.791
-8.991
-9.173
-9.337
-9.477
-9.592
-9.679
-9.733
-9.751
-9.73
-9.665
-9.553
-9.391
-9.174
-8.899
-8.565
-8.168
-7.707
-7.179
-6.586
-5.925
-5.196
-4.401
-3.542
-2.619
-1.637
-0.599
0.489
1.622
2.789
3.982
5.19
6.402
7.606
8.79
9.939
11.043
12.091
13.072
13.975
14.788
15.499
16.094
16.56
16.885
17.059
17.07
16.909
16.569
16.05
15.35
14.47
13.405
12.142
10.671
8.987
7.086
4.97
2.649
0.137
-2.54
-5.341
-8.219
-11.131
-14.03
-16.885
-19.66
-22.312
-24.791
-27.038
-28.991
-30.607
-31.84
-32.659
-33.066
-33.082
-32.763
-32.212
-31.519
-30.783
-30.133
-29.688
-29.582
-29.956
-30.906
-32.562
-35.133
-38.75
-43.446
-49.119
-55.411
-61.943
-68.407
-74.345
-79.161
-82.409
-83.822
-83.587
-82.455
-81.084
-80.064
-80.155
-82.092
-86.533
-92.658
-97.733
-99
-93.844
-83.073
-70.93
-57.488
-40.431
-12.029
41.871
126.15
239.07
371.772
503.169
618.867
710.231
771.759
809.116
824.979
818.803
791.612
740.489
666.136
571.768
459.673
334.043
197.546
56.099
-80.476
-203.328
-302.812
-375.983
-427.252
-460.86
-482.703
-495.472
-496.922
-486.755
-465.691
-435.488
-400.13
-362.568
-324.098
-285.833
-248.921
-214.418
-183.481
-157.146
-135.611
-118.572
-106.005
-97.582
-92.347
-89.386
-87.545
-85.523
-82.832
-79.421
-75.178
-70.286
-65.197
-60.337
-56.395
-54.154
-53.862
-55.44
-58.698
-63.258
-68.734
-74.742
-80.766
-86.244
-90.808
-94.284
-96.629
-97.908
-98.183
-97.505
-95.964
-93.696
-90.828
-87.468
-83.713
-79.626
-75.277
-70.779
-66.244
-61.789
-57.533
-53.546
-49.863
-46.509
-43.491
-40.793
-38.403
-36.284
-34.386
-32.672
-31.102
-29.642
-28.268
-26.943
-25.622
-24.261
-22.813
-21.245
-19.542
-17.69
-15.682
-13.521
-11.209
-8.76
-6.194
-3.526
-0.77
2.062
4.958
7.905
10.885
13.879
16.866
19.827
22.744
25.597
28.366
31.034
33.581
35.992
38.251
40.343
42.25
43.956
45.445
46.7
47.708
48.456
48.932
49.125
49.027
48.634
47.941
46.947
45.652
44.058
42.17
39.992
37.533
34.802
31.811
28.571
25.098
21.408
17.517
13.445
9.212
4.837
0.344
-4.247
-8.912
-13.628
-18.371
-23.119
-27.849
-32.537
-37.162
-41.7
-46.132
-50.437
-54.596
-58.591
-62.407
-66.028
-69.442
-72.637
-75.603
-78.332
-80.818
-83.057
-85.045
-86.78
-88.264
-89.498
-90.486
-91.233
-91.745
-92.031
-92.099
-91.96
-91.626
-91.109
-90.423
-89.581
-88.597
-87.488
-86.269
-84.955
-83.562
-82.106
-80.603
-79.067
-77.514
-75.958
-74.412
-72.889
-71.401
-69.959
-68.572
-67.25
-66.001
-64.832
-63.747
-62.754
-61.853
-61.05
-60.343
-59.736
-59.226
-58.812
-58.493
-58.264
-58.124
-58.065
-58.085
-58.177
-58.334
-58.55
-58.819
-59.133
-59.486
-59.87
-60.279
-60.705
-61.143
-61.587
-62.032
-62.472
-62.902
-63.319
-63.72
-64.102
-64.462
-64.8
-65.114
-65.404
-65.671
-65.916
-66.139
-66.344
-66.532
-66.705
-66.868
-67.022
-67.172
-67.322
-67.476
-67.638
-67.812
-68.003
-68.216
-68.454
-68.72
-69.019
-69.354
-69.726
-70.137
-70.59
-71.085
-71.623
-72.203
-72.823
-73.484
-74.182
-74.914
-75.676
-76.464
-77.273
-78.097
-78.93
-79.765
-80.596
-81.417
-82.219
-82.996
-83.741
-84.445
-85.1
-85.7
-86.235
-86.698
-87.082
-87.38
-87.584
-87.689
-87.69
-87.582
-87.36
-87.022
-86.563
-85.983
-85.279
-84.451
-83.502
-82.433
-81.247
-79.95
-78.549
-77.051
-75.467
-73.806
-72.08
-70.303
-68.488
-66.652
-64.814
-62.988
-61.19
-59.435
-57.738
-56.114
-54.578
-53.142
-51.817
-50.614
-49.546
-48.626
-47.868
-47.277
-46.849
-46.582
-46.469
-46.51
-46.712
-47.079
-47.61
-48.307
-49.166
-50.189
-51.375
-52.708
-54.15
-55.654
-57.172
-58.668
-60.13
-61.557
-62.937
-64.23
-65.376
-66.307
-66.958
-67.303
-67.307
-66.897
-66.079
-64.935
-63.624
-62.46
-61.737
-61.537
-61.915
-62.914
-64.334
-66.016
-67.799
-69.131
-69.568
-69.039
-67.426
-64.832
-61.829
-58.707
-55.641
-53.327
-52.256
-52.656
-55.065
-59.636
-65.967
-73.932
-83.391
-93.827
-104.688
-115.045
-123.387
-127.261
-124.35
-113.509
-92.838
-62.445
-22.968
28.89
94.199
174.036
269.471
373.745
479.714
580.564
667.827
738.103
788.816
816.609
819.954
797.703
749.864
677.478
583.513
470.709
342.57
207.412
72.525
-54.108
-164.051
-256.237
-330.249
-386.084
-426.609
-450.916
-458.473
-451.176
-430.757
-401.062
-366.371
-329.612
-292.869
-257.61
-225.238
-196.939
-173.406
-154.615
-139.718
-127.668
-117.888
-109.729
-102.239
-94.475
-85.465
-74.827
-62.958
-50.434
-37.728
-25.356
-13.872
-3.918
3.721
8.676
11.061
11.155
9.362
6.077
1.623
-3.582
-9.01
-14.256
-19.051
-23.212
-26.657
-29.29
-31.003
-31.762
-31.586
-30.529
-28.667
-26.068
-22.797
-18.935
-14.565
-9.772
-4.648
0.716
6.229
11.8
17.337
22.745
27.95
32.907
37.589
42.001
46.161
50.086
53.805
57.356
60.767
64.07
67.289
70.443
73.553
76.646
79.75
82.898
86.115
89.412
92.794
96.258
99.794
103.393
107.037
110.702
114.367
118.013
121.622
125.182
128.677
132.089
135.398
138.584
141.629
144.516
147.228
149.749
152.065
154.161
156.028
157.659
159.044
160.175
161.046
161.648
161.976
162.028
161.797
161.283
160.483
159.397
158.028
156.38
154.457
152.266
149.818
147.123
144.195
141.051
137.706
134.176
130.482
126.639
122.668
118.582
114.397
110.131
105.802
101.432
97.039
92.643
88.262
83.915
79.619
75.39
71.241
67.176
63.204
59.336
55.59
51.994
48.57
45.337
42.313
39.505
36.918
34.553
32.396
30.419
28.593
26.89
25.291
23.788
22.368
21.007
19.673
18.322
16.915
15.423
13.831
12.144
10.386
8.595
6.821
5.127
3.582
2.265
1.233
0.518
0.135
0.089
0.49
1.545
3.366
5.973
9.252
12.879
16.568
20.079
22.917
24.43
24.279
22.31
18.713
14.463
10.608
8.137
8.621
12.128
15.729
16.236
10.738
1.162
-1.75
11.678
43.114
79.079
88.117
39.341
-80.567
-256.769
