Name,John Breau
Date of Birth,"Dec 20, 1971"
Recorded Date,2023-12-19 18:49:09 -0500
Classification,Sinus Rhythm
Symptoms,
Software Version,1.90
Device,"Watch6,3"
Sample Rate,512 hertz


Lead,Lead I
Unit,µV

-201.693
-227.093
-255.219
-287.416
-323.856
-363.612
-405.022
-445.46
-482.677
-515.166
-540.656
-556.217
-560.326
-552.731
-534.519
-508.354
-476.417
-440.128
-401.51
-362.991
-326.202
-292.101
-260.636
-230.568
-201.186
-172.416
-143.952
-115.438
-86.729
-57.761
-28.933
-1.154
25.087
49.717
72.705
94.207
114.406
133.401
151.471
169.045
186.347
203.472
220.475
237.196
253.421
269.054
283.992
298.137
311.49
324.038
335.656
346.544
357.341
368.097
378.336
387.975
396.492
404.807
416.063
429.442
441.588
446.756
434.852
404.836
363.571
322.956
302.285
309.528
342.053
387.563
422.028
431
408.456
360.58
308.017
264.76
239.906
233.489
233.738
233.263
227.723
215.97
202.387
189.019
175.892
163.221
150.297
137.035
124.181
112.028
100.615
90.04
80.326
71.476
63.509
56.398
50.07
44.522
39.82
36
33.081
31.075
29.978
29.796
30.544
32.225
34.836
38.363
42.775
48.039
54.111
60.931
68.424
76.492
85.024
93.936
103.156
112.63
122.329
132.208
142.227
152.353
162.528
172.702
182.837
192.863
202.727
212.407
221.898
231.248
240.523
249.716
258.784
267.65
276.185
284.272
291.775
298.51
304.344
309.171
312.904
315.529
317.02
317.293
316.248
313.724
309.54
303.611
295.894
286.364
275.067
262.046
247.382
231.245
213.742
194.907
174.75
153.192
130.193
105.819
80.151
53.336
25.566
-3.02
-32.265
-61.964
-91.95
-122.043
-152.067
-181.915
-211.385
-240.165
-267.926
-294.274
-318.868
-341.484
-361.909
-379.97
-395.559
-408.574
-418.98
-426.833
-432.187
-435.112
-435.721
-434.114
-430.494
-425.178
-418.478
-410.727
-402.221
-393.173
-383.801
-374.314
-364.868
-355.591
-346.565
-337.808
-329.346
-321.214
-313.407
-305.915
-298.672
-291.548
-284.448
-277.301
-270.059
-262.721
-255.288
-247.754
-240.152
-232.545
-225.01
-217.649
-210.545
-203.749
-197.326
-191.347
-185.882
-181.019
-176.805
-173.234
-170.3
-167.978
-166.242
-165.095
-164.52
-164.474
-164.918
-165.805
-167.113
-168.863
-171.084
-173.777
-176.958
-180.635
-184.838
-189.665
-195.185
-201.431
-208.419
-216.094
-224.379
-233.211
-242.501
-252.125
-261.926
-271.677
-281.125
-290.068
-298.306
-305.64
-311.866
-316.704
-319.915
-321.332
-320.827
-318.353
-313.904
-307.475
-299.101
-288.894
-277.009
-263.675
-249.17
-233.704
-217.474
-200.686
-183.546
-166.321
-149.254
-132.522
-116.266
-100.592
-85.578
-71.311
-57.852
-45.189
-33.281
-22.047
-11.372
-1.197
8.516
17.811
26.722
35.306
43.611
51.646
59.397
66.852
74
80.837
87.359
93.525
99.283
104.581
109.353
113.564
117.199
120.245
122.702
124.576
125.886
126.662
126.945
126.773
126.179
125.197
123.868
122.23
120.309
118.159
115.861
113.48
111.087
108.726
106.386
104.097
101.951
99.943
97.973
95.973
93.865
91.659
89.533
87.555
85.578
83.773
82.768
82.756
83.563
85.261
87.226
90.493
98.788
111.518
125.106
134.035
127.642
105.914
79.692
59.592
60.671
84.745
117.373
147.287
162.634
160.657
152.082
143.733
140.013
142.558
147.07
151.507
156.091
160.632
165.689
171.298
176.75
181.785
186.47
190.801
194.717
198.164
201.117
203.585
205.617
207.2
208.167
208.308
207.536
205.829
203.269
200.051
196.306
192.14
187.66
182.938
178.064
173.142
168.273
163.579
159.174
155.162
151.701
148.936
147.014
146.212
146.483
147.417
148.65
149.688
150.31
150.89
151.428
151.337
150.599
149.826
149.906
152.433
158.065
165.649
174.496
184.798
196.084
207.241
216.294
219.564
214.653
202.362
183.775
159.572
131.313
100.812
71.041
47.777
36.079
37.598
52.946
82.161
124.111
178.18
243.052
314.364
387.436
459.124
526.795
588.73
644.091
690.789
725.972
748
755.551
747.842
724.479
684.46
626.259
549.244
455.101
347.315
230.34
108.122
-15.407
-135.677
-246.99
-342.768
-418.844
-474.115
-509.061
-524.755
-522.885
-505.677
-477.012
-442.766
-407.29
-372.828
-340.681
-311.206
-284.47
-260.614
-238.665
-216.428
-192.692
-167.218
-140.217
-112.625
-85.279
-58.74
-33.992
-12.266
5.777
19.916
30.235
37.252
41.519
43.504
43.815
43.15
42.072
41.011
40.422
40.665
41.706
43.49
46.447
50.741
56.401
64.108
72.028
78.342
85.444
93.937
108.198
133.472
163.431
193.788
218.297
228.51
231.617
233.701
238.906
254.183
274.476
294.685
313.702
328.446
340.739
352.94
364.667
376.292
387.748
398.657
409.413
420.332
431.384
442.593
454.018
465.672
477.55
489.642
501.894
514.247
526.722
539.336
552.074
564.925
577.871
590.886
603.95
617.045
630.143
643.217
656.24
669.188
682.035
694.755
707.325
719.715
731.892
743.822
755.466
766.787
777.748
788.31
798.433
808.079
817.211
825.794
833.793
841.175
847.908
853.961
859.303
863.908
867.749
870.802
873.047
874.464
875.038
874.757
873.611
871.596
868.71
864.952
860.328
854.843
848.51
841.34
833.351
824.562
814.994
804.673
793.626
781.883
769.478
756.444
742.817
728.635
713.939
698.768
683.165
667.171
650.83
634.184
617.28
600.163
582.879
565.473
547.991
530.479
512.982
495.543
478.206
461.011
443.997
427.204
410.669
394.426
378.51
362.952
347.781
333.026
318.713
304.866
291.505
278.647
266.308
254.501
243.236
232.52
222.356
212.746
203.692
195.195
187.253
179.859
173.005
166.683
160.881
155.587
150.778
146.429
142.513
139.002
135.87
133.093
130.64
128.483
126.59
124.934
123.492
122.236
121.132
120.131
119.183
118.252
117.325
116.397
115.458
114.493
113.488
112.442
111.368
110.268
109.114
107.842
106.381
104.688
102.753
100.602
98.253
95.679
92.841
89.726
86.362
82.785
78.981
74.843
70.254
65.22
59.777
53.929
47.617
40.743
33.278
25.35
17.109
8.524
-0.223
-8.462
-15.678
-21.737
-26.661
-30.985
-33.341
-29.91
-19.352
-4.226
6.473
-0.617
-30.77
-76.834
-120.131
-138.84
-123.917
-83.823
-39.478
-11.217
-7.319
-22.542
-43.577
-60.078
-68.681
-71.231
-72.234
-73.813
-75.73
-77.598
-78.97
-80.111
-81.674
-83.718
-86.074
-88.779
-91.861
-95.022
-97.901
-100.511
-102.72
-104.778
-107.762
-109.742
-108.97
-108.125
-107.426
-113.503
-133.703
-159.121
-184.806
-199.4
-188.344
-165.839
-142.452
-128.674
-141.34
-166.065
-189.091
-207.446
-211.451
-212.274
-225.179
-246.315
-272.381
-294.25
-295.615
-279.222
-257.79
-240.02
-239.965
-260.639
-288.859
-317.07
-337.62
-345.036
-346.89
-348.031
-349.969
-355.793
-363.2
-370.092
-377.157
-384.02
-390.833
-398.12
-405.563
-412.892
-420.181
-427.406
-434.504
-441.525
-448.501
-455.427
-462.349
-469.312
-476.318
-483.399
-490.553
-497.757
-505.091
-512.624
-520.397
-528.481
-536.834
-545.358
-554.119
-563.23
-572.407
-581.316
-590.159
-598.919
-607.532
-616.723
-624.543
-629.095
-633.087
-637.336
-646.811
-667.462
-692.68
-718.056
-737.026
-740.585
-736.667
-731.993
-731.167
-741.802
-758.419
-775.463
-791.677
-803.662
-813.352
-823.236
-832.8
-842.336
-851.655
-860.24
-868.436
-876.506
-884.341
-891.897
-899.181
-906.164
-912.808
-919.073
-924.847
-930.002
-934.495
-938.299
-941.397
-943.779
-945.403
-946.207
-946.114
-945.099
-943.205
-940.473
-936.923
-932.54
-927.282
-921.193
-914.47
-907.354
-900.103
-892.944
-885.951
-879.261
-873.152
-867.706
-862.863
-858.269
-853.117
-846.705
-838.693
-828.811
-816.916
-803.469
-789.121
-774.808
-762.299
-753.102
-748.185
-748.46
-753.901
-762.13
-770.079
-774.951
-772.398
-760.927
-739.422
-702.025
-646.693
-570.493
-471.448
-360.603
-247.337
-143.364
-63.332
-5.795
30.78
49.532
58.662
53.011
27.591
-18.48
-86.602
-169.024
-257.104
-347.339
-435.852
-519.546
-594.812
-655.42
-697.36
-720.624
-726.369
-715.857
-690.852
-653.127
-606.026
-555.223
-504.923
-457.126
-412.953
-372.662
-336.305
-304.087
-275.098
-247.133
-218.836
-189.804
-160.068
-130.354
-101.283
-73.229
-47.029
-23.805
-4.203
11.55
23.564
32.343
38.337
41.883
43.495
43.768
43.216
42.289
41.262
40.274
39.487
39.106
39.351
40.386
42.29
45.079
48.731
53.207
58.447
64.356
70.766
77.486
84.329
91.111
97.727
104.108
110.193
115.929
121.258
126.147
130.598
134.637
138.291
141.583
144.539
147.194
149.622
151.909
154.138
156.397
158.743
161.212
163.841
166.653
169.663
172.874
176.275
179.839
183.555
187.419
191.428
195.578
199.847
204.195
208.581
212.973
217.34
221.652
225.879
229.981
233.926
237.705
241.324
244.766
248.004
251.004
253.703
256.056
258.114
259.895
261.411
262.803
264.101
265.235
266.284
267.235
267.893
268.314
268.501
267.85
266.165
264.117
261.89
259.7
258.589
256.343
250.684
244.599
238.56
236.031
244.065
256.8
266.999
268.613
249.006
210.527
166.831
128.101
107.385
108.039
119.736
133.773
146.029
156.154
164.84
172.471
173.534
160.881
139.488
114.971
93.302
82.054
76.667
72.252
67.583
59.99
51.546
44.154
36.938
29.852
22.629
15.022
7.447
0.082
-7.191
-14.358
-21.316
-27.963
-34.291
-40.379
-46.318
-52.191
-57.974
-63.606
-69.073
-74.364
-79.47
-84.39
-89.112
-93.613
-97.888
-101.925
-105.716
-109.254
-112.528
-115.522
-118.224
-120.616
-122.689
-124.445
-125.881
-126.995
-127.783
-128.237
-128.352
-128.125
-127.552
-126.631
-125.358
-123.73
-121.746
-119.408
-116.718
-113.679
-110.295
-106.57
-102.508
-98.115
-93.398
-88.364
-83.019
-77.372
-71.427
-65.194
-58.68
-51.891
-44.837
-37.524
-29.961
-22.157
-14.121
-5.862
2.609
11.281
20.144
29.185
38.391
47.75
57.248
66.871
76.605
86.435
96.348
106.33
116.369
126.451
136.566
146.702
156.849
166.997
177.135
187.255
197.347
207.401
217.409
227.36
237.246
247.058
256.787
266.425
275.964
285.396
294.716
303.917
312.993
321.94
330.753
339.431
347.971
356.372
364.633
372.756
380.741
388.589
396.302
403.881
411.326
418.638
425.816
432.861
439.77
446.543
453.177
459.67
466.02
472.225
478.282
484.188
489.94
495.535
500.969
506.239
511.342
516.272
521.027
525.6
529.988
534.19
538.201
542.005
545.594
548.957
552.086
554.982
557.636
560.02
562.135
564.01
565.663
567.121
568.383
569.393
570.139
570.678
570.972
570.903
570.381
569.306
567.667
565.623
563.228
560.327
557.084
554.102
551.531
549.199
547.193
544.909
543.464
546.566
553.569
561.038
563.523
550.552
522.403
489.71
462.94
456.968
473.265
497.686
519.261
526.303
516.37
500.024
483.887
472.324
466.834
463.134
459.188
455.172
450.926
447.091
443.845
440.603
437.198
433.72
430.112
426.312
422.297
418.08
413.754
409.426
405.066
400.658
396.317
392.147
388.241
384.62
381.131
377.679
374.393
371.101
367.114
362.227
356.722
350.535
344.24
336.844
324.4
307.42
289.921
277.679
281.881
302.858
328.978
348.696
345.337
316.306
277.34
240.46
219.303
216.585
216.848
213.376
205.111
195.024
200.508
225.582
256.568
282.221
281.673
247.319
200.845
158.018
137.175
149.613
176.368
203.726
222.378
222.944
215.048
206.099
197.009
191.17
185.814
178.169
169.365
159.352
148.292
136.897
125.103
112.959
101.027
89.75
79.414
70.465
63.492
59.053
57.877
60.767
68.083
79.898
95.965
115.628
138.374
163.957
191.839
221.159
251.552
283.152
316.874
354.556
397.173
444.271
495.061
548.664
603.212
656.295
704.419
742.222
765.353
771.609
759.524
728.319
678.71
611.839
529.845
437.585
339.974
240.745
143.862
53.124
-28.92
-99.711
-156.902
-200.445
-231.092
-249.525
-257.676
-258.144
-252.646
-243.016
-231.437
-218.836
-205.702
-192.543
-178.768
-163.217
-145.566
-125.7
-103.437
-79.357
-54.106
-28.207
-2.771
20.946
42.174
60.316
74.946
86.064
93.698
97.905
99.005
97.361
93.336
87.361
79.832
71.142
61.697
51.882
42.071
32.597
23.723
15.674
8.649
2.774
-1.865
-5.226
-7.328
-8.213
-7.967
-6.719
-4.622
-1.869
1.346
4.837
8.4
11.873
15.142
18.105
20.684
22.832
24.507
25.69
26.393
26.627
26.411
25.778
24.765
23.428
21.833
20.049
18.154
16.208
14.249
12.31
10.415
8.574
6.799
5.092
3.44
1.839
0.29
-1.21
-2.659
-4.061
-5.426
-6.765
-8.091
-9.417
-10.749
-12.097
-13.467
-14.866
-16.296
-17.762
-19.263
-20.802
-22.387
-24.024
-25.724
-27.497
-29.351
-31.298
-33.352
-35.524
-37.825
-40.268
-42.863
-45.622
-48.558
-51.683
-55.01
-58.55
-62.318
-66.325
-70.584
-75.105
-79.901
-84.98
-90.353
-96.025
-102.006
-108.3
-114.913
-121.849
-129.112
-136.704
-144.625
-152.876
-161.455
-170.36
-179.588
-189.131
-198.985
-209.139
-219.585
-230.312
-241.305
-252.553
-264.039
-275.747
-287.659
-299.755
-312.017
-324.423
-336.95
-349.576
-362.275
-375.023
-387.795
-400.564
-413.304
-425.989
-438.591
-451.085
-463.444
-475.642
-487.654
-499.453
-511.014
-522.314
-533.329
-544.036
-554.412
-564.438
-574.093
-583.36
-592.223
-600.667
-608.678
-616.246
-623.361
-630.016
-636.203
-641.92
-647.162
-651.929
-656.222
-660.044
-663.397
-666.29
-668.728
-670.723
-672.284
-673.425
-674.159
-674.502
-674.47
-674.082
-673.357
-672.314
-670.975
-669.362
-667.5
-665.411
-663.12
-660.653
-658.035
-655.29
-652.443
-649.52
-646.544
-643.538
-640.527
-637.531
-634.573
-631.673
-628.852
-626.13
-623.524
-621.052
-618.73
-616.573
-614.594
-612.804
-611.215
-609.834
-608.669
-607.724
-607.004
-606.509
-606.24
-606.194
-606.368
-606.754
-607.345
-608.13
-609.097
-610.232
-611.518
-612.94
-614.477
-616.111
-617.82
-619.584
-621.378
-623.179
-624.964
-626.705
-628.378
-629.955
-631.408
-632.709
-633.832
-634.746
-635.425
-635.84
-635.964
-635.769
-635.231
-634.323
-633.022
-631.303
-629.145
-626.528
-623.433
-619.844
-615.746
-611.128
-605.979
-600.293
-594.064
-587.29
-579.969
-572.104
-563.697
-554.754
-545.282
-535.292
-524.794
-513.802
-502.333
-490.403
-478.033
-465.244
-452.059
-438.504
-424.604
-410.388
-395.883
-381.121
-366.13
-350.942
-335.589
-320.104
-304.519
-288.866
-273.176
-257.48
-241.807
-226.192
-210.659
-195.227
-179.913
-164.736
-149.711
-134.869
-120.229
-105.783
-91.556
-77.592
-63.917
-50.582
-37.601
-24.902
-12.462
-0.324
11.574
23.342
35.046
46.83
58.746
70.576
82.233
93.857
105.231
115.812
125.585
134.692
142.963
151.338
158.971
161.878
160.858
159.497
162.81
183.513
222.938
267.572
305.82
317.503
295.669
261.272
229.841
219.826
242.217
278.412
315.131
343.344
354.184
357.36
360.269
363.926
371.747
381.152
389.505
397.852
406.041
414.107
422.532
430.999
439.201
447.175
454.865
462.116
468.893
475.255
481.213
486.796
492.035
496.866
501.248
505.189
508.679
511.719
514.321
516.49
518.256
519.67
520.773
521.599
522.169
522.498
522.628
522.614
522.518
522.414
522.349
522.359
522.481
522.707
522.994
523.284
523.487
523.534
523.366
522.894
522.015
520.573
518.378
515.285
511.088
505.535
498.595
490.417
481.367
472.177
463.515
455.871
449.912
446.113
444.291
443.742
443.042
440.369
434.525
424.758
410.292
390.978
367.888
343.561
322.149
307.875
303.828
312.578
336.594
377.948
437.161
511.75
596.62
686.484
776.78
863.037
940.126
1001.537
1041.504
1057.74
1050.386
1020.095
967.379
892.566
797.8
688.699
571.757
451.595
332.101
216.936
110.424
18.328
-55.567
-111.096
-149.501
-172.076
-180.562
-176.682
-163.485
-146.156
-128.414
-111.831
-97.228
-84.694
-74.15
-65.838
-58.954
-51.385
-42.027
-30.733
-17.729
-3.898
10.093
23.915
36.767
47.464
55.216
59.639
60.73
58.931
54.619
48.095
39.8
30.277
20.142
9.949
0.052
-9.37
-18.213
-26.36
-33.656
-39.93
-45.06
-49.007
-51.793
-53.461
-54.062
-53.692
-52.506
-50.734
-48.686
-46.629
-44.736
-43.122
-41.847
-40.962
-40.535
-40.618
-41.231
-42.369
-44.027
-46.2
-48.897
-52.099
-55.757
-59.778
-64.037
-68.43
-72.889
-77.357
-81.806
-86.198
-90.476
-94.631
-98.69
-102.665
-106.566
-110.361
-113.959
-117.327
-120.505
-123.428
-125.961
-127.998
-129.422
-130.219
-130.539
-130.399
-129.595
-128.325
-127.238
-126.429
-125.73
-125.238
-124.223
-124.177
-129.077
-137.733
-146.669
-149.593
-135.187
-105.113
-70.497
-42.761
-38.072
-56.146
-81.967
-104.065
-109.697
-97.706
-79.389
-61.314
-48.256
-41.249
-35.813
-30.135
-24.277
-18.085
-12.168
-6.632
-1.07
4.559
10.229
15.694
20.361
24.107
27.011
28.789
29.955
29.247
23.098
12.747
1.691
-4.209
5.905
30.98
60.112
81.743
80.201
55.512
22.135
-8.041
-23.791
-27.41
-28.965
-31.311
-33.377
-25.261
-2.921
24.344
45.398
44.68
20.125
-13.479
-43.952
-58.735
-55.448
-45.193
-34.891
-29.203
-29.7
-31.906
-33.759
-35.428
-36.684
-38.172
-40.079
-41.774
-43.042
-43.981
-44.58
-44.821
-44.752
-44.412
-43.855
-43.189
-42.456
-41.619
-40.677
-39.653
-38.555
-37.403
-36.212
-34.983
-33.734
-32.483
-31.242
-30.019
-28.824
-27.665
-26.551
-25.492
-24.492
-23.558
-22.699
-21.92
-21.228
-20.626
-20.117
-19.7
-19.379
-19.152
-19.017
-18.972
-19.012
-19.134
-19.33
-19.597
-19.926
-20.312
-20.746
-21.22
-21.728
-22.261
-22.81
-23.368
-23.927
-24.477
-25.012
-25.525
-26.008
-26.454
-26.859
-27.216
-27.521
-27.77
-27.957
-28.079
-28.132
-28.114
-28.022
-27.854
-27.609
-27.286
-26.884
-26.404
-25.847
-25.215
-24.507
-23.727
-22.877
-21.96
-20.978
-19.935
-18.833
-17.678
-16.471
-15.218
-13.921
-12.584
-11.211
-9.804
-8.367
-6.903
-5.416
-3.907
-2.379
-0.835
0.723
2.293
3.873
5.462
7.057
8.657
10.261
11.867
13.474
15.079
16.683
18.282
19.876
21.464
23.044
24.616
26.178
27.731
29.274
30.806
32.328
33.839
35.339
36.829
38.308
39.778
41.239
42.693
44.14
45.583
47.023
48.463
49.905
51.352
52.806
54.27
55.747
57.242
58.757
60.296
61.864
63.465
65.105
66.788
68.518
70.303
72.145
74.052
76.029
78.08
80.21
82.422
84.721
87.11
89.593
92.171
94.845
97.617
100.487
103.453
106.514
109.667
112.906
116.228
119.624
123.09
126.615
130.191
133.807
137.451
141.111
144.775
148.429
152.058
155.646
159.176
162.632
165.996
169.248
172.365
175.324
178.104
180.683
183.04
185.156
187.01
188.586
189.872
190.859
191.537
191.895
191.922
191.606
190.941
189.922
188.548
186.819
184.741
182.318
179.563
176.489
173.108
169.426
165.437
161.136
156.532
151.642
146.492
141.129
135.604
129.976
124.326
118.731
113.265
108.005
103.02
98.375
94.144
90.398
87.214
84.668
82.813
81.678
81.248
81.44
82.151
83.258
84.613
86.11
87.605
88.88
89.72
89.877
89.124
87.388
84.561
80.427
74.99
68.419
61.128
54.063
48.094
43.541
40.714
39.845
40.668
43.148
46.861
50.174
51.749
51.222
48.634
45.173
43.142
44.033
49.775
63.888
89.482
129.042
184.135
253.45
333.595
421.557
513.326
603.288
685.741
754.279
803.311
830.51
835.625
819.001
782.363
728.326
659.994
581.731
497.393
409.315
319.382
228.951
138.916
50.774
-33.842
-113.179
-184.368
-244.814
-292.878
-327.025
-346.389
-351.453
-343.342
-324.599
-299.451
-271.241
-242.262
-214.582
-189.426
-167.329
-148.629
-132.572
-117.362
-102.101
-86.608
-70.918
-55.65
-41.4
-28.596
-18.06
-10.833
-7.427
-7.945
-12.198
-19.626
-29.776
-42.275
-56.564
-72.032
-88.083
-104.178
-119.958
-135.199
-149.646
-163.022
-175.101
-185.712
-194.8
-202.391
-208.534
-213.31
-216.819
-219.205
-220.67
-221.441
-221.768
-221.894
-221.99
-222.183
-222.589
-223.308
-224.419
-225.973
-227.972
-230.384
-233.183
-236.339
-239.813
-243.554
-247.482
-251.507
-255.529
-259.448
-263.184
-266.679
-269.882
-272.753
-275.261
-277.381
-279.107
-280.443
-281.383
-281.919
-282.041
-281.74
-281.015
-279.869
-278.309
-276.343
-273.98
-271.226
-268.091
-264.583
-260.711
-256.483
-251.908
-246.994
-241.755
-236.208
-230.376
-224.282
-217.952
-211.414
-204.695
-197.825
-190.835
-183.755
-176.614
-169.442
-162.269
-155.125
-148.042
-141.048
-134.176
-127.454
-120.91
-114.572
-108.466
-102.615
-97.043
-91.771
-86.815
-82.193
-77.917
-74.001
-70.451
-67.276
-64.477
-62.056
-60.009
-58.333
-57.018
-56.055
-55.43
-55.13
-55.136
-55.43
-55.991
-56.796
-57.821
-59.04
-60.427
-61.953
-63.588
-65.304
-67.07
-68.856
-70.63
-72.364
-74.027
-75.591
-77.029
-78.314
-79.422
-80.33
-81.017
-81.465
-81.658
-81.583
-81.228
-80.587
-79.653
-78.426
-76.905
-75.093
-72.996
-70.622
-67.983
-65.092
-61.964
-58.619
-55.078
-51.363
-47.501
-43.519
-39.447
-35.313
-31.151
-26.992
-22.869
-18.816
-14.864
-11.048
-7.4
-3.95
-0.729
2.234
4.913
7.282
9.319
11.004
12.318
13.247
13.778
13.9
13.607
12.893
11.756
10.197
8.218
5.826
3.029
-0.161
-3.73
-7.661
-11.934
-16.529
-21.421
-26.585
-31.993
-37.617
-43.427
-49.393
-55.482
-61.663
-67.905
-74.174
-80.439
-86.67
-92.836
-98.907
-104.856
-110.656
-116.281
-121.708
-126.915
-131.881
-136.587
-141.017
-145.155
-148.987
-152.502
-155.69
-158.543
-161.056
-163.226
-165.05
-166.531
-167.669
-168.47
-168.94
-169.086
-168.919
-168.448
-167.686
-166.646
-165.34
-163.784
-161.994
-159.986
-157.775
-155.38
-152.818
-150.106
-147.263
-144.304
-141.249
-138.115
-134.917
-131.674
-128.402
-125.118
-121.838
-118.579
-115.356
-112.185
-109.078
-106.051
-103.116
-100.285
-97.567
-94.974
-92.508
-90.179
-88.002
-85.988
-84.147
-82.491
-81.012
-79.709
-78.603
-77.678
-76.9
-76.25
-75.691
-75.196
-74.833
-74.64
-74.582
-74.735
-75.218
-76.055
-77.344
-79.143
-81.221
-83.393
-85.715
-87.854
-89.16
-89.7
-89.67
-88.78
-87.959
-86.469
-80.505
-70.986
-61.452
-57.242
-71.048
-105.649
-148.773
-185.455
-193.083
-159.562
-101.397
-41.866
-5.765
-11.74
-48.442
-93.235
-129.006
-140.952
-132.292
-116.99
-102.029
-92.769
-89.639
-87.563
-85.152
-82.689
-79.949
-77.734
-76.206
-74.694
-73.013
-71.226
-69.223
-66.964
-64.541
-62.012
-59.453
-56.999
-54.696
-52.514
-50.474
-48.604
-46.912
-45.416
-44.126
-43.038
-42.159
-41.502
-41.074
-40.881
-40.93
-41.225
-41.771
-42.57
-43.619
-44.915
-46.45
-48.213
-50.189
-52.367
-54.735
-57.289
-60.034
-62.968
-66.085
-69.369
-72.798
-76.329
-79.904
-83.455
-86.897
-90.156
-93.17
-95.877
-98.223
-100.138
-101.549
-102.384
-102.564
-102.036
-100.756
-98.692
-95.836
-92.254
-88.079
-83.472
-78.641
-73.721
-68.79
-64.001
-59.548
-55.676
-52.666
-50.705
-49.831
-50.124
-51.741
-54.645
-58.68
-63.307
-67.468
-70.457
-72.006
-71.933
-70.213
-66.899
-61.795
-55.256
-48.646
-42.518
-36.67
-30.657
-23.07
-12.452
1.932
21.351
48.084
83.507
128.5
183.815
248.46
320.653
398.643
479.929
561.126
638.981
709.871
769.152
812.929
838.843
845.616
832.551
799.664
747.154
675.555
588.118
489.797
384.458
275.306
166.048
60.319
-37.1
-120.18
-186.014
-234.536
-265.476
-279.157
-276.94
-260.514
-233.835
-203.063
-172.161
-143.013
-117.29
-95.66
-78.402
-65.833
-56.61
-48.014
-38.555
-27.807
-15.713
-2.948
9.98
22.903
35.063
45.346
53.161
58.317
60.969
61.681
60.882
58.806
55.815
52.307
48.629
45.112
41.927
39.089
36.618
34.541
32.873
31.622
30.734
30.105
29.627
29.2
28.731
28.146
27.357
26.273
24.804
22.863
20.402
17.411
13.89
9.855
5.329
0.342
-5.051
-10.78
-16.778
-22.989
-29.36
-35.842
-42.382
-48.923
-55.41
-61.79
-68.018
-74.053
-79.856
-85.391
-90.626
-95.535
-100.094
-104.287
-108.097
-111.505
-114.495
-117.052
-119.163
-120.821
-122.018
-122.75
-123.017
-122.822
-122.172
-121.078
-119.551
-117.606
-115.259
-112.529
-109.434
-105.996
-102.234
-98.172
-93.834
-89.243
-84.425
-79.404
-74.206
-68.857
-63.382
-57.807
-52.156
-46.454
-40.722
-34.985
-29.262
-23.574
-17.941
-12.381
-6.911
-1.548
3.693
8.798
13.755
18.554
23.185
27.642
31.918
36.008
39.909
43.617
47.13
50.448
53.567
56.489
59.212
61.738
64.068
66.203
68.147
69.901
71.469
72.854
74.06
75.09
75.948
76.638
77.165
77.532
77.746
77.809
77.73
77.511
77.16
76.682
76.083
75.368
74.543
73.613
72.584
71.462
70.252
68.96
67.591
66.153
64.652
63.095
61.489
59.841
58.158
56.447
54.717
52.975
51.227
49.482
47.747
46.029
44.335
42.671
41.045
39.462
37.928
36.448
35.028
33.671
32.381
31.163
30.019
28.953
27.966
27.061
26.241
25.506
24.858
24.297
23.823
23.435
23.132
22.911
22.769
22.703
22.707
22.775
22.902
23.081
23.305
23.565
23.853
24.161
24.478
24.797
25.106
25.397
25.66
25.884
26.06
26.18
26.233
26.211
26.105
25.906
25.605
25.196
24.669
24.017
23.233
22.312
21.246
20.032
18.667
17.148
15.474
13.645
11.665
9.536
7.265
4.857
2.322
-0.331
-3.09
-5.942
-8.872
-11.864
-14.9
-17.963
-21.031
-24.086
-27.104
-30.064
-32.942
-35.716
-38.36
-40.85
-43.161
-45.266
-47.139
-48.754
-50.085
-51.106
-51.79
-52.113
-52.051
-51.58
-50.68
-49.331
-47.514
-45.214
-42.417
-39.112
-35.289
-30.943
-26.069
-20.666
-14.736
-8.283
-1.313
6.165
14.138
22.594
31.515
40.884
50.681
60.882
71.464
82.4
93.661
105.218
117.04
129.091
141.338
153.745
166.273
178.885
191.542
204.207
216.839
229.402
241.857
254.167
266.299
278.216
289.888
301.282
312.369
323.123
333.518
343.531
353.14
362.327
371.074
379.366
387.19
394.535
401.391
407.751
413.608
418.959
423.803
428.14
431.973
435.305
438.144
440.498
442.379
443.8
444.772
445.312
445.434
445.154
444.491
443.461
442.081
440.368
438.338
436.01
433.4
430.524
427.397
424.034
420.451
416.661
412.678
408.515
404.184
399.696
395.062
390.294
385.403
380.397
375.285
370.073
364.768
359.374
353.894
348.324
342.661
336.901
331.039
325.069
318.987
312.788
306.466
300.024
293.46
286.775
279.966
273.03
265.963
258.76
251.417
243.931
236.3
228.524
220.611
212.569
204.402
196.113
187.693
179.128
170.411
161.544
152.527
143.37
134.101
124.761
115.418
106.151
97.028
88.105
79.424
71.03
62.99
55.372
48.249
41.685
35.709
30.343
25.617
21.533
18.025
14.959
12.145
9.382
6.54
3.548
0.311
-3.341
-7.628
-12.795
-19.059
-26.452
-34.974
-44.755
-55.718
-67.599
-79.919
-91.627
-101.647
-109.553
-115.03
-117.827
-118.411
-117.005
-113.846
-110.53
-108.444
-107.901
-109.288
-111.851
-113.001
-111.061
-104.618
-90.363
-65.623
-28.484
23.627
90.427
168.27
254.129
344.738
434.726
519.359
593.382
649.594
684.033
696.451
686.572
654.952
603.679
534.096
449.059
354.711
255.537
153.988
53.092
-44.512
-136.065
-217.081
-284.253
-337.443
-376.395
-400.718
-411.228
-408.863
-395.891
-376.813
-355.53
-333.996
-313.788
-295.912
-280.629
-268.309
-258.286
-248.534
-237.575
-224.909
-210.501
-194.878
-178.676
-162.229
-146.178
-131.546
-118.983
-108.757
-100.83
-94.785
-90.222
-86.876
-84.454
-82.604
-81.014
-79.38
-77.446
-75.097
-72.264
-68.885
-64.925
-60.354
-55.188
-49.505
-43.419
-37.052
-30.512
-23.895
-17.285
-10.775
-4.468
1.533
7.126
12.247
16.858
20.938
24.474
27.463
29.919
31.875
33.385
34.498
35.253
35.688
35.835
35.737
35.44
34.992
34.436
33.811
33.151
32.486
31.847
31.263
30.757
30.347
30.049
29.882
29.871
30.044
30.424
31.027
31.866
32.951
34.289
35.888
37.746
39.849
42.192
44.768
47.584
50.657
53.987
57.551
61.318
65.245
69.289
73.411
77.558
81.654
85.649
89.507
93.223
96.828
100.329
103.705
106.922
109.919
112.663
115.158
117.4
119.386
121.133
122.659
124.035
125.389
126.781
128.213
129.633
130.919
131.983
132.775
133.233
133.295
132.901
131.966
130.449
128.353
125.628
122.197
117.924
112.598
106.099
98.409
89.548
79.609
68.689
56.875
44.324
31.253
17.838
4.241
-9.429
-23.139
-36.788
-50.225
-63.272
-75.682
-87.269
-97.953
-107.648
-116.279
-123.833
-130.296
-135.73
-140.36
-144.349
-147.713
-150.452
-152.515
-153.873
-154.656
-155.03
-155.014
-154.576
-154.026
-153.753
-153.688
-153.904
-154.463
-154.646
-156.104
-160.494
-165.295
-169.727
-169.22
-158.299
-143.003
-127.38
-117.485
-121.593
-132.416
-143.755
-151.323
-148.104
-139.137
-129.549
-120.548
-115.295
-112.032
-108.497
-105.177
-101.813
-98.594
-95.999
-93.709
-91.481
-89.406
-87.52
-85.818
-84.323
-83.055
-82.027
-81.278
-80.858
-80.74
-80.892
-81.303
-81.958
-82.846
-83.962
-85.295
-86.829
-88.556
-90.467
-92.547
-94.783
-97.159
-99.657
-102.255
-104.933
-107.674
-110.457
-113.265
-116.081
-118.886
-121.663
-124.396
-127.071
-129.672
-132.186
-134.598
-136.897
-139.072
-141.114
-143.018
-144.777
-146.39
-147.856
-149.176
-150.354
-151.392
-152.296
-153.073
-153.727
-154.268
-154.703
-155.041
-155.291
-155.462
-155.568
-155.619
-155.629
-155.609
-155.573
-155.534
-155.505
-155.499
-155.528
-155.605
-155.741
-155.95
-156.241
-156.627
-157.115
-157.714
-158.432
-159.273
-160.24
-161.337
-162.563
-163.916
-165.395
-166.995
-168.712
-170.539
-172.471
-174.501
-176.62
-178.819
-181.091
-183.425
-185.811
-188.24
-190.7
-193.181
-195.672
-198.161
-200.638
-203.089
-205.504
-207.869
-210.174
-212.407
-214.554
-216.607
-218.553
-220.384
-222.09
-223.666
-225.105
-226.402
-227.555
-228.56
-229.418
-230.128
-230.692
-231.111
-231.39
-231.531
-231.541
-231.422
-231.183
-230.829
-230.367
-229.804
-229.148
-228.407
-227.588
-226.702
-225.756
-224.761
-223.727
-222.664
-221.584
-220.497
-219.417
-218.353
-217.318
-216.322
-215.375
-214.487
-213.667
-212.924
-212.264
-211.694
-211.22
-210.847
-210.579
-210.421
-210.376
-210.443
-210.626
-210.923
-211.335
-211.86
-212.496
-213.239
-214.086
-215.034
-216.079
-217.216
-218.439
-219.742
-221.117
-222.556
-224.052
-225.595
-227.174
-228.779
-230.4
-232.025
-233.646
-235.251
-236.83
-238.371
-239.867
-241.309
-242.686
-243.991
-245.214
-246.347
-247.383
-248.317
-249.143
-249.856
-250.455
-250.941
-251.317
-251.59
-251.764
-251.843
-251.832
-251.737
-251.565
-251.319
-251
-250.61
-250.155
-249.647
-249.1
-248.526
-247.934
-247.331
-246.726
-246.127
-245.546
-244.985
-244.438
-243.917
-243.439
-243.028
-242.726
-242.557
-242.517
-242.612
-242.837
-243.149
-243.514
-243.88
-244.163
-244.328
-244.36
-244.197
-243.787
-243.144
-242.242
-241.04
-239.505
-237.543
-235.05
-232.09
-228.817
-225.053
-220.587
-215.745
-210.644
-205.343
-200.67
-195
-186.787
-178.784
-171.911
-170.943
-181.654
-197.936
-215.489
-227.9
-226.036
-216.47
-205.241
-196.313
-196.415
-200.939
-205.139
-208.431
-209.234
-210.043
-212.349
-214.856
-216.483
-214.871
-208.319
-195.595
-174.036
-142.128
-100.408
-49.717
8.133
70.995
138.575
209.936
282.278
353.562
422.777
488.964
551.5
608.728
656.385
690.582
709.067
709.798
690.792
650.059
586.641
502.198
401.367
289.831
173.155
56.791
-53.281
-150.069
-228.203
-285.058
-320.236
-335.284
-332.624
-314.925
-286.404
-252.936
-218.972
-187.219
-159.313
-135.372
-115.106
-98.277
-83.361
-67.813
-50.15
-29.851
-7.023
17.366
42.449
67.611
91.76
113.523
131.987
146.657
157.451
164.734
168.824
169.967
168.525
164.936
159.647
153.141
145.851
138.106
130.249
122.589
115.391
108.928
103.42
99.01
95.775
93.745
92.902
93.214
94.63
97.057
100.369
104.395
108.941
113.816
118.826
123.82
128.681
133.301
137.595
141.514
145.031
148.148
150.892
153.282
155.34
157.101
158.607
159.918
161.103
162.24
163.407
164.671
166.075
167.658
169.448
171.462
173.71
176.192
178.893
181.808
184.934
188.268
191.808
195.546
199.467
203.557
207.797
212.171
216.662
221.256
225.936
230.69
235.502
240.36
245.255
250.17
255.089
259.991
264.855
269.66
274.386
279.01
283.509
287.862
292.049
296.052
299.851
303.429
306.769
309.854
312.667
315.195
317.422
319.337
320.929
322.187
323.103
323.669
323.882
323.736
323.23
322.363
321.133
319.543
317.597
315.299
312.656
309.676
306.369
302.745
298.819
294.603
290.111
285.361
280.366
275.146
269.716
264.095
258.302
252.353
246.269
240.069
233.772
227.396
220.96
214.483
207.983
201.478
194.985
188.521
182.102
175.746
169.466
163.28
157.2
151.241
145.414
139.733
134.206
128.843
123.653
118.643
113.82
109.188
104.754
100.52
96.49
92.666
89.05
85.642
82.441
79.446
76.655
74.065
71.673
69.475
67.467
65.645
64.004
62.538
61.241
60.106
59.127
58.295
57.603
57.041
56.601
56.273
56.05
55.922
55.88
55.915
56.018
56.18
56.391
56.641
56.921
57.221
57.531
57.843
58.146
58.431
58.691
58.915
59.096
59.226
59.297
59.3
59.228
59.073
58.83
58.491
58.051
57.505
56.849
56.08
55.194
54.19
53.066
51.821
50.454
48.964
47.353
45.621
43.77
41.803
39.724
37.536
35.244
32.855
30.375
27.81
25.167
22.455
19.682
16.856
13.987
11.084
8.158
5.219
2.278
-0.656
-3.57
-6.456
-9.303
-12.101
-14.842
-17.516
-20.116
-22.632
-25.058
-27.384
-29.605
-31.712
-33.7
-35.563
-37.296
-38.894
-40.354
-41.672
-42.847
-43.878
-44.762
-45.499
-46.09
-46.536
-46.839
-46.999
-47.021
-46.908
-46.664
-46.293
-45.8
-45.19
-44.468
-43.638
-42.707
-41.678
-40.558
-39.351
-38.063
-36.698
-35.263
-33.762
-32.201
-30.586
-28.922
-27.215
-25.471
-23.694
-21.889
-20.063
-18.22
-16.366
-14.505
-12.643
-10.785
-8.936
-7.101
-5.286
-3.494
-1.731
-0.002
1.688
3.333
4.928
6.467
7.945
9.355
10.69
11.945
13.113
14.187
15.162
16.03
16.786
17.423
17.936
18.32
18.57
18.679
18.645
18.463
18.13
17.642
16.997
16.193
15.228
14.102
12.815
11.367
9.759
7.994
6.075
4.004
1.787
-0.573
-3.068
-5.694
-8.442
-11.304
-14.273
-17.339
-20.493
-23.724
-27.023
-30.38
-33.783
-37.223
-40.69
-44.174
-47.666
-51.156
-54.635
-58.095
-61.529
-64.927
-68.282
-71.589
-74.841
-78.033
-81.162
-84.225
-87.219
-90.145
-93.003
-95.794
-98.521
-101.186
-103.793
-106.348
-108.856
-111.324
-113.76
-116.173
-118.574
-120.973
-123.383
-125.814
-128.28
-130.79
-133.357
-135.992
-138.707
-141.513
-144.421
-147.442
-150.591
-153.883
-157.332
-160.954
-164.76
-168.759
-172.962
-177.376
-182.004
-186.845
-191.893
-197.147
-202.603
-208.26
-214.111
-220.147
-226.352
-232.711
-239.206
-245.816
-252.523
-259.304
-266.133
-272.988
-279.855
-286.724
-293.601
-300.473
-307.31
-314.079
-320.746
-327.275
-333.634
-339.773
-345.619
-351.098
-356.126
-360.623
-364.526
-367.761
-370.254
-371.933
-372.702
-372.501
-371.351
-369.273
-366.306
-362.473
-357.746
-352.159
-345.872
-339.108
-332.152
-325.304
-318.759
-312.75
-307.583
-303.346
-299.945
-297.042
-293.907
-289.837
-284.425
-277.417
-268.681
-258.763
-248.643
-239.464
-232.749
-229.704
-230.822
-236.079
-245.032
-255.678
-264.584
-268.276
-263.237
-246.525
-216.263
-171.066
-109.675
-33.062
54.907
149.717
246.684
341.293
429.77
508.086
570.921
614.21
637.123
640.121
624.007
589.879
538.356
470.49
390.129
302.149
209.564
114.666
20.07
-71.562
-156.239
-229.066
-287.96
-333.062
-364.048
-380.902
-384.375
-375.497
-357.332
-334.852
-311.155
-287.609
-265.542
-245.587
-228.122
-213.683
-201.368
-188.993
-175.495
-160.7
-144.676
-128.115
-111.496
-94.939
-79.091
-64.935
-52.974
-43.398
-36.085
-30.528
-26.363
-23.363
-21.193
-19.5
-17.927
-16.126
-13.912
-11.236
-8.068
-4.394
-0.177
4.588
9.803
15.333
21.036
26.789
32.546
38.229
43.676
48.827
53.694
58.268
62.594
66.661
70.309
73.508
76.437
78.957
80.533
81.106
80.91
79.931
78.842
76.551
69.485
58.45
46.855
40.212
48.893
72.426
100.471
122.764
124.7
105.231
78.267
54.567
45.697
53.822
68.604
83.671
94.726
100.413
104.938
110.235
116.147
122.805
129.553
136.189
143.231
150.827
158.876
167.385
176.38
185.808
195.581
205.59
215.674
225.766
235.908
246.089
256.25
266.369
276.425
286.42
296.399
306.322
316.059
325.501
334.541
343.106
351.185
358.742
365.73
372.1
377.778
382.72
386.927
390.352
392.925
394.568
395.174
394.739
393.379
391.183
388.237
384.605
380.299
375.366
369.889
363.928
357.543
350.777
343.646
336.217
328.599
320.899
313.246
305.693
298.201
290.757
283.362
276.025
268.783
261.65
254.607
247.668
240.871
234.253
227.862
221.714
215.788
210.072
204.545
199.218
194.134
189.322
184.799
180.58
176.67
173.081
169.837
166.937
164.358
162.079
160.076
158.333
156.847
155.607
154.598
153.802
153.197
152.761
152.476
152.32
152.272
152.307
152.401
152.534
152.694
152.869
153.045
153.206
153.338
153.426
153.459
153.424
153.306
153.093
152.772
152.334
151.772
151.079
150.252
149.285
148.178
146.93
145.541
144.013
142.349
140.551
138.625
136.576
134.409
132.132
129.752
127.275
124.709
122.061
119.337
116.545
113.69
110.779
107.816
104.809
101.763
98.686
95.584
92.464
89.333
86.198
83.066
79.943
76.835
73.745
70.678
67.638
64.628
61.649
58.703
55.791
52.913
50.069
47.257
44.477
41.726
39.001
36.302
33.624
30.968
28.332
25.715
23.118
20.541
17.984
15.449
12.936
10.447
7.981
5.54
3.124
0.734
-1.629
-3.965
-6.271
-8.548
-10.792
-13.004
-15.18
-17.32
-19.421
-21.48
-23.495
-25.463
-27.381
-29.244
-31.048
-32.791
-34.467
-36.073
-37.607
-39.067
-40.451
-41.757
-42.987
-44.141
-45.22
-46.225
-47.159
-48.025
-48.824
-49.561
-50.238
-50.86
-51.43
-51.953
-52.433
-52.874
-53.281
-53.657
-54.006
-54.333
-54.641
-54.935
-55.219
-55.498
-55.777
-56.06
-56.352
-56.659
-56.984
-57.333
-57.708
-58.114
-58.554
-59.029
-59.541
-60.093
-60.684
-61.316
-61.988
-62.698
-63.447
-64.231
-65.048
-65.896
-66.771
-67.67
-68.589
-69.524
-70.472
-71.429
-72.391
-73.356
-74.318
-75.274
-76.22
-77.151
-78.063
-78.949
-79.806
-80.628
-81.409
-82.143
-82.824
-83.447
-84.006
-84.494
-84.905
-85.233
-85.47
-85.611
-85.649
-85.579
-85.394
-85.09
-84.662
-84.104
-83.414
-82.588
-81.621
-80.511
-79.252
-77.843
-76.28
-74.559
-72.678
-70.633
-68.423
-66.044
-63.498
-60.783
-57.899
-54.847
-51.628
-48.246
-44.703
-41.004
-37.153
-33.156
-29.021
-24.755
-20.371
-15.876
-11.284
-6.604
-1.851
2.962
7.82
12.71
17.617
22.526
27.419
32.281
37.093
41.836
46.493
51.04
55.455
59.713
63.79
67.664
71.309
74.702
77.821
80.646
83.159
85.347
87.194
88.686
89.804
90.535
90.864
90.784
90.287
89.366
88.019
86.25
84.074
81.501
78.541
75.193
71.446
67.295
62.749
57.818
52.52
46.887
40.956
34.783
28.447
22.018
15.556
9.113
2.718
-3.585
-9.728
-15.641
-21.227
-26.42
-31.181
-35.46
-39.224
-42.508
-45.362
-47.894
-50.26
-52.536
-54.796
-57.158
-59.706
-62.59
-66
-70.053
-74.953
-80.976
-88.143
-96.31
-105.114
-113.767
-121.513
-127.831
-131.923
-132.978
-130.947
-126.294
-120.244
-114.866
-111.708
-111.57
-115.483
-124.449
-137.946
-154.012
-169.037
-177.966
-176.724
-162.403
-131.75
-81.329
-9.796
81.304
187.507
301.99
418.497
531.515
634.269
718.576
777.426
807.077
807.068
779.309
725.666
647.552
548.212
433.955
312.094
188.172
65.98
-51.571
-161.046
-257.535
-336.857
-398.072
-442.295
-470.451
-483.346
-482
-468.316
-446.428
-421.047
-394.753
-368.571
-343.224
-319.156
-296.824
-276.364
-256.41
-234.931
-211.071
-184.944
-157.109
-128.436
-99.552
-70.953
-43.705
-19.214
1.589
18.273
30.84
39.676
45.088
47.265
46.545
43.387
38.259
31.646
23.902
15.212
5.789
-4.09
-14.091
-23.788
-32.797
-40.89
-47.917
-53.795
-58.497
-61.987
-64.287
-65.504
-65.775
-65.252
-64.056
-62.247
-59.879
-57.055
-53.911
-50.638
-47.43
-44.399
-41.62
-39.143
-36.992
-35.184
-33.71
-32.507
-31.495
-30.604
-29.777
-28.978
-28.183
-27.341
-26.388
-25.253
-23.855
-22.141
-20.075
-17.625
-14.772
-11.506
-7.824
-3.748
0.688
5.46
10.545
15.923
21.579
27.489
33.621
39.945
46.429
53.039
59.743
66.507
73.295
80.073
86.808
93.468
100.023
106.441
112.687
118.726
124.52
130.034
135.234
140.089
144.564
148.631
152.263
155.436
158.129
160.325
162.006
163.161
163.779
163.853
163.378
162.354
160.782
158.667
156.017
152.84
149.15
144.962
140.292
135.161
129.591
123.606
117.234
110.504
103.445
96.092
88.477
80.636
72.606
64.422
56.121
47.741
39.317
30.887
22.484
14.142
5.893
-2.232
-10.204
-17.997
-25.587
-32.95
-40.068
-46.92
-53.492
-59.771
-65.744
-71.403
-76.74
-81.75
-86.431
-90.782
-94.804
-98.501
-101.879
-104.945
-107.71
-110.185
-112.385
-114.324
-116.021
-117.492
-118.757
-119.837
-120.751
-121.522
-122.171
-122.718
-123.184
-123.59
-123.954
-124.295
-124.63
-124.976
-125.346
-125.754
-126.211
-126.729
-127.317
-127.982
-128.733
-129.573
-130.509
-131.544
-132.679
-133.917
-135.256
-136.696
-138.233
-139.863
-141.581
-143.381
-145.254
-147.192
-149.185
-151.223
-153.293
-155.385
-157.485
-159.582
-161.662
-163.714
-165.726
-167.685
-169.581
-171.404
-173.143
-174.792
-176.34
-177.782
-179.11
-180.32
-181.405
-182.36
-183.182
-183.866
-184.409
-184.807
-185.06
-185.164
-185.118
-184.924
-184.58
-184.09
-183.453
-182.673
-181.755
-180.702
-179.52
-178.212
-176.784
-175.244
-173.604
-171.871
-170.057
-168.166
-166.201
-164.178
-162.115
-160.002
-157.83
-155.597
-153.289
-150.933
-148.57
-146.181
-143.743
-141.333
-139.009
-136.816
-134.826
-132.992
-131.219
-129.569
-128.151
-126.699
-124.898
-122.944
-120.819
-118.467
-116.579
-113.297
-106.819
-99.722
-92.79
-90.761
-99.307
-112.147
-125.092
-131.906
-124.026
-109.02
-93.306
-81.277
-80.2
-84.873
-90.024
-94.477
-95.017
-93.503
-92.328
-91.031
-89.913
-88.812
-87.239
-85.508
-83.873
-82.249
-80.616
-79.005
-77.408
-75.809
-74.199
-72.534
-70.761
-68.905
-66.991
-65.014
-62.979
-60.89
-58.748
-56.563
-54.348
-52.104
-49.835
-47.548
-45.247
-42.941
-40.639
-38.346
-36.071
-33.822
-31.605
-29.429
-27.3
-25.224
-23.207
-21.254
-19.369
-17.556
-15.818
-14.156
-12.571
-11.065
-9.636
-8.285
-7.008
-5.806
-4.674
-3.611
-2.613
-1.679
-0.806
0.01
0.771
1.481
2.141
2.756
3.329
3.863
4.362
4.829
5.268
5.681
6.07
6.438
6.785
7.113
7.421
7.709
7.973
8.214
8.426
8.606
8.749
8.847
8.894
8.883
8.806
8.652
8.414
8.082
7.649
7.106
6.446
5.662
4.745
3.691
2.493
1.145
-0.36
-2.033
-3.882
-5.915
-8.138
-10.557
-13.176
-15.996
-19.02
-22.239
-25.647
-29.238
-33.006
-36.949
-41.06
-45.332
-49.75
-54.301
-58.97
-63.739
-68.588
-73.491
-78.427
-83.377
-88.334
-93.305
-98.293
-103.288
-108.275
-113.227
-118.107
-122.881
-127.499
-131.896
-136.011
-139.782
-143.155
-146.087
-148.522
-150.405
-151.671
-152.238
-152.05
-151.068
-149.284
-146.75
-143.541
-139.751
-135.499
-130.911
-126.127
-121.34
-116.773
-112.662
-109.263
-106.757
-105.334
-105.27
-106.616
-109.224
-112.745
-116.453
-119.595
-121.683
-122.27
-120.942
-117.968
-113.933
-109.571
-106.254
-105.088
-106.651
-111.245
-118.48
-126.453
-132.433
-133.681
-126.914
-109.403
-78.884
-33.177
28.656
105.195
192.975
288.06
385.95
482.425
573.083
652.255
714.41
755.873
775.574
773.309
749.324
703.692
636.665
551.256
452.699
346.267
235.919
125.453
18.874
-78.718
-160.987
-224.289
-268.175
-293.357
-300.899
-292.396
-269.868
-237.112
-200.074
-163.004
-127.936
-96.086
-67.808
-43.195
-22.455
-4.517
13.084
31.738
51.769
73.093
94.904
116.529
137.619
157.265
174.132
187.436
196.833
202.363
204.564
203.876
200.63
195.358
188.674
181.197
173.499
165.929
158.64
151.792
145.545
140.1
135.694
132.445
130.392
129.539
129.833
131.219
133.62
136.864
140.722
144.924
149.201
153.379
157.367
161.083
164.474
167.47
169.993
172.025
173.585
174.678
175.325
175.536
175.323
174.749
173.912
172.916
171.872
170.86
169.925
169.111
168.453
167.976
167.704
167.638
167.768
168.096
168.629
169.378
170.355
171.56
172.982
174.608
176.424
178.416
180.573
182.88
185.321
187.886
190.562
193.341
196.216
199.172
202.194
205.262
208.353
211.445
214.514
217.535
220.481
223.326
226.047
228.618
231.019
233.228
235.221
236.98
238.483
239.711
240.646
241.269
241.564
241.515
241.108
240.333
239.179
237.638
235.705
233.377
230.651
227.526
224.004
220.085
215.775
211.079
206.005
200.561
194.758
188.611
182.132
175.34
168.25
160.882
153.253
145.382
137.29
128.995
120.52
111.885
103.111
94.222
85.239
76.186
67.086
57.961
48.834
39.727
30.661
21.658
12.736
3.917
-4.782
-13.341
-21.743
-29.971
-38.007
-45.838
-53.447
-60.824
-67.955
-74.831
-81.442
-87.78
-93.838
-99.61
-105.091
-110.276
-115.163
-119.75
-124.035
-128.018
-131.701
-135.087
-138.179
-140.982
-143.501
-145.742
-147.712
-149.419
-150.87
-152.073
-153.039
-153.775
-154.292
-154.6
-154.711
-154.634
-154.382
-153.964
-153.393
-152.677
-151.829
-150.856
-149.768
-148.575
-147.285
-145.907
-144.448
-142.916
-141.318
-139.662
-137.953
-136.196
-134.397
-132.56
-130.688
-128.784
-126.85
-124.889
-122.903
-120.893
-118.859
-116.802
-114.722
-112.619
-110.491
-108.338
-106.157
-103.948
-101.708
-99.436
-97.132
-94.793
-92.42
-90.014
-87.574
-85.101
-82.598
-80.065
-77.505
-74.921
-72.316
-69.694
-67.058
-64.414
-61.767
-59.123
-56.488
-53.869
-51.274
-48.708
-46.18
-43.699
-41.272
-38.908
-36.617
-34.408
-32.292
-30.279
-28.378
-26.602
-24.96
-23.463
-22.119
-20.939
-19.93
-19.101
-18.458
-18.009
-17.758
-17.71
-17.869
-18.239
-18.822
-19.618
-20.628
-21.852
-23.287
-24.932
-26.783
-28.836
-31.088
-33.532
-36.164
-38.975
-41.96
-45.109
-48.413
-51.863
-55.447
-59.153
-62.97
-66.883
-70.879
-74.945
-79.065
-83.227
-87.415
-91.616
-95.815
-100
-104.155
-108.27
-112.33
-116.324
-120.241
-124.07
-127.802
-131.427
-134.938
-138.325
-141.582
-144.702
-147.679
-150.506
-153.178
-155.69
-158.038
-160.218
-162.229
-164.068
-165.733
-167.226
-168.546
-169.695
-170.675
-171.489
-172.141
-172.634
-172.973
-173.164
-173.212
-173.123
-172.903
-172.558
-172.095
-171.521
-170.839
-170.058
-169.181
-168.214
-167.162
-166.031
-164.826
-163.552
-162.213
-160.815
-159.362
-157.859
-156.31
-154.719
-153.09
-151.426
-149.731
-148.009
-146.263
-144.495
-142.709
-140.905
-139.088
-137.258
-135.416
-133.561
-131.694
-129.813
-127.92
-126.013
-124.091
-122.152
-120.197
-118.225
-116.235
-114.229
-112.205
-110.163
-108.104
-106.028
-103.937
-101.834
-99.721
-97.6
-95.479
-93.364
-91.263
-89.184
-87.132
-85.115
-83.137
-81.204
-79.317
-77.477
-75.686
-73.947
-72.265
-70.649
-69.103
-67.64
-66.269
-65
-63.843
-62.799
-61.863
-61.036
-60.326
-59.743
-59.312
-59.048
-58.952
-59.032
-59.291
-59.716
-60.282
-60.929
-61.571
-62.142
-62.582
-62.854
-62.946
-62.811
-62.391
-61.63
-60.461
-58.86
-56.837
-54.372
-51.449
-48.107
-44.442
-40.666
-37.049
-33.79
-31.024
-28.814
-27.234
-26.477
-26.767
-28.324
-31.332
-35.757
-41.571
-48.923
-57.75
-67.743
-78.306
-88.201
-96.224
-101.939
-105.043
-105.345
-103.231
-98.825
-92.633
-86.496
-82.01
-79.671
-79.498
-80.251
-79.431
-75.408
-66.259
-48.615
-19.468
23.562
82.048
154.912
238.687
330.253
425.963
520.917
610.064
687.435
746.995
785.086
800.787
793.615
763.687
711.797
639.021
548.852
446.772
337.813
225.627
113.853
6.193
-93.001
-178.426
-247.219
-299.31
-335.345
-356.124
-362.939
-357.407
-342.689
-323.778
-304.016
-284.729
-266.62
-249.731
-234.016
-219.617
-205.532
-189.599
-170.699
-148.731
-124.109
-97.901
-70.956
-43.801
-17.407
6.961
28.44
46.472
60.898
71.978
79.912
84.851
87.031
86.764
84.449
80.526
75.397
69.391
62.803
55.941
49.178
42.844
37.208
32.507
28.867
26.372
25.104
25.082
26.297
28.705
32.186
36.583
41.744
47.509
53.723
60.231
66.824
73.337
79.652
85.666
91.331
96.616
101.477
105.907
109.93
113.571
116.878
119.91
122.708
125.33
127.846
130.325
132.857
135.512
138.333
141.356
144.603
148.089
151.828
155.824
160.06
164.528
169.219
174.126
179.246
184.57
190.081
195.76
201.587
207.541
213.607
219.768
226.005
232.303
238.645
245.015
251.402
257.788
264.153
270.477
276.735
282.904
288.961
294.881
300.639
306.211
311.576
316.711
321.598
326.217
330.549
334.576
338.282
341.651
344.667
347.317
349.589
351.471
352.953
354.029
354.694
354.942
354.771
354.18
353.171
351.745
349.907
347.661
345.016
341.978
338.56
334.773
330.631
326.148
321.343
316.233
310.837
305.176
299.272
293.146
286.822
280.321
273.667
266.886
260
253.034
246.014
238.963
231.907
224.869
217.873
210.941
204.096
197.357
190.745
184.277
177.971
171.843
165.908
160.179
154.67
149.391
144.353
139.563
135.028
130.754
126.742
122.994
119.509
116.284
113.316
110.599
108.126
105.888
103.876
102.078
100.483
99.075
97.841
96.765
95.831
95.021
94.319
93.706
93.167
92.684
92.239
91.817
91.401
90.974
90.52
90.022
89.465
88.832
88.107
87.277
86.327
85.244
84.018
82.636
81.091
79.373
77.477
75.395
73.124
70.661
68.004
65.151
62.105
58.869
55.445
51.839
48.057
44.106
39.994
35.729
31.319
26.775
22.105
17.319
12.43
7.448
2.386
-2.741
-7.921
-13.138
-18.378
-23.625
-28.864
-34.08
-39.258
-44.384
-49.443
-54.422
-59.307
-64.087
-68.748
-73.28
-77.674
-81.92
-86.012
-89.944
-93.709
-97.306
-100.73
-103.98
-107.053
-109.948
-112.666
-115.204
-117.565
-119.749
-121.758
-123.595
-125.263
-126.766
-128.108
-129.296
-130.334
-131.228
-131.984
-132.607
-133.102
-133.475
-133.731
-133.875
-133.912
-133.844
-133.674
-133.405
-133.037
-132.569
-131.999
-131.325
-130.542
-129.645
-128.629
-127.488
-126.216
-124.805
-123.249
-121.541
-119.674
-117.64
-115.433
-113.044
-110.467
-107.696
-104.723
-101.543
-98.153
-94.548
-90.724
-86.682
-82.419
-77.936
-73.236
-68.319
-63.191
-57.857
-52.325
-46.604
-40.705
-34.643
-28.432
-22.09
-15.634
-9.086
-2.466
4.204
10.901
17.602
24.283
30.92
37.487
43.961
50.316
56.528
62.574
68.431
74.077
79.492
84.658
89.559
94.179
98.505
102.523
106.225
109.602
112.647
115.356
117.725
119.754
121.445
122.804
123.836
124.552
124.962
125.079
124.918
124.495
123.828
122.936
121.838
120.553
119.104
117.512
115.801
113.992
112.107
110.167
108.193
106.203
104.217
102.249
100.311
98.417
96.578
94.803
93.1
91.473
89.925
88.458
87.071
85.763
84.527
83.356
82.237
81.157
80.104
79.067
78.025
76.961
75.849
74.659
73.375
71.984
70.44
68.706
66.747
64.524
62.035
59.294
56.254
52.866
49.179
45.228
41.035
36.649
32.005
26.997
21.692
16.196
10.234
3.481
-3.882
-11.876
-20.548
-29.195
-39.678
-53.793
-68.892
-84.107
-94.544
-94.379
-89.881
-85.219
-86.652
-102.761
-125.801
-149.198
-168.412
-176.039
-177.315
-177.514
-177.767
-181.329
-186.387
-190.702
-194.984
-199.106
-203.342
-208.235
-213.529
-219.157
-225.441
-232.632
-240.907
-250.277
-260.733
-272.442
-285.403
-299.355
-313.729
-327.311
-338.89
-348.025
-354.42
-357.852
-358.778
-357.407
-354.014
-350.261
-347.602
-346.309
-346.615
-347.578
-346.552
-341.834
-332.024
-314.185
-285.949
-245.673
-191.226
-122.911
-44.177
41.961
132.455
222.928
309.405
387.162
449.509
491.56
511.892
509.641
484.369
436.42
365.706
273.853
166.152
48.532
-74.92
-200.387
-323.866
-440.965
-545.662
-632.711
-700.591
-749.801
-780.708
-794.161
-791.609
-775.508
-750.747
-722.705
-694.377
-667.12
-641.804
-618.82
-598.504
-580.718
-563.729
-545.203
-524.01
-500.06
-473.881
-446.349
-418.098
-389.681
-362.158
-336.921
-314.925
-296.601
-281.933
-270.544
-262.106
-256.445
-253.302
-252.278
-252.971
-254.976
-257.942
-261.695
-266.063
-270.794
-275.602
-280.124
-284.032
-287.141
-289.362
-290.656
-291.017
-290.434
-288.917
-286.553
-283.472
-279.816
-275.713
-271.236
-266.449
-261.453
-256.389
-251.445
-246.778
-242.469
-238.555
-235.051
-231.962
-229.293
-227.022
-225.079
-223.382
-221.856
-220.443
-219.106
-217.798
-216.459
-215.008
-213.351
-211.415
-209.154
-206.531
-203.519
-200.095
-196.24
-191.955
-187.262
-182.183
-176.736
-170.935
-164.789
-158.319
-151.553
-144.527
-137.278
-129.841
-122.253
-114.554
-106.788
-98.998
-91.228
-83.518
-75.907
-68.437
-61.153
-54.104
-47.336
-40.897
-34.836
-29.197
-24.03
-19.378
-15.285
-11.789
-8.925
-6.728
-5.229
-4.455
-4.43
-5.175
-6.706
-9.036
-12.172
-16.119
-20.873
-26.428
-32.772
-39.89
-47.762
-56.362
-65.663
-75.633
-86.237
-97.438
-109.195
-121.465
-134.205
-147.365
-160.896
-174.749
-188.871
-203.209
-217.709
-232.318
-246.982
-261.651
-276.272
-290.796
-305.173
-319.357
-333.302
-346.966
-360.309
-373.293
-385.885
-398.053
-409.772
-421.019
-431.777
-442.031
-451.772
-460.993
-469.691
-477.865
-485.519
-492.659
-499.292
-505.43
-511.087
-516.277
-521.018
-525.328
-529.229
-532.74
-535.884
-538.682
-541.157
-543.329
-545.219
-546.849
-548.238
-549.405
-550.368
-551.145
-551.748
-552.192
-552.486
-552.637
-552.65
-552.526
-552.263
-551.856
-551.298
-550.578
-549.684
-548.601
-547.31
-545.794
-544.031
-541.998
-539.672
-537.025
-534.032
-530.665
-526.897
-522.7
-518.048
-512.915
-507.274
-501.1
-494.371
-487.063
-479.154
-470.624
-461.456
-451.63
-441.134
-429.955
-418.083
-405.512
-392.238
-378.261
-363.583
-348.21
-332.152
-315.418
-298.024
-279.987
-261.326
-242.065
-222.227
-201.842
-180.938
-159.548
-137.705
-115.445
-92.804
-69.82
-46.531
-22.975
0.808
24.777
48.892
73.112
97.396
121.701
145.985
170.207
194.327
218.303
242.097
265.669
288.983
312.002
334.691
357.018
378.948
400.446
421.489
442.05
462.106
481.636
500.614
519.016
536.831
554.054
570.649
586.589
601.851
616.402
630.248
643.415
655.88
667.62
678.717
689.234
699.202
708.685
717.654
726.007
733.772
741.016
747.394
752.538
756.741
760.087
762.516
764.834
765.252
762.046
758.201
754.722
756.436
769.08
786.042
802.635
811.449
803.016
785.342
765.176
748.361
741.733
734.764
720.064
700.026
682.06
687.77
730.733
798.607
863.382
888.641
849.475
760.97
663.22
595.722
587.396
629.279
686.941
734.054
751.645
741.703
722.825
704.965
693.501
688.767
684.912
680.288
675.692
671.149
667.403
664.563
661.929
659.275
656.601
653.704
650.432
646.814
642.925
638.847
634.688
630.467
626.125
621.662
617.097
612.426
607.648
602.754
597.732
592.582
587.319
581.953
576.493
570.946
565.32
559.622
553.863
548.054
542.205
536.326
530.427
524.518
518.609
512.71
506.834
500.989
495.183
489.425
483.72
478.076
472.495
466.979
461.523
456.123
450.774
445.47
440.206
434.973
429.761
424.563
419.372
414.184
408.989
403.776
398.531
393.235
387.873
382.435
376.907
371.279
365.542
359.689
353.717
347.622
341.398
335.028
328.488
321.753
314.813
307.663
300.314
292.795
285.144
277.409
269.658
261.953
254.347
246.899
239.658
232.676
226.016
219.739
213.909
208.589
203.825
199.644
196.03
192.893
190.119
187.566
185.079
182.562
179.892
176.876
173.313
168.976
163.655
157.308
149.88
141.189
131.279
120.353
108.824
97.666
87.791
79.55
73.274
69.192
66.935
66.338
67.067
67.583
66.703
64.302
60.366
55.959
53.566
54.939
61.718
76.94
102.863
140.696
191.787
255.256
327.59
405.729
486.357
564.602
636.816
699.898
748.994
781.414
795.585
787.809
759.098
713.626
657.063
600.352
545.764
486.477
413.871
314.646
191.114
61.548
-57.776
-148.978
-209.217
-253.003
-285.486
-307.673
-315.637
-294.878
-248.617
-194.407
-147.528
-128.217
-138.949
-162.031
-183.804
-189.207
-173.284
-147.003
-117.617
-90.409
-67.813
-45.67
-22.365
0.971
23.282
42.904
59.163
72.524
83.292
91.516
97.32
100.948
102.679
102.758
101.41
98.848
95.348
91.306
87.109
83.023
79.239
75.9
73.089
70.908
69.476
68.844
69.023
70.007
71.749
74.187
77.252
80.796
84.619
88.514
92.259
95.694
98.731
101.3
103.361
104.881
105.815
106.149
105.903
105.093
103.743
101.882
99.534
96.76
93.658
90.332
86.896
83.441
80.026
76.706
73.531
70.539
67.77
65.247
62.976
60.974
59.265
57.867
56.806
56.09
55.718
55.686
55.989
56.618
57.569
58.832
60.394
62.245
64.375
66.769
69.411
72.281
75.349
78.584
81.955
85.423
88.951
92.498
96.021
99.479
102.836
106.044
109.06
111.839
114.329
116.497
118.318
119.755
120.78
121.373
121.499
121.133
120.289
118.945
117.082
114.692
111.723
108.148
103.996
99.298
94.001
88.04
81.358
73.912
65.767
57.021
47.63
37.484
26.834
16.065
5.061
-6.098
-17.273
-29.11
-39.767
-47.426
-54.563
-61.88
-73.934
-96.234
-122.615
-148.909
-168.971
-174.356
-172.364
-169.286
-169.44
-179.919
-195.669
-211.519
-226.297
-236.879
-245.091
-253.269
-260.974
-268.491
-275.646
-282.005
-287.91
-293.652
-299.209
-304.531
-309.62
-314.471
-319.055
-323.377
-327.413
-331.103
-334.465
-337.547
-340.363
-342.946
-345.33
-347.51
-349.497
-351.304
-352.926
-354.398
-355.757
-357.024
-358.225
-359.386
-360.523
-361.665
-362.843
-364.063
-365.33
-366.651
-368.027
-369.473
-371
-372.614
-374.32
-376.118
-378.007
-379.987
-382.057
-384.211
-386.444
-388.747
-391.109
-393.525
-395.988
-398.49
-401.022
-403.574
-406.134
-408.692
-411.237
-413.757
-416.236
-418.661
-421.016
-423.287
-425.461
-427.521
-429.454
-431.246
-432.883
-434.354
-435.645
-436.746
-437.645
-438.332
-438.797
-439.032
-439.027
-438.776
-438.272
-437.511
-436.489
-435.203
-433.653
-431.836
-429.755
-427.409
-424.802
-421.935
-418.812
-415.437
-411.816
-407.956
-403.866
-399.554
-395.031
-390.31
-385.401
-380.318
-375.075
-369.685
-364.162
-358.52
-352.773
-346.938
-341.029
-335.063
-329.054
-323.02
-316.975
-310.937
-304.919
-298.936
-293.002
-287.131
-281.335
-275.627
-270.018
-264.522
-259.148
-253.91
-248.817
-243.88
-239.107
-234.506
-230.086
-225.85
-221.805
-217.955
-214.301
-210.848
-207.596
-204.546
-201.7
-199.056
-196.613
-194.368
-192.318
-190.458
-188.782
-187.284
-185.957
-184.794
-183.787
-182.928
-182.209
-181.623
-181.16
-180.811
-180.567
-180.418
-180.353
-180.359
-180.426
-180.542
-180.695
-180.872
-181.063
-181.256
-181.441
-181.606
-181.74
-181.832
-181.87
-181.844
-181.743
-181.555
-181.266
-180.868
-180.36
-179.739
-179.001
-178.145
-177.157
-176.031
-174.781
-173.392
-171.824
-170.048
-168.035
-165.769
-163.292
-160.633
-157.749
-154.688
-151.594
-148.545
-145.616
-142.853
-140.13
-137.329
-134.569
-131.658
-127.93
-123.285
-118.028
-112.031
-105.818
-98.582
-86.843
-71.014
-54.715
-43.577
-47.713
-68.959
-98.157
-121.979
-124.366
-98.746
-54.037
-7.95
23.265
30.536
16.097
-5.543
-23.474
-31.639
-27.142
-17.405
-7.562
1.016
5.732
8.66
11.6
13.881
15.907
17.496
18.126
18.138
17.818
17.14
16.197
15.07
13.712
12.094
10.212
8.008
5.427
2.503
-0.735
-4.27
-8.06
-12.063
-16.234
-20.502
-24.802
-29.073
-33.254
-37.29
-41.117
-44.672
-47.887
-50.673
-52.947
-54.676
-55.873
-56.559
-56.788
-56.576
-55.92
-54.912
-53.683
-52.39
-51.246
-50.427
-50.049
-50.306
-51.442
-53.517
-56.419
-59.729
-62.676
-64.645
-65.242
-64.011
-60.631
-55.294
-48.652
-42.023
-37.139
-35.11
-36.493
-41.855
-51.244
-63.486
-76.109
-85.324
-87.209
-79.06
-58.833
-24.418
25.923
92.367
172.353
260.772
352.384
442.899
528.235
604.027
664.733
704.977
722.623
718.605
694.005
649.832
586.983
506.098
410.837
307.163
199.134
89.193
-19.677
-124.783
-222.377
-306.627
-374.616
-426.429
-461.53
-479.751
-482.009
-468.635
-441.489
-405.739
-365.29
-322.69
-281.224
-242.886
-208.809
-181.208
-161.496
-148.531
-141.235
-138.155
-136.704
-135.698
-134.622
-132.102
-126.982
-119.249
-109.127
-97.676
-86.85
-77.529
-69.935
-64.456
-61.276
-60.288
-61.261
-63.514
-65.943
-67.92
-69.227
-69.708
-69.362
-68.155
-65.965
-62.771
-58.726
-53.933
-48.439
-42.332
-35.656
-28.544
-21.263
-14.027
-6.989
-0.26
6.123
12.147
17.776
23.001
27.837
32.257
36.25
39.807
42.905
45.557
47.802
49.696
51.337
52.822
54.224
55.602
56.996
58.429
59.922
61.49
63.129
64.851
66.673
68.613
70.697
72.945
75.368
77.972
80.757
83.713
86.836
90.118
93.554
97.142
100.873
104.741
108.741
112.869
117.112
121.462
125.895
130.382
134.921
139.503
144.11
148.727
153.315
157.822
162.223
166.503
170.549
174.257
177.575
180.445
182.858
184.859
186.434
187.505
188.364
189.379
190.278
190.95
191.501
191.331
192.018
195.042
197.985
200.028
196.296
181.775
160.844
135.811
115.79
110.321
116.841
134.963
153.492
160.573
154.802
132.34
102.56
75.663
54.532
44.596
40.768
37.111
32.57
24.226
13.808
3.679
-6.521
-16.402
-26.126
-36.165
-46.12
-55.667
-64.812
-73.483
-81.637
-89.271
-96.368
-102.91
-108.925
-114.445
-119.435
-123.864
-127.724
-131.004
-133.699
-135.812
-137.336
-138.271
-138.629
-138.424
-137.67
-136.387
-134.593
-132.311
-129.564
-126.38
-122.786
-118.811
-114.485
-109.838
-104.901
-99.706
-94.286
-88.672
-82.895
-76.989
-70.982
-64.907
-58.791
-52.664
-46.554
-40.485
-34.483
-28.573
-22.775
-17.112
-11.601
-6.261
-1.105
3.853
8.603
13.137
17.448
21.533
25.389
29.016
32.416
35.592
38.548
41.289
43.823
46.156
48.297
50.256
52.042
53.665
55.136
56.465
57.663
58.74
59.709
60.578
61.36
62.064
62.7
63.28
63.814
64.31
64.779
65.229
65.669
66.106
66.546
66.995
67.458
67.939
68.442
68.968
69.52
70.098
70.704
71.336
71.996
72.681
73.391
74.124
74.881
75.658
76.455
77.271
78.106
78.957
79.826
80.712
81.615
82.534
83.468
84.414
85.375
86.356
87.357
88.381
89.427
90.486
91.57
92.693
93.833
94.974
96.105
97.205
98.298
99.424
100.554
101.657
102.814
104.085
105.518
107.187
109.033
110.94
112.976
115.259
117.479
119.267
120.844
122.188
123.229
124.757
124.636
120.787
116.177
111.704
112.818
126.044
144.157
162.341
173.425
167.561
153.458
138.5
127.743
129.551
137.942
146.86
154.955
158.536
159.746
161.343
162.803
164.477
166.183
167.362
168.383
169.539
170.734
171.948
173.217
174.534
175.878
177.239
178.563
179.788
180.939
182.043
183.087
184.074
185.001
185.862
186.662
187.406
188.087
188.697
189.233
189.688
190.057
190.337
190.52
190.598
190.565
190.412
190.132
189.716
189.155
188.439
187.559
186.505
185.27
183.845
182.22
180.387
178.338
176.064
173.557
170.805
167.796
164.513
160.944
157.078
152.903
148.408
143.584
138.423
132.926
127.095
120.932
114.437
107.608
100.443
92.943
85.112
76.957
68.486
59.708
50.637
41.291
31.692
21.853
11.78
1.466
-9.098
-19.909
-30.953
-42.203
-53.612
-65.123
-76.668
-88.148
-99.474
-110.559
-121.312
-131.663
-141.537
-150.856
-159.537
-167.489
-174.628
-180.905
-186.292
-190.811
-194.565
-197.677
-200.323
-202.743
-205.083
-207.497
-210.22
-213.471
-217.531
-222.732
-229.172
-236.899
-246.185
-257.16
-269.754
-283.644
-297.777
-310.928
-322.547
-332.346
-339.804
-344.427
-346.007
-345.13
-343.38
-342.986
-343.085
-339.272
-331.1
-320.095
-311.147
-314.729
-326.757
-331.298
-313.066
-252.627
-149.804
-24.885
105.907
224.928
324.697
412.019
487.559
549.788
596.161
619.917
617.747
589.143
533.648
453.483
353.435
239.025
116.004
-10.741
-136.875
-257.279
-365.694
-456.668
-527.661
-578.639
-610.964
-626.168
-625.931
-613.099
-592.386
-569.017
-546.432
-526.098
-508.258
-492.818
-479.702
-468.453
-457.43
-444.329
-427.895
-408.01
-385.28
-360.69
-335.032
-308.933
-283.38
-259.679
-238.711
-220.944
-206.523
-195.203
-186.75
-181.002
-177.753
-176.714
-177.468
-179.555
-182.555
-186.168
-190.207
-194.541
-198.86
-202.714
-206.144
-209.319
-211.852
-213.669
-214.771
-214.332
-214.381
-216.952
-219.282
-220.644
-215.981
-199.154
-177.193
-154.831
-139.063
-139.501
-147.949
-157.423
-163.161
-157.206
-145.318
-133.34
-122.567
-116.498
-113.046
-109.521
-106.365
-103.204
-100.166
-97.72
-95.451
-92.995
-90.382
-87.59
-84.553
-81.251
-77.684
-73.842
-69.769
-65.536
-61.125
-56.514
-51.718
-46.733
-41.566
-36.236
-30.749
-25.114
-19.352
-13.479
-7.509
-1.461
4.65
10.81
17.001
23.21
29.42
35.609
41.753
47.828
53.807
59.666
65.379
70.919
76.261
81.383
86.263
90.88
95.214
99.246
102.956
106.327
109.341
111.98
114.231
116.078
117.511
118.518
119.093
119.229
118.923
118.174
116.98
115.345
113.273
110.769
107.843
104.504
100.767
96.644
92.155
87.318
82.153
76.681
70.925
64.908
58.654
52.187
45.531
38.711
31.752
24.679
17.52
10.299
3.044
-4.218
-11.461
-18.658
-25.785
-32.817
-39.73
-46.503
-53.115
-59.545
-65.775
-71.788
-77.568
-83.102
-88.375
-93.378
-98.1
-102.536
-106.678
-110.524
-114.071
-117.317
-120.262
-122.908
-125.257
-127.31
-129.073
-130.549
-131.745
-132.669
-133.329
-133.735
-133.896
-133.825
-133.534
-133.034
-132.339
-131.46
-130.411
-129.203
-127.85
-126.364
-124.758
-123.043
-121.233
-119.338
-117.371
-115.343
-113.264
-111.143
-108.99
-106.812
-104.62
-102.419
-100.217
-98.022
-95.84
-93.677
-91.539
-89.431
-87.357
-85.319
-83.319
-81.359
-79.437
-77.552
-75.703
-73.888
-72.103
-70.344
-68.608
-66.889
-65.183
-63.483
-61.782
-60.073
-58.346
-56.595
-54.808
-52.978
-51.094
-49.146
-47.124
-45.018
-42.817
-40.509
-38.085
-35.531
-32.837
-29.991
-26.983
-23.801
-20.436
-16.881
-13.127
-9.169
-5.001
-0.621
3.975
8.788
13.817
19.062
24.52
30.188
36.059
42.128
48.385
54.822
61.426
68.185
75.086
82.114
89.252
96.483
103.79
111.155
118.556
125.974
133.386
140.772
148.108
155.372
162.54
169.592
176.505
183.259
189.835
196.215
202.38
208.317
214.012
219.451
224.625
229.525
234.142
238.473
242.513
246.261
249.718
252.885
255.767
258.37
260.7
262.768
264.583
266.157
267.503
268.636
269.571
270.324
270.914
271.357
271.674
271.884
272.006
272.06
272.065
272.039
272.001
271.966
271.95
271.968
272.033
272.155
272.345
272.61
272.958
273.395
273.924
274.547
275.265
276.079
276.988
277.987
279.074
280.24
281.481
282.789
284.156
285.573
287.029
288.514
290.018
291.529
293.036
294.528
295.992
297.415
298.786
300.095
301.332
302.486
303.548
304.51
305.366
306.11
306.737
307.244
307.625
307.879
308.003
307.995
307.853
307.573
307.152
306.587
305.878
305.022
304.022
302.876
301.587
300.162
298.605
296.921
295.112
293.181
291.128
288.958
286.668
284.257
281.728
279.082
276.328
273.482
270.544
267.517
264.394
261.159
257.809
254.351
250.782
247.111
243.354
239.544
235.741
232.023
228.443
225.042
221.838
218.848
216.119
213.708
211.668
210.047
208.854
208.09
207.784
207.934
208.494
209.351
210.3
211.134
211.703
211.923
211.76
211.119
209.816
207.641
204.395
199.977
194.46
187.85
180.014
171.062
161.269
151.272
142.224
134.857
129.33
125.775
124.226
124.585
127.036
131.157
135.422
139.109
142.232
145.031
148.759
154.721
163.388
175.787
194.169
220.053
254.682
299.245
352.802
413.494
479.924
549.926
620.238
687.728
748.135
795.783
826.85
839.276
831.154
801.703
750.742
677.982
585.807
479.874
365.65
247.641
130.649
18.701
-83.617
-170.586
-239.372
-290.241
-323.847
-341.07
-343.669
-333.225
-312.615
-286.224
-256.289
-223.848
-190.631
-158.268
-127.797
-100.224
-75.562
-53.188
-34.046
-18.995
-7.424
1.806
9.627
16.701
23.068
28.729
34.678
41.623
49.091
55.941
61.201
64.386
65.526
64.788
61.931
56.848
50.022
42.361
34.684
27.489
20.964
15.117
10.125
6.189
3.343
1.496
0.486
0.184
0.543
1.564
3.157
5.162
7.39
9.624
11.734
13.646
15.29
16.615
17.57
18.117
18.259
18.024
17.439
16.533
15.332
13.86
12.178
10.366
8.513
6.727
5.082
3.632
2.423
1.492
0.867
0.572
0.614
0.985
1.683
2.712
4.074
5.774
7.802
10.142
12.774
15.675
18.82
22.188
25.752
29.488
33.368
37.369
41.462
45.625
49.827
54.033
58.208
62.313
66.31
70.158
73.82
77.255
80.425
83.292
85.823
87.985
89.749
91.084
91.966
92.371
92.278
91.672
90.539
88.867
86.651
83.886
80.574
76.716
72.322
67.4
61.966
56.037
49.634
42.781
35.505
27.838
19.813
11.466
2.837
-6.034
-15.104
-24.331
-33.669
-43.074
-52.5
-61.902
-71.236
-80.458
-89.526
-98.398
-107.035
-115.402
-123.463
-131.188
-138.546
-145.513
-152.065
-158.183
-163.849
-169.05
-173.777
-178.021
-181.78
-185.053
-187.845
-190.162
-192.017
-193.423
-194.397
-194.96
-195.135
-194.945
-194.419
-193.584
-192.47
-191.108
-189.531
-187.77
-185.86
-183.833
-181.721
-179.557
-177.371
-175.193
-173.051
-170.971
-168.976
-167.09
-165.331
-163.718
-162.267
-160.989
-159.898
-159
-158.301
-157.804
-157.509
-157.413
-157.512
-157.796
-158.256
-158.879
-159.651
-160.557
-161.58
-162.701
-163.901
-165.161
-166.458
-167.773
-169.083
-170.367
-171.605
-172.775
-173.852
-174.818
-175.663
-176.377
-176.947
-177.362
-177.6
-177.655
-177.54
-177.246
-176.732
-175.961
-174.898
-173.539
-171.94
-170.127
-168.045
-165.722
-163.3
-160.92
-158.724
-156.774
-154.926
-153.088
-151.435
-149.879
-147.782
-144.892
-141.323
-136.911
-132.287
-126.505
-115.804
-100.669
-84.862
-74.572
-80.737
-103.049
-130.607
-152.016
-153.166
-135.996
-114.286
-96.111
-87.994
-82.314
-69.008
-51.476
-35.541
-34.22
-52.579
-78.985
-102.629
-112.122
-105.009
-91.392
-78.127
-69.761
-67.404
-66.853
-66.272
-65.765
-65.162
-65.044
-65.451
-65.777
-65.901
-65.935
-65.853
-65.63
-65.282
-64.836
-64.359
-63.952
-63.638
-63.371
-63.138
-62.945
-62.794
-62.693
-62.64
-62.624
-62.645
-62.709
-62.822
-62.985
-63.2
-63.466
-63.782
-64.147
-64.561
-65.02
-65.522
-66.062
-66.637
-67.239
-67.863
-68.502
-69.149
-69.795
-70.433
-71.053
-71.648
-72.208
-72.725
-73.191
-73.597
-73.937
-74.203
-74.387
-74.484
-74.488
-74.393
-74.195
-73.891
-73.479
-72.957
-72.325
-71.584
-70.737
-69.786
-68.738
-67.599
-66.377
-65.081
-63.723
-62.315
-60.873
-59.414
-57.954
-56.512
-55.107
-53.76
-52.49
-51.318
-50.263
-49.345
-48.583
-47.998
-47.61
-47.44
-47.509
-47.838
-48.446
-49.35
-50.567
-52.111
-53.99
-56.211
-58.776
-61.685
-64.939
-68.535
-72.467
-76.726
-81.301
-86.177
-91.336
-96.753
-102.403
-108.264
-114.306
-120.495
-126.808
-133.219
-139.71
-146.278
-152.898
-159.54
-166.176
-172.77
-179.291
-185.705
-191.957
-197.96
-203.63
-208.874
-213.614
-217.807
-221.391
-224.287
-226.423
-227.745
-228.254
-227.982
-226.948
-225.098
-222.351
-218.747
-214.348
-209.231
-203.597
-197.656
-191.552
-185.635
-180.349
-175.691
-171.821
-169.165
-167.134
-164.836
-162.093
-157.987
-153.119
-151.466
-153.392
-156.47
-157.064
-146.342
-123.176
-97.793
-83.25
-93.89
-133.688
-189.468
-239.029
-262.728
-248.448
-195.477
-116.619
-23.523
74.726
169.951
262.846
352.556
434.462
504.418
555.314
582.65
586.451
568.295
531.399
478.986
414.093
340.52
261.59
179.799
97.01
14.048
-68.323
-148.721
-225.838
-297.898
-362.283
-416.684
-459.102
-487.94
-502.78
-503.95
-492.132
-469.347
-438.681
-403.346
-366.893
-331.925
-299.577
-270.886
-246.753
-227.332
-212.564
-201.509
-191.98
-182.776
-173.809
-164.83
-155.815
-146.637
-136.561
-125.871
-116.08
-108.009
-101.959
-98.068
-95.905
-95.32
-96.701
-99.845
-103.999
-108.593
-113.055
-117.06
-120.713
-123.978
-126.665
-128.689
-129.978
-130.517
-130.402
-129.688
-128.384
-126.53
-124.168
-121.379
-118.309
-115.1
-111.907
-108.833
-105.912
-103.168
-100.612
-98.27
-96.2
-94.421
-92.91
-91.641
-90.58
-89.701
-88.99
-88.399
-87.84
-87.224
-86.453
-85.456
-84.198
-82.642
-80.756
-78.512
-75.879
-72.843
-69.413
-65.585
-61.354
-56.715
-51.659
-46.192
-40.333
-34.104
-27.53
-20.631
-13.43
-5.948
1.784
9.741
17.898
26.23
34.713
43.316
52.003
60.739
69.483
78.196
86.838
95.366
103.738
111.91
119.844
127.501
134.844
141.838
148.447
154.641
160.389
165.664
170.441
174.697
178.41
181.564
184.147
186.145
187.553
188.366
188.581
188.2
187.228
185.672
183.542
180.85
177.611
173.845
169.572
164.816
159.602
153.96
147.918
141.509
134.765
127.721
120.409
112.865
105.123
97.216
89.18
81.046
72.848
64.616
56.381
48.171
40.014
31.937
23.962
16.112
8.407
0.867
-6.492
-13.655
-20.609
-27.343
-33.849
-40.118
-46.146
-51.93
-57.47
-62.765
-67.819
-72.635
-77.22
-81.581
-85.726
-89.664
-93.405
-96.962
-100.345
-103.567
-106.641
-109.578
-112.393
-115.097
-117.701
-120.218
-122.658
-125.03
-127.344
-129.608
-131.831
-134.019
-136.181
-138.32
-140.443
-142.553
-144.653
-146.747
-148.837
-150.921
-152.995
-155.059
-157.12
-159.181
-161.243
-163.308
-165.359
-167.392
-169.423
-171.439
-173.398
-175.275
-177.021
-178.617
-180.134
-181.595
-182.946
-184.237
-185.58
-187.036
-188.74
-190.741
-192.802
-194.808
-196.891
-198.833
-200.04
-200.432
-200.161
-199.038
-197.967
-196.19
-189.485
-178.373
-166.756
-159.699
-170.436
-201.068
-237.342
-267.188
-269.785
-237.073
-190.82
-147.277
-125.288
-136.709
-162.46
-188.707
-206.392
-206.35
-198.433
-190.285
-182.856
-179.565
-177.865
-175.109
-172.391
-169.624
-166.853
-164.576
-162.504
-160.358
-158.191
-155.963
-153.535
-150.87
-148.035
-145.057
-141.971
-138.834
-135.617
-132.3
-128.904
-125.432
-121.877
-118.239
-114.511
-110.685
-106.765
-102.756
-98.655
-94.464
-90.183
-85.81
-81.348
-76.797
-72.158
-67.432
-62.619
-57.723
-52.746
-47.69
-42.56
-37.358
-32.088
-26.758
-21.379
-15.957
-10.501
-5.019
0.49
6.008
11.516
17.024
22.537
28.056
33.59
39.11
44.573
49.996
55.396
60.698
65.841
70.778
75.437
79.86
84.136
88.2
91.943
95.616
99.522
103.468
107.465
111.565
115.097
119.855
127.591
135.803
143.732
146.786
139.466
127.864
116.044
110.052
118.195
133.139
148.67
160.534
161.694
157.199
152.166
147.74
147.043
148.28
149.14
150.074
150.796
151.471
152.58
153.824
154.969
156.104
157.255
158.401
159.555
160.741
161.972
163.291
164.749
166.318
167.969
169.704
171.513
173.386
175.317
177.288
179.287
181.31
183.347
185.382
187.398
189.376
191.298
193.152
194.921
196.592
198.151
199.59
200.904
202.084
203.114
203.967
204.607
205.006
205.147
205.022
204.636
204.003
203.146
202.104
200.933
199.685
198.401
197.123
195.889
194.754
193.788
193.067
192.666
192.638
193.02
193.829
195.036
196.569
198.319
200.163
201.981
203.664
205.083
206.054
206.349
205.72
203.971
200.915
196.336
190.235
182.799
174.423
165.828
157.79
150.888
145.594
142.327
140.828
140.317
139.918
138.404
134.796
128.847
120.681
110.638
100.472
93.099
91.374
98.405
116.686
147.333
191.167
248.851
319.008
398.522
483.744
570.035
653.214
730.28
797.72
851.737
889.729
909.881
911.623
896.116
864.087
815.744
751.985
673.811
583.277
484.04
378.935
269.917
160.153
53.297
-46.163
-132.369
-201.819
-253.828
-287.708
-303.356
-302.121
-285.828
-258.397
-226.029
-192.966
-161.445
-133.453
-109.893
-91.099
-77.437
-67.683
-59.22
-50.617
-41.36
-31.263
-20.951
-10.95
-1.551
6.333
11.506
13.371
11.772
6.927
-0.532
-10.077
-21.265
-33.475
-46.03
-58.376
-70.128
-81.098
-91.217
-100.376
-108.402
-115.112
-120.401
-124.256
-126.719
-127.855
-127.739
-126.483
-124.273
-121.364
-118.037
-114.518
-110.947
-107.403
-103.939
-100.613
-97.489
-94.626
-92.036
-89.71
-87.643
-85.828
-84.265
-82.933
-81.769
-80.678
-79.557
-78.325
-76.935
-75.354
-73.557
-71.522
-69.229
-66.675
-63.87
-60.823
-57.533
-53.994
-50.195
-46.133
-41.817
-37.264
-32.486
-27.497
-22.308
-16.928
-11.373
-5.657
0.214
6.238
12.411
18.728
25.174
31.729
38.385
45.136
51.944
58.774
65.593
72.357
79.064
85.727
92.298
98.726
105.058
111.325
117.549
123.773
129.925
135.878
141.672
147.396
152.753
157.398
161.513
165.065
167.979
170.954
172.069
169.461
165.777
161.814
162.443
173.493
188.503
203.169
211.094
203.485
188.137
171.663
158.587
156.398
159.788
163.35
165.858
163.999
159.677
155.371
150.693
145.992
141.065
135.474
129.708
124.157
118.875
113.89
109.09
104.43
100.096
95.942
91.282
85.905
80.066
73.725
67.551
60.427
48.244
31.58
14.372
2.586
7.894
30.461
58.363
80.021
78.944
52.896
17.724
-14.245
-30.056
-26.488
-15.341
-4.167
2.23
1.957
-0.208
-1.848
-3.214
-4.141
-5.271
-6.806
-8.059
-8.761
-9.086
-9.13
-8.813
-8.07
-7.202
-6.585
-6.154
-5.973
-6.059
-5.729
-6.802
-11.038
-15.937
-20.742
-20.832
-10.689
3.569
17.867
26.139
20.057
6.984
-6.838
-17.134
-16.835
-10.997
-4.741
0.794
2.486
2.148
2.114
1.939
1.924
1.914
1.441
0.814
0.285
-0.227
-0.737
-1.214
-1.665
-2.108
-2.552
-3.043
-3.636
-4.311
-5.049
-5.86
-6.744
-7.702
-8.741
-9.855
-11.038
-12.294
-13.626
-15.033
-16.517
-18.075
-19.707
-21.41
-23.184
-25.026
-26.934
-28.907
-30.941
-33.036
-35.188
-37.396
-39.657
-41.968
-44.325
-46.725
-49.164
-51.635
-54.134
-56.654
-59.189
-61.733
-64.279
-66.82
-69.35
-71.862
-74.352
-76.812
-79.238
-81.626
-83.97
-86.267
-88.514
-90.708
-92.847
-94.929
-96.952
-98.917
-100.822
-102.667
-104.451
-106.174
-107.837
-109.438
-110.979
-112.461
-113.883
-115.25
-116.562
-117.822
-119.035
-120.204
-121.334
-122.431
-123.5
-124.546
-125.577
-126.598
-127.614
-128.633
-129.659
-130.698
-131.755
-132.833
-133.937
-135.069
-136.233
-137.43
-138.662
-139.93
-141.235
-142.577
-143.956
-145.371
-146.822
-148.307
-149.826
-151.376
-152.956
-154.563
-156.193
-157.843
-159.508
-161.182
-162.86
-164.533
-166.196
-167.839
-169.455
-171.035
-172.571
-174.054
-175.477
-176.832
-178.111
-179.308
-180.415
-181.427
-182.339
-183.143
-183.838
-184.418
-184.881
-185.225
-185.45
-185.553
-185.535
-185.398
-185.141
-184.767
-184.278
-183.676
-182.966
-182.152
-181.241
-180.238
-179.153
-177.993
-176.768
-175.49
-174.171
-172.822
-171.455
-170.08
-168.71
-167.357
-166.039
-164.766
-163.542
-162.373
-161.266
-160.236
-159.313
-158.515
-157.835
-157.298
-156.944
-156.807
-156.944
-157.353
-157.941
-158.651
-159.497
-160.411
-161.292
-162.061
-162.553
-162.76
-162.969
-163.394
-163.999
-165.042
-167.088
-170.132
-174.061
-178.861
-183.14
-187.898
-197.356
-210.476
-224.002
-229.912
-211.984
-170.086
-118.909
-79.863
-83.983
-136.783
-214.436
-285.191
-312.868
-286.539
-227.085
-163.089
-120.419
-108.578
-117.126
-130.366
-137.967
-136.667
-129.34
-120.93
-113.218
-105.947
-99.048
-92.372
-86.181
-81.018
-76.771
-72.787
-68.695
-64.208
-58.718
-51.805
-43.588
-34.585
-26.025
-19.506
-15.868
-15.421
-18.577
-25.287
-34.437
-43.694
-49.375
-47.576
-35.68
-12.085
24.802
76.312
142.52
221.506
308.986
399.74
489.421
574.585
651.463
715.704
763.136
790.919
798.656
787.134
757.372
710.015
645
566.047
478.419
383.452
284.337
177.633
55.692
-71.714
-192.747
-291.281
-341.89
-347.504
-327.689
-302.054
-301.573
-335.584
-383.231
-423.197
-431.364
-392.072
-321.06
-242.346
-173.86
-131.286
-111.219
-98.72
-85.76
-66.499
-40.39
-12.981
13.539
38.964
62.464
83.905
102.53
117.101
127.265
133.321
135.636
134.588
130.707
124.576
116.845
108.229
99.235
90.236
81.626
73.78
67.07
61.801
58.161
56.254
56.136
57.809
61.225
66.284
72.801
80.582
89.437
99.14
109.497
120.293
131.281
142.259
153.06
163.548
173.646
183.303
192.474
201.151
209.354
217.117
224.501
231.563
238.348
244.915
251.329
257.661
263.999
270.404
276.914
283.557
290.342
297.274
304.356
311.575
318.904
326.322
333.805
341.336
348.902
356.487
364.067
371.619
379.115
386.533
393.858
401.072
408.157
415.097
421.878
428.485
434.91
441.136
447.147
452.922
458.439
463.677
468.616
473.233
477.505
481.412
484.934
488.052
490.751
493.014
494.824
496.167
497.029
497.396
497.259
496.608
495.432
493.724
491.481
488.696
485.369
481.499
477.083
472.125
466.627
460.595
454.034
446.954
439.364
431.279
422.712
413.681
404.205
394.305
384.004
373.326
362.298
350.946
339.299
327.385
315.237
302.883
290.358
277.693
264.92
252.074
239.186
226.29
213.418
200.601
187.871
175.258
162.791
150.501
138.413
126.556
114.953
103.629
92.607
81.911
71.558
61.555
51.914
42.64
33.744
25.24
17.131
9.395
2.045
-4.888
-11.383
-17.413
-22.989
-28.18
-33.005
-37.419
-41.487
-45.35
-49.123
-52.935
-56.813
-60.613
-64.317
-68.116
-71.841
-74.889
-77.167
-78.871
-79.935
-81.074
-80.96
-75.753
-66.478
-56.613
-52.168
-64.174
-91.47
-123.126
-148.077
-150.629
-130.461
-102.271
-77.375
-68.197
-76.365
-90.841
-105.013
-114.164
-117.093
-118.305
-119.709
-121.172
-122.816
-123.935
-124.378
-124.736
-125.163
-125.545
-125.889
-126.21
-126.473
-126.645
-126.662
-126.412
-125.864
-125.062
-124.021
-122.734
-121.207
-119.438
-117.437
-115.224
-112.813
-110.208
-107.419
-104.459
-101.345
-98.094
-94.726
-91.26
-87.718
-84.121
-80.492
-76.855
-73.233
-69.651
-66.132
-62.701
-59.38
-56.192
-53.158
-50.299
-47.633
-45.177
-42.947
-40.955
-39.214
-37.733
-36.52
-35.58
-34.918
-34.535
-34.43
-34.603
-35.049
-35.762
-36.734
-37.958
-39.423
-41.117
-43.027
-45.138
-47.436
-49.904
-52.525
-55.281
-58.155
-61.126
-64.177
-67.289
-70.445
-73.626
-76.815
-79.997
-83.156
-86.28
-89.355
-92.37
-95.316
-98.184
-100.967
-103.659
-106.258
-108.761
-111.168
-113.478
-115.694
-117.819
-119.857
-121.813
-123.692
-125.501
-127.246
-128.932
-130.568
-132.159
-133.714
-135.238
-136.737
-138.218
-139.686
-141.145
-142.6
-144.051
-145.502
-146.951
-148.4
-149.845
-151.285
-152.715
-154.131
-155.526
-156.895
-158.229
-159.518
-160.753
-161.922
-163.012
-164.011
-164.906
-165.681
-166.322
-166.816
-167.149
-167.31
-167.285
-167.063
-166.634
-165.988
-165.12
-164.021
-162.689
-161.118
-159.309
-157.262
-154.981
-152.471
-149.738
-146.791
-143.639
-140.294
-136.77
-133.082
-129.246
-125.277
-121.194
-117.018
-112.77
-108.474
-104.153
-99.833
-95.54
-91.306
-87.162
-83.138
-79.263
-75.566
-72.073
-68.812
-65.806
-63.074
-60.633
-58.5
-56.689
-55.216
-54.097
-53.342
-52.961
-52.96
-53.34
-54.101
-55.235
-56.733
-58.586
-60.787
-63.333
-66.23
-69.474
-73.055
-76.958
-81.159
-85.615
-90.268
-95.047
-99.865
-104.65
-109.336
-113.861
-118.166
-122.175
-125.813
-129.004
-131.68
-133.798
-135.318
-136.205
-136.452
-136.12
-135.333
-134.248
-133.041
-131.821
-130.646
-129.646
-129.004
-128.947
-129.726
-131.494
-134.244
-138.003
-142.894
-148.868
-155.746
-162.993
-169.589
-174.829
-178.511
-180.523
-180.849
-179.568
-176.488
-171.954
-167.395
-163.487
-160.139
-157.04
-152.871
-146.167
-136.353
-122.299
-101.489
-72.395
-33.882
15.112
73.256
138.378
208.945
282.533
355.251
423.611
483.336
529.209
558.611
570.234
562.778
535.959
490.543
427.604
349.877
262.302
168.703
72.292
-23.477
-115.337
-199.803
-273.512
-334.329
-382.261
-417.554
-440.632
-452.542
-454.884
-450.379
-441.891
-431.764
-421.218
-410.846
-401.061
-392.003
-383.39
-374.159
-363.397
-350.571
-335.651
-319.233
-301.931
-284.29
-266.996
-250.89
-236.582
-224.447
-214.617
-206.855
-200.889
-196.463
-193.241
-190.916
-189.194
-187.776
-186.39
-184.807
-182.848
-180.395
-177.375
-173.731
-169.441
-164.526
-159.043
-153.099
-146.801
-140.247
-133.533
-126.739
-119.964
-113.316
-106.904
-100.838
-95.19
-90
-85.295
-81.086
-77.369
-74.125
-71.313
-68.874
-66.76
-64.932
-63.352
-61.985
-60.792
-59.726
-58.744
-57.803
-56.864
-55.891
-54.848
-53.703
-52.427
-50.997
-49.39
-47.592
-45.584
-43.347
-40.862
-38.114
-35.086
-31.769
-28.152
-24.229
-19.997
-15.459
-10.619
-5.488
-0.078
5.597
11.517
17.664
24.013
30.541
37.221
44.027
50.927
57.89
64.885
71.878
78.834
85.717
92.492
99.121
105.569
111.8
117.778
123.469
128.84
133.859
138.496
142.721
146.508
149.833
152.675
155.013
156.832
158.12
158.87
159.075
158.734
157.849
156.426
154.474
152.002
149.026
145.562
141.629
137.249
132.446
127.246
121.678
115.773
109.563
103.082
96.367
89.454
82.38
75.185
67.905
60.581
53.251
45.953
38.726
31.606
24.631
17.834
11.248
4.904
-1.169
-6.946
-12.403
-17.52
-22.279
-26.665
-30.666
-34.271
-37.473
-40.268
-42.654
-44.632
-46.203
-47.374
-48.153
-48.549
-48.576
-48.248
-47.58
-46.591
-45.301
-43.73
-41.901
-39.836
-37.56
-35.099
-32.477
-29.72
-26.855
-23.906
-20.9
-17.86
-14.81
-11.773
-8.77
-5.821
-2.944
-0.157
2.526
5.089
7.521
9.81
11.948
13.927
15.741
17.385
18.856
20.154
21.279
22.23
23.012
23.627
24.08
24.377
24.524
24.528
24.397
24.14
23.766
23.285
22.706
22.039
21.295
20.483
19.613
18.694
17.737
16.748
15.738
14.713
13.681
12.647
11.618
10.598
9.591
8.601
7.628
6.676
5.745
4.834
3.945
3.077
2.228
1.398
0.586
-0.211
-0.993
-1.761
-2.517
-3.261
-3.995
-4.72
-5.435
-6.142
-6.84
-7.53
-8.213
-8.888
-9.555
-10.215
-10.868
-11.512
-12.147
-12.773
-13.387
-13.988
-14.574
-15.141
-15.687
-16.208
-16.7
-17.161
-17.585
-17.97
-18.312
-18.607
-18.853
-19.048
-19.19
-19.277
-19.31
-19.29
-19.217
-19.093
-18.922
-18.705
-18.446
-18.149
-17.817
-17.453
-17.061
-16.645
-16.206
-15.749
-15.278
-14.794
-14.303
-13.808
-13.313
-12.822
-12.338
-11.867
-11.411
-10.976
-10.565
-10.181
-9.828
-9.508
-9.225
-8.979
-8.771
-8.602
-8.469
-8.371
-8.305
-8.268
-8.256
-8.263
-8.286
-8.318
-8.356
-8.394
-8.429
-8.457
-8.472
-8.473
-8.455
-8.416
-8.352
-8.261
-8.138
-7.982
-7.79
-7.559
-7.287
-6.971
-6.61
-6.201
-5.743
-5.235
-4.677
-4.067
-3.406
-2.695
-1.935
-1.13
-0.28
0.612
1.541
2.506
3.501
4.523
5.571
6.64
7.731
8.84
9.965
11.106
12.263
13.433
14.618
15.815
17.023
18.24
19.467
20.703
21.944
23.19
24.438
25.685
26.93
28.169
29.4
30.618
31.819
32.998
34.15
35.27
36.349
37.377
38.347
39.25
40.077
40.819
41.467
42.01
42.444
42.76
42.95
43.004
42.906
42.647
42.216
41.6
40.79
39.773
38.535
37.069
35.376
33.448
31.277
28.849
26.135
23.126
19.825
16.241
12.39
8.299
3.998
-0.456
-4.977
-9.488
-13.912
-18.191
-22.281
-26.118
-29.619
-32.701
-35.27
-37.279
-38.723
-39.597
-39.914
-39.731
-39.142
-38.317
-37.498
-36.888
-36.672
-37.023
-38.088
-40.055
-43.123
-47.45
-53.155
-60.269
-68.737
-78.477
-89.362
-101.145
-113.502
-126.012
-138.116
-149.284
-158.985
-166.617
-171.573
-173.256
-170.986
-164.046
-152.052
-134.968
-113.097
-87.189
-57.905
-25.605
8.994
44.842
81.537
119.206
158.765
202.242
250.568
303.032
359.059
417.895
477.661
536.173
589.35
630.699
655.822
662.838
649.981
616.63
562.863
488.279
395.825
292.155
182.367
70.37
-39.503
-144.172
-239.42
-319.22
-380.979
-425.136
-451.746
-461.775
-456.925
-438.009
-408.195
-372.828
-335.066
-297.442
-262.392
-230.54
-202.392
-179.115
-160.083
-143.848
-130.126
-117.561
-105.051
-93.062
-81.672
-70.83
-61.322
-53.421
-46.766
-42.117
-39.86
-39.537
-41.045
-43.887
-47.226
-50.834
-54.652
-58.123
-60.938
-62.943
-63.787
-63.433
-61.898
-59.026
-54.789
-49.273
-42.55
-34.794
-26.255
-17.14
-7.729
1.698
10.972
19.956
28.558
36.751
44.513
51.78
58.505
64.748
70.555
75.954
81.005
85.691
89.941
93.881
97.721
101.261
104.258
107
109.475
111.627
114.251
115.562
113.795
111.614
109.764
112.904
126.807
145.321
163.982
176.217
173.666
163.895
153.268
146.928
150.157
155.817
161.402
166.58
173.227
189.291
210.422
231.658
246.599
245.879
237.115
227.49
221.949
228.179
240.554
253.422
265.487
273.253
278.676
284.247
289.387
294.414
299.143
303.009
306.323
309.325
311.888
313.971
315.585
316.692
317.247
317.221
316.546
315.152
313.054
310.269
306.785
302.607
297.738
292.184
285.962
279.097
271.604
263.501
254.817
245.578
235.816
225.566
214.864
203.746
192.254
180.427
168.307
155.937
143.361
130.622
117.765
104.835
91.878
78.939
66.062
53.292
40.671
28.241
16.04
4.107
-7.525
-18.824
-29.761
-40.311
-50.448
-60.154
-69.409
-78.199
-86.51
-94.333
-101.661
-108.489
-114.814
-120.637
-125.96
-130.787
-135.124
-138.979
-142.361
-145.28
-147.748
-149.778
-151.385
-152.585
-153.396
-153.837
-153.927
-153.689
-153.143
-152.311
-151.215
-149.878
-148.319
-146.559
-144.618
-142.515
-140.268
-137.896
-135.415
-132.84
-130.188
-127.472
-124.706
-121.902
-119.073
-116.23
-113.383
-110.542
-107.718
-104.92
-102.156
-99.435
-96.766
-94.156
-91.61
-89.134
-86.732
-84.406
-82.16
-79.992
-77.904
-75.894
-73.961
-72.102
-70.316
-68.599
-66.948
-65.361
-63.835
-62.366
-60.951
-59.586
-58.27
-56.998
-55.766
-54.572
-53.413
-52.283
-51.178
-50.095
-49.027
-47.97
-46.917
-45.861
-44.797
-43.719
-42.62
-41.495
-40.34
-39.15
-37.921
-36.652
-35.341
-33.986
-32.587
-31.145
-29.661
-28.136
-26.571
-24.969
-23.332
-21.661
-19.959
-18.229
-16.472
-14.69
-12.887
-11.064
-9.224
-7.37
-5.505
-3.634
-1.761
0.109
1.97
3.817
5.643
7.442
9.207
10.933
12.614
14.243
15.815
17.328
18.775
20.155
21.465
22.702
23.866
24.956
25.97
26.908
27.771
28.557
29.265
29.895
30.446
30.915
31.301
31.602
31.815
31.94
31.973
31.914
31.76
31.512
31.169
30.731
30.197
29.569
28.847
28.031
27.124
26.124
25.034
23.855
22.586
21.229
19.784
18.25
16.629
14.92
13.123
11.238
9.267
7.211
5.073
2.856
0.565
-1.795
-4.217
-6.693
-9.215
-11.773
-14.357
-16.957
-19.564
-22.166
-24.752
-27.31
-29.829
-32.297
-34.702
-37.032
-39.273
-41.413
-43.44
-45.342
-47.107
-48.723
-50.177
-51.46
-52.559
-53.465
-54.166
-54.652
-54.916
-54.949
-54.747
-54.306
-53.623
-52.698
-51.535
-50.138
-48.513
-46.669
-44.616
-42.365
-39.928
-37.317
-34.551
-31.644
-28.615
-25.485
-22.273
-19.008
-15.716
-12.427
-9.168
-5.966
-2.851
0.149
3.008
5.701
8.211
10.516
12.593
14.416
15.963
17.215
18.154
18.768
19.047
18.982
18.572
17.822
16.739
15.331
13.598
11.532
9.117
6.347
3.229
-0.217
-3.97
-7.998
-12.264
-16.719
-21.288
-25.904
-30.508
-35.039
-39.442
-43.649
-47.58
-51.15
-54.274
-56.869
-58.884
-60.316
-61.163
-61.459
-61.242
-60.522
-59.396
-57.996
-56.454
-54.975
-53.77
-52.989
-52.875
-53.74
-55.635
-58.471
-61.954
-65.336
-67.996
-69.469
-69.073
-66.382
-61.663
-55.56
-49.326
-44.902
-43.636
-46.523
-54.803
-68.591
-86.386
-105.462
-121.915
-131.26
-129.383
-112.664
-77.399
-20.984
53.95
142.342
241.072
344.14
449.877
557.243
652.082
723.829
762.822
759.678
724.276
666.638
595.014
521.233
445.294
366.445
285.875
201.574
115.947
31.394
-52.016
-133.094
-211.365
-285.624
-352.506
-409.252
-453.879
-484.731
-501.643
-505.482
-497.876
-482.009
-461.511
-438.998
-416.587
-395.893
-377.54
-361.754
-348.089
-335.062
-321.511
-307.116
-291.806
-275.911
-259.973
-244.324
-229.61
-216.845
-206.697
-199.501
-195.3
-193.745
-194.48
-197.261
-201.7
-207.305
-213.579
-219.976
-226.135
-231.885
-237.088
-241.663
-245.507
-248.502
-250.578
-251.686
-251.814
-251
-249.285
-246.718
-243.42
-239.545
-235.306
-230.98
-226.759
-222.755
-219.044
-215.647
-212.586
-209.898
-207.582
-205.625
-204.013
-202.72
-201.727
-201.022
-200.554
-200.252
-200.016
-199.716
-199.248
-198.542
-197.535
-196.188
-194.465
-192.328
-189.759
-186.755
-183.305
-179.394
-175.004
-170.112
-164.705
-158.784
-152.353
-145.429
-138.026
-130.161
-121.851
-113.12
-103.99
-94.487
-84.634
-74.455
-63.977
-53.235
-42.269
-31.122
-19.84
-8.469
2.943
14.342
25.678
36.9
47.959
58.806
69.395
79.679
89.615
99.16
108.274
116.919
125.057
132.657
139.686
146.118
151.926
157.092
161.598
165.432
168.585
171.052
172.834
173.933
174.355
174.11
173.212
171.678
169.528
166.787
163.482
159.644
155.306
150.505
145.279
139.667
133.71
127.449
120.924
114.179
107.254
100.19
93.029
85.811
78.575
71.36
64.203
57.139
50.202
43.422
36.828
30.446
24.299
18.41
12.796
7.473
2.456
-2.244
-6.619
-10.663
-14.372
-17.746
-20.787
-23.5
-25.892
-27.973
-29.755
-31.25
-32.474
-33.443
-34.176
-34.691
-35.007
-35.146
-35.129
-34.977
-34.713
-34.358
-33.933
-33.461
-32.96
-32.451
-31.951
-31.478
-31.047
-30.674
-30.373
-30.156
-30.035
-30.021
-30.124
-30.351
-30.71
-31.207
-31.844
-32.626
-33.553
-34.625
-35.842
-37.202
-38.702
-40.337
-42.103
-43.994
-46.004
-48.124
-50.348
-52.667
-55.071
-57.551
-60.098
-62.703
-65.358
-68.054
-70.785
-73.541
-76.318
-79.108
-81.906
-84.707
-87.504
-90.294
-93.073
-95.836
-98.582
-101.308
-104.013
-106.696
-109.358
-111.998
-114.617
-117.217
-119.799
-122.366
-124.919
-127.462
-129.998
-132.531
-135.066
-137.606
-140.158
-142.724
-145.31
-147.919
-150.556
-153.223
-155.923
-158.658
-161.428
-164.234
-167.078
-169.957
-172.87
-175.816
-178.791
-181.79
-184.807
-187.836
-190.867
-193.891
-196.896
-199.871
-202.801
-205.671
-208.466
-211.169
-213.76
-216.222
-218.531
-220.667
-222.606
-224.324
-225.796
-226.995
-227.896
-228.473
-228.7
-228.55
-227.997
-227.016
-225.581
-223.666
-221.247
-218.3
-214.802
-210.731
-206.066
-200.789
-194.884
-188.336
-181.133
-173.265
-164.727
-155.513
-145.622
-135.055
-123.818
-111.917
-99.363
-86.17
-72.355
-57.94
-42.948
-27.406
-11.345
5.203
22.204
39.618
57.408
75.532
93.946
112.606
131.464
150.473
169.582
188.741
207.898
227.001
245.999
264.837
283.466
301.835
319.893
337.594
354.891
371.74
388.098
403.925
419.186
433.845
447.873
461.242
473.93
485.916
497.186
507.727
517.531
526.594
534.914
542.492
549.334
555.447
560.841
565.528
569.524
572.848
575.52
577.564
579.005
579.871
580.19
579.996
579.321
578.197
576.658
574.738
572.471
569.893
567.038
563.938
560.621
557.122
553.476
549.711
545.859
541.941
537.961
533.943
529.909
525.85
521.772
517.671
513.512
509.325
505.187
501.099
497.066
493.155
489.357
485.695
482.28
479.011
475.641
472.115
468.411
464.223
459.375
454.091
448.158
441.661
435.909
429.191
419.483
409.432
399.159
394.559
405.286
424.407
444.004
452.016
428.617
381.531
328.639
285.579
275.579
295.222
324.019
348.979
354.382
339.323
317.553
295.765
278.921
268.55
259.604
250.261
241.056
231.773
223.101
215.264
207.617
199.999
192.622
185.561
178.814
172.426
166.392
160.819
156.011
152.071
148.694
145.208
140.903
135.438
129.028
122.086
114.488
106.019
97.156
89.274
84.31
83.678
87.158
93.315
101.501
111.524
122.204
131.22
134.876
129.55
114.452
91.278
61.259
25.198
-14.843
-55.42
-90.77
-114.103
-121.564
-112.094
-84.558
-37.385
29.763
115.233
214.36
320.117
426.676
529.957
625.428
706.426
766.132
800.127
805.98
785.866
744.916
683.311
600.549
497.032
369.435
225.311
81.394
-47.62
-143.208
-200.985
-233.804
-254.184
-277.151
-307.922
-338.909
-365.246
-383.479
-394.321
-403.465
-412.681
-420.926
-426.633
-427.059
-421.352
-410.185
-393.566
-371.776
-345.575
-315.81
-283.928
-251.632
-219.934
-189.416
-160.576
-133.655
-108.944
-86.806
-67.406
-50.789
-36.965
-25.849
-17.337
-11.345
-7.672
-6.046
-6.147
-7.59
-10.074
-13.398
-17.406
-21.963
-26.901
-31.992
-36.967
-41.601
-45.742
-49.302
-52.239
-54.527
-56.175
-57.232
-57.803
-58.024
-58
-57.783
-57.389
-56.838
-56.18
-55.511
-54.966
-54.648
-54.616
-54.904
-55.521
-56.462
-57.719
-59.254
-60.991
-62.842
-64.733
-66.597
-68.402
-70.124
-71.692
-72.992
-73.904
-74.326
-74.209
-73.573
-72.392
-70.579
-68.166
-65.292
-62.086
-58.691
-55.135
-51.258
-47.032
-42.668
-37.992
-32.359
-25.685
-18.201
-9.853
-1.443
8.439
23.964
44.004
64.722
79.545
76.393
56.436
31.588
13.887
20.425
51.596
91.288
127.081
145.37
144.266
135.787
127.136
123.417
125.93
129.717
132.644
134.829
136.108
137.225
138.329
138.757
138.324
137.147
135.216
132.512
129.077
124.954
120.227
115.031
109.424
103.378
96.907
90.048
82.831
75.295
67.472
59.382
51.058
42.546
33.884
25.113
16.269
7.388
-1.494
-10.342
-19.122
-27.798
-36.341
-44.72
-52.906
-60.874
-68.599
-76.061
-83.239
-90.117
-96.679
-102.914
-108.808
-114.354
-119.543
-124.371
-128.833
-132.928
-136.655
-140.016
-143.015
-145.656
-147.945
-149.892
-151.505
-152.795
-153.773
-154.451
-154.844
-154.966
-154.832
-154.458
-153.859
-153.052
-152.054
-150.88
-149.545
-148.064
-146.451
-144.72
-142.884
-140.954
-138.943
-136.862
-134.72
-132.529
-130.299
-128.039
-125.757
-123.464
-121.165
-118.871
-116.588
-114.322
-112.082
-109.874
-107.703
-105.576
-103.497
-101.472
-99.505
-97.599
-95.758
-93.985
-92.282
-90.652
-89.099
-87.624
-86.23
-84.922
-83.702
-82.573
-81.539
-80.603
-79.77
-79.042
-78.422
-77.912
-77.517
-77.237
-77.074
-77.028
-77.101
-77.29
-77.594
-78.012
-78.54
-79.176
-79.913
-80.75
-81.68
-82.699
-83.802
-84.983
-86.236
-87.556
-88.937
-90.372
-91.855
-93.379
-94.937
-96.522
-98.128
-99.746
-101.369
-102.99
-104.601
-106.194
-107.762
-109.297
-110.793
-112.244
-113.645
-114.99
-116.277
-117.502
-118.665
-119.765
-120.8
-121.772
-122.682
-123.531
-124.322
-125.058
-125.741
-126.376
-126.965
-127.513
-128.025
-128.503
-128.953
-129.378
-129.783
-130.171
-130.545
-130.912
-131.274
-131.635
-132.002
-132.378
-132.767
-133.174
-133.603
-134.057
-134.538
-135.049
-135.591
-136.166
-136.772
-137.409
-138.077
-138.775
-139.501
-140.252
-141.027
-141.821
-142.632
-143.456
-144.288
-145.126
-145.965
-146.801
-147.632
-148.453
-149.263
-150.058
-150.835
-151.591
-152.323
-153.027
-153.7
-154.339
-154.94
-155.499
-156.012
-156.478
-156.892
-157.252
-157.556
-157.801
-157.985
-158.106
-158.163
-158.153
-158.075
-157.927
-157.708
-157.418
-157.057
-156.624
-156.12
-155.543
-154.895
-154.175
-153.384
-152.52
-151.585
-150.576
-149.495
-148.342
-147.118
-145.822
-144.456
-143.019
-141.515
-139.943
-138.307
-136.608
-134.848
-133.029
-131.156
-129.231
-127.259
-125.244
-123.19
-121.103
-118.988
-116.851
-114.699
-112.536
-110.369
-108.203
-106.047
-103.906
-101.789
-99.702
-97.652
-95.646
-93.693
-91.803
-89.981
-88.238
-86.581
-85.023
-83.578
-82.261
-81.084
-80.06
-79.201
-78.519
-78.026
-77.729
-77.629
-77.73
-78.032
-78.543
-79.271
-80.22
-81.393
-82.79
-84.411
-86.252
-88.312
-90.581
-93.047
-95.701
-98.538
-101.569
-104.815
-108.287
-111.986
-115.899
-120.002
-124.262
-128.637
-133.071
-137.487
-141.815
-145.995
-149.974
-153.706
-157.13
-160.176
-162.762
-164.801
-166.232
-167.013
-167.134
-166.641
-165.614
-164.171
-162.455
-160.613
-158.791
-157.164
-155.93
-155.32
-155.578
-156.882
-159.429
-163.455
-168.979
-175.819
-183.545
-191.398
-198.597
-204.58
-208.873
-211.02
-211.197
-210.12
-208.729
-208.328
-209.939
-213.82
-219.745
-227.297
-234.759
-239.163
-237.541
-226.792
-204.549
-169.906
-122.392
-61.488
11.558
93.328
179.783
266.865
351.612
432.091
505.79
567.136
609.231
630.802
633.518
622.221
606.035
583.22
546.153
487.929
394.25
259.897
92.459
-95.981
-278.726
-425.072
-517.834
-552.315
-540.896
-509.147
-476.774
-452.903
-437.713
-423.826
-405.938
-384.101
-361.18
-341.462
-326.878
-316.68
-308.614
-299.523
-287.938
-273.746
-257.169
-239.067
-220.243
-201.273
-183.155
-167.088
-153.713
-143.324
-135.982
-131.351
-129.073
-128.819
-130.09
-132.308
-135.009
-137.792
-140.337
-142.497
-144.143
-145.154
-145.479
-145.058
-143.86
-141.884
-139.098
-135.489
-131.122
-126.099
-120.581
-114.797
-108.94
-103.181
-97.697
-92.594
-87.944
-83.799
-80.157
-77.004
-74.331
-72.125
-70.391
-69.139
-68.346
-67.972
-67.953
-68.189
-68.597
-69.099
-69.606
-70.049
-70.373
-70.528
-70.49
-70.248
-69.779
-69.058
-68.057
-66.74
-65.077
-63.049
-60.636
-57.828
-54.614
-50.99
-46.959
-42.525
-37.694
-32.473
-26.868
-20.883
-14.532
-7.829
-0.794
6.551
14.178
22.057
30.156
38.435
46.856
55.379
63.964
72.57
81.154
89.674
98.085
106.346
114.414
122.247
129.805
137.047
143.935
150.432
156.505
162.122
167.254
171.877
175.967
179.508
182.484
184.885
186.703
187.934
188.578
188.637
188.116
187.026
185.377
183.187
180.474
177.26
173.571
169.434
164.878
159.935
154.639
149.022
143.123
136.976
130.619
124.091
117.43
110.675
103.864
97.035
90.224
83.468
76.8
70.251
63.853
57.631
51.613
45.821
40.275
34.995
29.996
25.292
20.893
16.809
13.044
9.604
6.487
3.693
1.217
-0.947
-2.807
-4.376
-5.663
-6.685
-7.456
-7.994
-8.318
-8.447
-8.402
-8.205
-7.878
-7.445
-6.926
-6.344
-5.721
-5.077
-4.433
-3.805
-3.213
-2.672
-2.196
-1.799
-1.493
-1.289
-1.195
-1.219
-1.366
-1.64
-2.045
-2.58
-3.245
-4.037
-4.951
-5.983
-7.126
-8.371
-9.709
-11.128
-12.618
-14.165
-15.755
-17.372
-19.002
-20.628
-22.234
-23.804
-25.321
-26.77
-28.137
-29.406
-30.563
-31.597
-32.495
-33.246
-33.839
-34.266
-34.519
-34.589
-34.471
-34.16
-33.653
-32.947
-32.04
-30.933
-29.627
-28.123
-26.426
-24.539
-22.469
-20.221
-17.803
-15.224
-12.493
-9.62
-6.618
-3.498
-0.273
3.045
6.442
9.906
13.423
16.98
20.566
24.168
27.774
31.372
34.952
38.502
42.012
45.472
48.871
52.202
55.456
58.625
61.703
64.682
67.558
70.326
72.981
75.519
77.939
80.236
82.41
84.46
86.385
88.187
89.865
91.422
92.861
94.184
95.394
96.495
97.489
98.379
99.17
99.863
100.463
100.971
101.393
101.73
101.986
102.166
102.271
102.306
102.274
102.176
102.016
101.796
101.518
101.183
100.794
100.352
99.858
99.314
98.72
98.079
97.389
96.651
95.865
95.03
94.147
93.214
92.23
91.195
90.109
88.972
87.784
86.545
85.256
83.917
82.53
81.094
79.61
78.08
76.504
74.883
73.218
71.512
69.766
67.983
66.165
64.315
62.437
60.533
58.606
56.66
54.698
52.723
50.741
48.754
46.768
44.787
42.818
40.864
38.931
37.025
35.15
33.311
31.513
29.76
28.056
26.407
24.817
23.29
21.832
20.447
19.14
17.917
16.781
15.737
14.787
13.938
13.19
12.549
12.018
11.601
11.301
11.124
11.073
11.153
11.367
11.719
12.212
12.848
13.629
14.558
15.637
16.867
18.251
19.789
21.483
23.336
25.347
27.515
29.839
32.317
34.946
37.723
40.643
43.7
46.89
50.208
53.646
57.198
60.853
64.602
68.433
72.333
76.285
80.269
84.26
88.241
92.195
96.105
99.953
103.717
107.371
110.896
114.29
117.521
120.529
123.262
125.671
127.724
129.447
130.844
131.844
132.483
132.902
133.181
133.392
133.562
133.525
133.134
132.498
131.383
129.056
125.43
120.824
115.115
108.971
101.438
88.802
71.857
54.48
43.069
48.75
72.786
105.357
131.992
135.153
108.849
62.904
16.276
-13.351
-17.179
1.9
28.308
50.001
60.66
57.238
47.384
36.472
25.72
17.641
9.899
0.418
-10.033
-21.78
-34.786
-48.458
-62.843
-77.615
-91.412
-102.976
-111.864
-117.793
-120.263
-118.841
-113.22
-103.991
-92.937
-82.246
-71.475
-56.862
-37.692
-15.424
5.592
16.128
19.303
29.319
59.654
127.21
232.332
356.213
483.957
599.409
693.908
772.705
835.888
881.431
908.525
912.951
892.91
849.848
785.572
702.83
606.458
501.98
393.319
283.165
174.079
68.616
-29.813
-116.545
-188.624
-245.553
-287.006
-312.788
-323.206
-319.067
-302.723
-278.689
-251.396
-223.402
-196.469
-171.893
-150.506
-133.051
-119.525
-108.428
-97.8
-86.807
-75.335
-63.344
-51.027
-38.82
-26.935
-15.938
-7.294
0.448
9.087
16.418
22.234
22.318
11.424
-3.883
-19.064
-27.629
-20.923
-6.278
9.99
23.535
27.207
26.076
25.252
25.78
30.68
37.983
45.206
52.673
59.951
67.066
74.368
81.422
87.902
93.845
99.249
104.08
108.351
112.092
115.338
118.177
120.7
122.918
124.84
126.504
127.942
129.191
130.295
131.284
132.183
133.023
133.834
134.642
135.471
136.342
137.273
138.283
139.39
140.616
141.981
143.503
145.199
147.083
149.167
151.461
153.97
156.696
159.637
162.79
166.148
169.703
173.443
177.357
181.431
185.65
189.996
194.453
199.002
203.621
208.289
212.983
217.679
222.352
226.973
231.515
235.949
240.246
244.378
248.313
252.023
255.48
258.654
261.519
264.049
266.219
268.006
269.389
270.348
270.868
270.935
270.537
269.666
268.316
266.482
264.163
261.358
258.068
254.296
250.048
245.328
240.145
234.508
228.429
221.921
214.998
207.678
199.979
191.92
183.522
174.808
165.8
156.524
147.003
137.265
127.335
117.241
107.01
96.669
86.245
75.766
65.255
54.738
44.237
33.774
23.37
13.044
2.81
-7.311
-17.298
-27.138
-36.81
-46.299
-55.602
-64.707
-73.597
-82.288
-90.787
-99.091
-107.219
-115.171
-122.899
-130.391
-137.649
-144.571
-151.113
-157.299
-163.071
-168.428
-173.534
-178.471
-183.241
-188.243
-193.807
-199.572
-205.538
-211.96
-217.921
-224.646
-233.894
-243.235
-251.799
-255.604
-247.324
-229.28
-207.114
-190.598
-194.964
-224.171
-269.562
-315.452
-342.784
-340.222
-314.056
-280.743
-255.185
-248.73
-259.66
-276.911
-293.614
-304.853
-310.289
-314.369
-318.615
-323.049
-327.796
-332.079
-335.826
-339.684
-343.807
-348.143
-352.766
-357.676
-362.82
-368.177
-373.674
-379.198
-384.72
-390.278
-395.868
-401.478
-407.104
-412.727
-418.342
-423.949
-429.535
-435.077
-440.558
-445.958
-451.258
-456.442
-461.49
-466.383
-471.1
-475.622
-479.93
-484.003
-487.823
-491.37
-494.627
-497.574
-500.197
-502.479
-504.408
-505.971
-507.158
-507.96
-508.37
-508.382
-507.991
-507.194
-505.988
-504.371
-502.346
-499.916
-497.083
-493.854
-490.239
-486.248
-481.9
-477.207
-472.179
-466.827
-461.169
-455.223
-449.021
-442.585
-435.916
-429.049
-422.048
-414.97
-407.878
-400.801
-393.706
-386.607
-379.591
-372.642
-365.645
-358.515
-351.155
-343.566
-335.939
-328.349
-320.627
-312.961
-306.038
-300.035
-294.752
-290.281
-285.939
-282.954
-285.532
-292.97
-301.326
-304.426
-290.349
-259.26
-223.246
-194.16
-188.862
-209.166
-238.944
-265.67
-276.051
-267.143
-250.927
-234.942
-224.107
-220.165
-218.226
-215.915
-213.418
-210.525
-207.944
-205.886
-203.671
-201.071
-198.19
-194.999
-191.463
-187.605
-183.454
-179.073
-174.567
-169.972
-165.237
-160.349
-155.319
-150.153
-144.861
-139.448
-133.924
-128.305
-122.618
-116.889
-111.121
-105.329
-99.526
-93.723
-87.956
-82.27
-76.74
-71.468
-66.496
-61.841
-57.489
-53.386
-49.536
-45.943
-42.371
-38.55
-34.53
-30.344
-26.272
-22.782
-19.676
-16.858
-15.144
-14.98
-15.901
-17.641
-18.845
-19.581
-23.941
-33.882
-46.991
-54.747
-42.65
-2.347
59.325
119.855
148.928
126.124
55.155
-35.797
-107.487
-131.18
-102.72
-42.036
19.445
58.528
69.032
59.329
44.533
34.614
31.864
34.053
37.32
40.214
43.247
46.948
51.643
57.045
62.633
68.207
73.652
78.832
83.675
88.175
92.44
96.589
100.687
104.734
108.662
112.426
116.01
119.384
122.521
125.395
127.981
130.266
132.243
133.904
135.238
136.239
136.895
137.198
137.143
136.727
135.961
134.864
133.46
131.769
129.807
127.587
125.114
122.403
119.477
116.357
113.071
109.665
106.198
102.749
99.417
96.276
93.386
90.802
88.563
86.728
85.359
84.502
84.205
84.504
85.43
87.007
89.244
92.075
95.375
99.004
102.779
106.584
110.358
114
117.399
120.402
122.842
124.593
125.631
125.898
125.242
123.738
121.637
119.467
118.146
118.514
121.128
126.41
134.688
145.658
158.674
172.896
186.677
198.53
207.528
213.017
215.196
215.863
217.45
222.203
233.257
253.559
285.556
331.862
393.243
467.284
550.233
638.323
726.973
811.693
887.381
947.069
985.36
1000.543
992.404
961.295
907.914
832.413
737.118
628.206
512.042
393.152
275.747
163.658
61.638
-23.76
-88.491
-132.408
-156.625
-162.657
-152.637
-128.709
-94.774
-57.014
-19.886
14.397
44.537
70.29
91.721
108.747
122.572
135.705
149.619
164.849
181.438
198.656
215.874
232.696
248.255
261.385
271.444
278.234
281.936
283.159
282.452
280.293
277.227
273.81
270.509
267.634
265.342
263.675
262.678
262.439
263.065
264.652
267.222
270.753
275.163
280.319
286.047
292.107
298.271
304.33
310.101
315.466
320.354
324.734
328.604
331.945
334.724
336.907
338.473
339.442
339.871
339.78
339.201
338.304
337.239
336.139
335.149
334.272
333.438
332.741
332.311
331.861
331.059
330.128
329.067
327.833
327.188
325.142
319.758
313.82
308.17
307.915
319.171
335.159
351.361
361.052
354.997
341.359
327.054
316.815
318.466
326.388
334.882
342.665
346.251
347.625
349.345
350.893
352.574
354.19
355.194
355.903
356.568
357.075
357.384
357.505
357.41
357.062
356.431
355.451
354.049
352.235
350.022
347.389
344.331
340.84
336.907
332.538
327.738
322.504
316.838
310.744
304.229
297.303
289.98
282.274
274.201
265.78
257.031
247.977
238.641
229.045
219.214
209.174
198.95
188.567
178.051
167.428
156.723
145.962
135.17
124.37
113.587
102.843
92.161
81.563
71.072
60.707
50.49
40.441
30.579
20.923
11.489
2.295
-6.645
-15.318
-23.712
-31.817
-39.622
-47.123
-54.311
-61.183
-67.736
-73.967
-79.876
-85.463
-90.729
-95.676
-100.305
-104.622
-108.628
-112.327
-115.724
-118.824
-121.63
-124.149
-126.386
-128.348
-130.042
-131.476
-132.657
-133.596
-134.301
-134.781
-135.046
-135.106
-134.969
-134.646
-134.144
-133.472
-132.639
-131.652
-130.517
-129.241
-127.83
-126.29
-124.625
-122.839
-120.936
-118.921
-116.798
-114.569
-112.24
-109.813
-107.293
-104.683
-101.986
-99.206
-96.345
-93.405
-90.389
-87.298
-84.133
-80.895
-77.586
-74.204
-70.751
-67.227
-63.633
-59.968
-56.235
-52.433
-48.565
-44.632
-40.638
-36.586
-32.478
-28.319
-24.114
-19.867
-15.584
-11.268
-6.926
-2.562
1.819
6.211
10.609
15.009
19.403
23.788
28.156
32.501
36.818
41.099
45.338
49.528
53.661
57.731
61.73
65.651
69.488
73.234
76.882
80.428
83.865
87.19
90.398
93.485
96.45
99.29
102.002
104.584
107.036
109.356
111.543
113.595
115.512
117.292
118.937
120.444
121.814
123.047
124.143
125.103
125.927
126.617
127.174
127.6
127.897
128.066
128.111
128.033
127.835
127.52
127.089
126.545
125.889
125.125
124.252
123.272
122.187
120.999
119.708
118.316
116.826
115.239
113.558
111.785
109.923
107.977
105.949
103.844
101.666
99.42
97.111
94.743
92.321
89.85
87.336
84.783
82.196
79.58
76.94
74.28
71.606
68.921
66.231
63.54
60.854
58.176
55.511
52.864
50.238
47.638
45.066
42.526
40.021
37.553
35.122
32.731
30.378
28.064
25.786
23.544
21.333
19.153
16.998
14.867
12.754
10.656
8.569
6.489
4.414
2.338
0.259
-1.827
-3.921
-6.027
-8.145
-10.279
-12.427
-14.591
-16.771
-18.966
-21.174
-23.394
-25.625
-27.863
-30.105
-32.347
-34.585
-36.812
-39.024
-41.212
-43.367
-45.48
-47.543
-49.546
-51.479
-53.331
-55.094
-56.758
-58.314
-59.755
-61.072
-62.259
-63.31
-64.219
-64.984
-65.603
-66.074
-66.398
-66.578
-66.617
-66.522
-66.302
-65.963
-65.516
-64.968
-64.333
-63.629
-62.868
-62.057
-61.208
-60.334
-59.454
-58.605
-57.817
-57.093
-56.47
-56.015
-55.773
-55.807
-56.159
-56.772
-57.615
-58.751
-60.125
-61.605
-63.143
-64.628
-65.988
-67.448
-69.191
-71.111
-73.485
-77.027
-81.766
-87.437
-94.293
-101.465
-109.625
-123.057
-141.237
-159.882
-173.131
-167.257
-138.613
-100.661
-69.15
-67.213
-107.203
-171.485
-236.388
-277.552
-277.026
-246.337
-207.298
-175.804
-165.321
-172.815
-185.428
-196.997
-203.016
-203.062
-201.813
-200.716
-199.662
-199.225
-199.108
-199.53
-201.249
-204.286
-208.148
-212.368
-216.57
-220.135
-222.436
-223.371
-223.187
-222.569
-223.354
-225.067
-226.487
-230.138
-236.283
-248.91
-272.249
-297.446
-317.175
-321.934
-301.05
-260.986
-207.784
-145.67
-81.998
-13.513
61.759
141.381
225.178
307.651
383.068
447.8
496.615
527.425
540.167
534.245
510.102
469.327
413.44
345.472
269.989
189.346
105.024
18.968
-67.408
-152.546
-233.947
-309.718
-378.997
-439.579
-489.263
-526.79
-551.21
-562.743
-563.349
-555.612
-541.628
-523.968
-504.849
-485.689
-467.713
-451.393
-436.006
-420.177
-402.997
-383.794
-362.392
-339.263
-314.825
-289.615
-264.571
-240.845
-219.338
-200.678
-185.174
-172.723
-163.187
-156.435
-152.243
-150.361
-150.517
-152.414
-155.747
-160.257
-165.706
-171.848
-178.431
-185.148
-191.672
-197.733
-203.11
-207.666
-211.332
-214.048
-215.774
-216.496
-216.245
-215.093
-213.158
-210.552
-207.358
-203.673
-199.606
-195.308
-190.966
-186.73
-182.708
-178.968
-175.543
-172.467
-169.764
-167.429
-165.43
-163.721
-162.242
-160.947
-159.806
-158.772
-157.789
-156.785
-155.671
-154.379
-152.865
-151.093
-149.041
-146.688
-144.018
-141.033
-137.749
-134.183
-130.348
-126.255
-121.907
-117.318
-112.508
-107.499
-102.317
-96.986
-91.524
-85.954
-80.301
-74.587
-68.836
-63.07
-57.305
-51.566
-45.878
-40.269
-34.767
-29.404
-24.207
-19.206
-14.432
-9.915
-5.682
-1.758
1.834
5.07
7.931
10.397
12.451
14.078
15.267
16.007
16.29
16.11
15.465
14.354
12.779
10.744
8.255
5.321
1.951
-1.842
-6.043
-10.636
-15.604
-20.928
-26.584
-32.549
-38.8
-45.309
-52.049
-58.993
-66.111
-73.372
-80.748
-88.21
-95.728
-103.273
-110.818
-118.336
-125.801
-133.188
-140.473
-147.636
-154.655
-161.512
-168.191
-174.675
-180.952
-187.01
-192.839
-198.432
-203.781
-208.88
-213.728
-218.322
-222.66
-226.745
-230.579
-234.167
-237.513
-240.625
-243.511
-246.18
-248.641
-250.906
-252.985
-254.89
-256.632
-258.222
-259.674
-260.997
-262.203
-263.303
-264.306
-265.22
-266.055
-266.817
-267.513
-268.148
-268.728
-269.255
-269.733
-270.165
-270.554
-270.9
-271.206
-271.47
-271.693
-271.874
-272.011
-272.102
-272.144
-272.134
-272.068
-271.942
-271.752
-271.493
-271.162
-270.754
-270.265
-269.691
-269.028
-268.272
-267.421
-266.471
-265.422
-264.273
-263.022
-261.67
-260.218
-258.667
-257.017
-255.271
-253.431
-251.497
-249.472
-247.357
-245.155
-242.868
-240.497
-238.046
-235.517
-232.913
-230.238
-227.496
-224.69
-221.824
-218.902
-215.928
-212.907
-209.843
-206.741
-203.605
-200.44
-197.25
-194.041
-190.816
-187.58
-184.335
-181.087
-177.837
-174.591
-171.352
-168.123
-164.91
-161.717
-158.549
-155.412
-152.313
-149.257
-146.251
-143.301
-140.414
-137.598
-134.857
-132.198
-129.628
-127.151
-124.772
-122.498
-120.331
-118.275
-116.333
-114.509
-112.802
-111.215
-109.749
-108.401
-107.173
-106.063
-105.069
-104.188
-103.417
-102.753
-102.191
-101.724
-101.346
-101.049
-100.825
-100.663
-100.552
-100.482
-100.441
-100.415
-100.393
-100.362
-100.308
-100.219
-100.082
-99.887
-99.62
-99.272
-98.832
-98.291
-97.64
-96.871
-95.978
-94.955
-93.798
-92.503
-91.067
-89.49
-87.771
-85.911
-83.911
-81.775
-79.508
-77.115
-74.604
-71.982
-69.261
-66.451
-63.564
-60.614
-57.613
-54.577
-51.52
-48.455
-45.398
-42.362
-39.361
-36.406
-33.511
-30.685
-27.94
-25.283
-22.723
-20.267
-17.92
-15.685
-13.567
-11.567
-9.684
-7.918
-6.266
-4.725
-3.289
-1.953
-0.706
0.46
1.556
2.598
3.599
4.576
5.547
6.53
7.544
8.609
9.743
10.967
12.299
13.755
15.353
17.11
19.039
21.154
23.465
25.984
28.717
31.672
34.854
38.266
41.907
45.777
49.873
54.191
58.725
63.467
68.405
73.528
78.82
84.264
89.838
95.516
101.271
107.073
112.893
118.699
124.458
130.137
135.705
141.135
146.4
151.47
156.314
160.904
165.212
169.214
172.887
176.206
179.149
181.693
183.826
185.541
186.828
187.673
188.058
187.959
187.369
186.297
184.755
182.762
180.347
177.556
174.455
171.143
167.713
164.25
160.833
157.535
154.45
151.687
149.353
147.542
146.306
145.664
145.635
146.219
147.364
148.973
150.881
152.871
154.759
156.379
157.549
158.084
157.772
156.391
153.773
149.824
144.54
137.984
130.238
121.444
111.839
101.752
91.648
82.049
73.438
66.328
61.325
59.058
60.304
65.902
76.335
91.849
112.34
137.214
165.951
198.185
233.133
269.849
308.04
347.51
388.909
434.592
485.771
542.184
604.241
669.43
733.983
797.82
857.21
909.736
955.455
985.036
991.488
967.601
905.682
813.837
702.024
581.888
466.729
356.9
253.156
158.098
71.403
-1.677
-58.131
-100.599
-130.376
-149.796
-162.425
-169.32
-171.57
-171.508
-169.736
-165.727
-159.437
-150.037
-136.361
-118.524
-96.671
-70.68
-41.301
-9.511
23.768
57.142
89.225
119.148
146.167
169.658
189.3
204.859
216.27
223.719
227.517
227.962
225.343
220.008
212.354
202.831
191.932
180.088
167.651
154.993
142.507
130.534
119.398
109.324
100.399
92.686
86.21
80.942
76.835
73.776
71.582
70.071
69.076
68.429
67.996
67.613
67.08
66.245
64.984
63.221
60.94
58.129
54.778
50.914
46.59
41.873
36.862
31.639
26.272
20.839
15.419
10.103
4.998
0.189
-4.266
-8.317
-11.931
-15.08
-17.735
-19.886
-21.539
-22.699
-23.373
-23.567
-23.276
-22.51
-21.282
-19.61
-17.518
-15.026
-12.152
-8.917
-5.347
-1.465
2.7
7.124
11.781
16.642
21.673
26.839
32.102
37.425
42.769
48.097
53.371
58.553
63.608
68.504
73.209
77.692
81.926
85.884
89.541
92.874
95.864
98.492
100.743
102.602
104.059
105.106
105.736
105.945
105.731
105.094
104.038
102.569
100.694
98.425
95.773
92.754
89.385
85.685
81.673
77.371
72.8
67.984
62.946
57.711
52.301
46.74
41.052
35.26
29.386
23.453
17.481
11.492
5.505
-0.461
-6.387
-12.255
-18.049
-23.751
-29.347
-34.821
-40.159
-45.349
-50.377
-55.234
-59.91
-64.396
-68.684
-72.768
-76.643
-80.304
-83.747
-86.969
-89.967
-92.741
-95.289
-97.61
-99.705
-101.574
-103.217
-104.636
-105.832
-106.805
-107.557
-108.091
-108.406
-108.507
-108.394
-108.07
-107.54
-106.806
-105.874
-104.747
-103.431
-101.933
-100.258
-98.415
-96.409
-94.251
-91.947
-89.507
-86.941
-84.259
-81.472
-78.589
-75.623
-72.586
-69.488
-66.343
-63.162
-59.957
-56.742
-53.529
-50.33
-47.159
-44.029
-40.952
-37.94
-35.008
-32.167
-29.429
-26.805
-24.307
-21.946
-19.729
-17.667
-15.767
-14.035
-12.478
-11.098
-9.9
-8.886
-8.055
-7.408
-6.941
-6.653
-6.539
-6.592
-6.807
-7.177
-7.692
-8.344
-9.123
-10.018
-11.018
-12.112
-13.288
-14.532
-15.833
-17.175
-18.546
-19.932
-21.317
-22.687
-24.029
-25.326
-26.565
-27.731
-28.812
-29.794
-30.665
-31.414
-32.03
-32.504
-32.827
-32.992
-32.994
-32.828
-32.489
-31.976
-31.287
-30.421
-29.381
-28.166
-26.78
-25.227
-23.51
-21.634
-19.605
-17.43
-15.114
-12.667
-10.097
-7.412
-4.623
-1.741
1.224
4.257
7.348
10.483
13.649
16.832
20.019
23.196
26.352
29.471
32.544
35.557
38.5
41.361
44.131
46.801
49.361
51.804
54.122
56.31
58.361
60.27
62.032
63.644
65.102
66.404
67.546
68.527
69.347
70.004
70.501
70.838
71.018
71.045
70.923
70.658
70.257
69.724
69.068
68.297
67.418
66.439
65.369
64.216
62.99
61.698
60.349
58.954
57.52
56.056
54.57
53.07
51.564
50.06
48.565
47.086
45.63
44.205
42.819
41.478
40.19
38.96
37.795
36.702
35.685
34.749
33.896
33.129
32.449
31.86
31.361
30.953
30.634
30.405
30.265
30.211
30.241
30.352
30.54
30.8
31.129
31.522
31.974
32.479
33.031
33.623
34.248
34.901
35.572
36.252
36.931
37.597
38.238
38.843
39.398
39.887
40.294
40.605
40.805
40.881
40.817
40.601
40.222
39.672
38.942
38.024
36.91
35.59
34.059
32.312
30.34
28.131
25.679
22.98
20.037
16.857
13.442
9.788
5.895
1.757
-2.619
-7.216
-12.029
-17.047
-22.243
-27.582
-32.997
-38.4
-43.725
-48.92
-53.936
-58.731
-63.231
-67.36
-71.069
-74.325
-77.109
-79.416
-81.214
-82.485
-83.278
-83.68
-83.829
-83.916
-84.056
-84.349
-84.906
-85.787
-87.13
-89.132
-91.902
-95.494
-99.933
-105.09
-110.919
-117.615
-125.06
-132.757
-139.972
-145.737
-149.355
-150.859
-150.364
-147.063
-140.176
-130.137
-117.999
-105.383
-94.443
-83.215
-68.21
-51.375
-33.529
-18.024
-10.441
-2.802
15.021
50.647
115.099
203.98
302.736
399.994
478.609
529.917
559.777
571.601
572.401
567.307
548.813
512.982
458.916
386.226
302.991
215.657
125.965
36.953
-49.206
-130.288
-201.604
-259.817
-304.873
-336.625
-354.751
-359.913
-352.789
-335.27
-311.379
-284.589
-256.612
-228.867
-202.328
-177.404
-154.606
-133.543
-112.603
-90.622
-67.243
-42.492
-16.92
8.85
34.369
58.743
80.839
99.911
115.203
126.32
133.864
138.118
139.145
138.306
134.432
125.85
115.762
105.43
99.429
105.904
120.295
135.825
145.358
135.294
108.079
76.875
50.555
43.013
57.271
80.08
103.646
120.036
123.767
122.399
120.567
119.639
122.586
126.99
130.71
134.35
137.442
140.136
142.928
145.389
147.07
147.885
147.787
146.882
145.403
143.361
140.971
139.062
138.27
138.706
140.296
142.305
146.202
156.309
173.972
196.346
213.35
209.862
180.516
133.751
90.567
75.684
98.627
149.284
204.307
240.86
250.188
238.786
221.512
209.925
207.572
212.088
218.49
224.412
230.07
235.953
242.495
249.388
255.978
262.093
267.77
272.955
277.608
281.742
285.414
288.74
291.791
294.536
296.906
298.864
300.397
301.494
302.141
302.314
301.993
301.178
299.875
298.09
295.83
293.1
289.91
286.272
282.203
277.721
272.847
267.603
262.016
256.112
249.92
243.469
236.792
229.921
222.886
215.722
208.462
201.138
193.782
186.429
179.11
171.856
164.699
157.666
150.787
144.087
137.592
131.322
125.3
119.543
114.067
108.887
104.014
99.456
95.222
91.314
87.736
84.487
81.564
78.961
76.673
74.69
73.003
71.599
70.465
69.589
68.956
68.549
68.354
68.353
68.53
68.868
69.348
69.956
70.673
71.483
72.37
73.32
74.319
75.352
76.407
77.473
78.54
79.598
80.64
81.66
82.652
83.613
84.542
85.438
86.302
87.137
87.947
88.735
89.507
90.269
91.026
91.786
92.554
93.338
94.143
94.977
95.846
96.755
97.711
98.717
99.778
100.899
102.082
103.33
104.645
106.027
107.478
108.996
110.581
112.231
113.943
115.713
117.537
119.408
121.319
123.264
125.232
127.215
129.201
131.181
133.141
135.071
136.959
138.793
140.56
142.25
143.852
145.355
146.749
148.024
149.172
150.185
151.056
151.778
152.346
152.755
153.002
153.082
152.995
152.737
152.309
151.71
150.941
150.004
148.901
147.635
146.212
144.637
142.916
141.058
139.07
136.963
134.747
132.432
130.031
127.554
125.015
122.426
119.798
117.144
114.477
111.808
109.149
106.511
103.905
101.34
98.826
96.372
93.984
91.671
89.438
87.291
85.236
83.276
81.416
79.657
78.001
76.449
75.001
73.656
72.408
71.251
70.179
69.195
68.297
67.482
66.739
66.051
65.412
64.834
64.296
63.747
63.148
62.453
61.651
60.792
59.873
58.82
57.675
56.564
55.584
54.846
54.354
53.923
53.507
53.288
53.058
52.139
50.41
48.062
45.007
42.004
37.603
27.628
13.181
-1.97
-11.316
-2.895
22.047
51.659
73.949
71.913
45.196
9.753
-22.128
-36.959
-32.944
-22.031
-11.372
-6.061
-7.378
-10.412
-13.065
-15.46
-17.443
-19.765
-22.563
-25.169
-27.416
-29.43
-31.203
-32.731
-34.027
-35.094
-36.028
-36.983
-37.935
-38.797
-39.529
-40.091
-40.547
-41.018
-41.462
-41.779
-42.248
-43.208
-44.493
-46.143
-48.239
-50.13
-53.656
-60.605
-68.469
-76.502
-80.076
-73.647
-63.375
-53.366
-49.731
-60.866
-79.359
-98.924
-115.249
-121.204
-121.874
-122.414
-123.963
-129.656
-137.649
-145.572
-153.858
-162.201
-170.754
-179.996
-189.597
-199.273
-209.072
-218.977
-228.922
-238.874
-248.783
-258.561
-268.166
-277.567
-286.662
-295.358
-303.567
-311.181
-318.112
-324.295
-329.686
-334.29
-338.145
-341.285
-343.768
-345.641
-346.984
-347.979
-348.856
-349.889
-351.347
-353.44
-356.33
-360.237
-365.442
-372.026
-379.768
-388.113
-396.4
-404.313
-412.004
-419.662
-427.028
-433.814
-440.05
-446.312
-453.469
-461.399
-468.499
-472.783
-473.09
-468.906
-459.971
-445.21
-422.713
-391.961
-354.603
-312.879
-268.188
-220.457
-168.479
-112.608
-55.068
2.612
60.222
117.776
174.331
226.294
267.913
295.336
306.709
300.338
274.47
227.104
157.593
69.043
-32.639
-142.339
-255.342
-366.834
-471.618
-563.027
-635.813
-688.251
-720.833
-734.653
-731.68
-714.302
-686.218
-653.344
-620.363
-589.749
-562.924
-540.281
-521.697
-507.064
-495.134
-483.281
-469.884
-454.396
-436.758
-417.68
-397.816
-377.549
-357.724
-339.573
-323.854
-310.939
-300.929
-293.45
-288.113
-284.629
-282.59
-281.555
-281.145
-280.859
-280.125
-278.81
-277.165
-275.477
-274.081
-272.922
-271.481
-269.674
-267.964
-266.309
-263.882
-259.535
-251.967
-240.789
-226.966
-211.47
-194.713
-177.422
-161.452
-147.249
-133.262
-118.858
-104.859
-99.097
-115.533
-160.502
-225.491
-286.508
-314.984
-296.561
-240.774
-175.609
-127.084
-106.935
-110.679
-122.368
-130.897
-133.857
-132.657
-131.295
-131.356
-131.666
-131.533
-130.598
-128.646
-125.582
-121.516
-116.887
-112.184
-107.851
-103.941
-100.102
-96.129
-92.05
-87.919
-83.786
-79.642
-75.392
-71.032
-66.666
-62.383
-58.26
-54.335
-50.596
-47.048
-43.714
-40.62
-37.799
-35.275
-33.062
-31.159
-29.57
-28.297
-27.345
-26.717
-26.411
-26.418
-26.727
-27.334
-28.241
-29.447
-30.948
-32.735
-34.792
-37.105
-39.664
-42.455
-45.464
-48.675
-52.072
-55.639
-59.36
-63.219
-67.2
-71.285
-75.456
-79.697
-83.989
-88.317
-92.667
-97.026
-101.378
-105.713
-110.018
-114.282
-118.494
-122.644
-126.722
-130.72
-134.629
-138.442
-142.152
-145.752
-149.239
-152.606
-155.85
-158.968
-161.956
-164.811
-167.53
-170.111
-172.551
-174.849
-177.004
-179.014
-180.879
-182.599
-184.174
-185.604
-186.889
-188.03
-189.027
-189.88
-190.59
-191.159
-191.586
-191.874
-192.024
-192.038
-191.918
-191.667
-191.287
-190.781
-190.15
-189.398
-188.526
-187.538
-186.437
-185.226
-183.907
-182.486
-180.964
-179.348
-177.641
-175.846
-173.969
-172.013
-169.981
-167.877
-165.704
-163.466
-161.165
-158.803
-156.385
-153.911
-151.384
-148.806
-146.178
-143.501
-140.777
-138.006
-135.189
-132.327
-129.421
-126.47
-123.478
-120.445
-117.373
-114.264
-111.119
-107.94
-104.73
-101.491
-98.225
-94.935
-91.624
-88.294
-84.949
-81.595
-78.235
-74.875
-71.521
-68.178
-64.855
-61.558
-58.294
-55.073
-51.903
-48.792
-45.749
-42.784
-39.906
-37.124
-34.445
-31.879
-29.433
-27.113
-24.925
-22.875
-20.967
-19.203
-17.586
-16.118
-14.8
-13.63
-12.607
-11.729
-10.993
-10.392
-9.923
-9.577
-9.346
-9.221
-9.193
-9.249
-9.377
-9.564
-9.796
-10.058
-10.335
-10.611
-10.87
-11.096
-11.273
-11.385
-11.417
-11.355
-11.187
-10.899
-10.48
-9.922
-9.216
-8.355
-7.334
-6.149
-4.798
-3.281
-1.598
0.248
2.252
4.408
6.709
9.145
11.706
14.38
17.154
20.014
22.945
25.929
28.951
31.991
35.031
38.053
41.036
43.961
46.81
49.565
52.209
54.725
57.098
59.315
61.364
63.235
64.917
66.405
67.692
68.775
69.653
70.328
70.801
71.078
71.167
71.076
70.817
70.403
69.846
69.162
68.366
67.477
66.513
65.495
64.442
63.377
62.321
61.3
60.339
59.462
58.683
58.014
57.467
57.056
56.802
56.717
56.805
57.081
57.592
58.398
59.551
61.073
62.93
65.08
67.515
70.164
72.869
75.432
77.69
79.6
81.265
82.834
84.365
86.139
88.812
92.83
98.186
104.576
111.263
119.17
131.118
147.903
167.307
181.011
176.792
148.462
99.982
48.388
16.722
22.527
69.277
142.7
221.544
281.083
302.953
282.596
220.895
132.801
45.068
-16.118
-27.719
16.69
96.312
176.512
226.452
226.876
186.201
132.125
85.964
62.727
61.835
68.733
75.262
77.088
73.649
69.82
67.219
65.195
63.737
62.202
60.451
59.126
58.46
58.381
58.923
60.052
61.549
63.236
64.997
66.618
67.912
68.713
68.748
67.815
65.875
62.837
58.585
53.207
46.881
40.184
34.133
29.398
26.209
24.664
24.737
26.317
29.397
33.377
36.923
39.545
41.7
44.265
48.562
55.895
67.208
83.962
108.51
142.226
185.364
237.716
298.047
364.545
435.408
508.112
578.858
643.992
700.21
744.026
773.197
786.842
784.417
766.093
733.235
687.733
631.806
568.394
499.616
426.168
348.897
268.926
187.43
105.906
26.216
-49.88
-120.115
-181.127
-230.132
-265.401
-286.208
-293.126
-287.921
-272.997
-250.961
-224.934
-197.624
-170.967
-146.254
-123.827
-103.127
-83.088
-62.978
-42.334
-21.017
0.712
22.488
43.772
63.664
81.037
95.154
105.695
112.645
116.361
117.215
115.515
111.714
106.394
100.114
93.434
86.818
80.505
74.715
69.68
65.608
62.747
61.258
61.17
62.469
65.104
68.993
74.061
80.19
87.171
94.775
102.753
110.857
118.937
126.884
134.591
141.978
148.951
155.443
161.452
166.992
172.077
176.72
180.93
184.73
188.184
191.371
194.373
197.28
200.148
203.014
205.917
208.879
211.919
215.05
218.264
221.544
224.883
228.278
231.73
235.24
238.797
242.382
245.982
249.577
253.15
256.687
260.17
263.585
266.918
270.158
273.295
276.322
279.228
281.999
284.619
287.072
289.34
291.407
293.256
294.869
296.23
297.322
298.132
298.647
298.856
298.746
298.307
297.531
296.407
294.93
293.092
290.888
288.314
285.369
282.05
278.357
274.293
269.861
265.066
259.912
254.408
248.561
242.38
235.875
229.057
221.94
214.536
206.861
198.93
190.76
182.368
