Name,John Breau
Date of Birth,"Dec 20, 1971"
Recorded Date,2024-03-02 18:44:21 -0500
Classification,Sinus Rhythm
Symptoms,
Software Version,1.90
Device,"Watch6,3"
Sample Rate,512 hertz


Lead,Lead I
Unit,µV

-275.914
-199.315
-133.652
-86.932
-57.482
-38.393
-26.036
-16.809
-9.303
-4.881
-3.114
-2.668
-2.349
-0.297
4.96
13.712
25.741
40.811
58.434
78.015
98.985
120.195
140.126
157.552
171.442
181.132
186.383
186.916
182.396
172.892
158.868
141.157
120.937
98.986
75.72
51.621
27.21
3.061
-20.382
-43.155
-65.667
-88.056
-110.215
-131.9
-152.75
-172.696
-191.765
-209.824
-226.743
-242.409
-256.756
-269.97
-282.285
-293.603
-303.694
-312.135
-318.197
-321.464
-321.647
-318.217
-310.972
-300.148
-286.178
-270.09
-253.418
-237.276
-222.784
-211.612
-205.095
-204.118
-209.212
-218.889
-229.975
-240.096
-247.525
-252.662
-257.337
-260.289
-255.716
-233.454
-184.258
-103.431
6.086
133.714
270.611
406.809
532.488
642.568
728.135
785.277
818.029
828.299
821.038
798.322
755.201
690.093
603.609
498.45
381.355
258.37
134.122
13.103
-100.312
-201.807
-287.563
-354.767
-401.998
-429.388
-437.99
-429.322
-405.78
-370.399
-326.298
-276.639
-224.089
-170.212
-116.091
-62.839
-11.286
38.159
85.214
129.713
171.235
208.658
240.873
267.208
287.164
300.188
305.894
304.274
295.988
282.52
265.422
246.081
225.951
206.7
189.947
176.816
167.688
162.189
159.725
159.623
160.948
162.441
162.82
161.227
157.303
151.163
143.169
133.74
123.517
113.4
104.194
96.38
90.199
85.625
82.488
80.671
79.928
79.871
80.243
80.887
81.711
82.746
84.02
85.482
87.098
88.812
90.5
92.068
93.417
94.419
94.981
94.999
94.389
93.125
91.185
88.552
85.217
81.165
76.384
70.906
64.778
58.068
50.874
43.275
35.34
27.145
18.762
10.268
1.716
-6.879
-15.524
-24.243
-33.051
-41.959
-50.979
-60.121
-69.395
-78.807
-88.372
-98.113
-108.053
-118.206
-128.578
-139.153
-149.897
-160.785
-171.73
-182.56
-193.157
-203.428
-213.372
-223.172
-232.892
-242.428
-251.705
-260.605
-268.902
-276.403
-282.625
-286.784
-288.596
-288.252
-286.198
-283.278
-280.28
-277.812
-276.931
-278.938
-284.361
-293.042
-304.253
-316.768
-329.855
-343.199
-356.022
-367.359
-376.777
-384.384
-390.884
-397.142
-403.059
-407.821
-410.985
-412.356
-411.687
-408.549
-401.955
-390.922
-375.58
-356.951
-335.786
-312.576
-287.642
-261.188
-234.204
-208.105
-183.492
-160.268
-138.585
-118.754
-101.327
-87.22
-76.453
-68.212
-62.12
-58.087
-55.865
-55.237
-55.67
-56.175
-56.367
-56.472
-56.456
-56.225
-55.628
-54.301
-52.096
-49.095
-45.098
-39.728
-32.746
-23.935
-13.235
-0.762
13.42
29.226
46.435
64.785
83.996
103.795
123.976
144.347
164.667
184.695
204.2
222.998
240.954
257.924
273.744
288.239
301.273
312.794
322.812
331.349
338.424
344.08
348.39
351.496
353.586
354.815
355.303
355.13
354.362
353.114
351.529
349.769
347.977
346.283
344.821
343.755
343.255
343.423
344.286
345.796
347.87
350.462
353.548
357.138
361.246
365.879
371.054
376.788
383.077
389.875
397.076
404.5
411.953
419.284
426.381
433.179
439.618
445.625
451.119
455.974
460.023
463.049
464.77
464.883
463.111
459.206
452.971
444.292
433.088
419.297
402.884
383.804
362.009
337.459
310.128
280.044
247.311
212.111
174.707
135.413
94.561
52.512
9.65
-33.685
-77.177
-120.533
-163.5
-205.813
-247.184
-287.324
-325.934
-362.721
-397.434
-429.861
-459.815
-487.161
-511.783
-533.604
-552.619
-568.823
-582.218
-592.817
-600.599
-605.536
-607.625
-606.86
-603.286
-597.015
-588.177
-576.929
-563.469
-548.009
-530.809
-512.166
-492.294
-471.359
-449.516
-426.92
-403.805
-380.486
-357.289
-334.534
-312.549
-291.684
-272.185
-254.141
-237.45
-221.76
-206.598
-191.515
-176.043
-159.629
-142.025
-123.436
-104.393
-85.804
-68.81
-54.429
-43.559
-37.293
-35.106
-34.312
-32.351
-27.076
-19.148
-12.675
-8.919
-2.78
17.162
66.247
154.921
280.04
425.756
568.483
684.51
762.323
802.99
816.004
815.647
808.93
795.502
771.244
728.5
664.571
582.096
485.098
379.352
269.68
158.675
49.171
-54.846
-149.439
-231.062
-296.574
-344.151
-373.136
-382.823
-373.472
-347.33
-307.48
-257.525
-201.672
-143.712
-86.9
-34.834
9.625
45.319
71.963
90.142
101.557
107.931
110.914
113.039
115.444
118.299
123.248
130.424
141.386
158.076
176.558
193.677
205.261
206.56
201.259
192.813
183.981
178.971
175.785
172.478
169.159
164.69
160.237
157.105
155.073
154.319
154.816
156.325
158.945
162.699
167.453
173.127
179.585
186.562
193.651
200.288
205.966
210.433
213.535
215.165
215.429
214.421
212.461
210.364
208.767
207.816
207.433
207.082
205.731
202.605
196.616
185.963
169.207
145.495
114.551
77.276
35.471
-9.211
-54.592
-97.733
-136.071
-167.351
-190.012
-203.916
-209.873
-208.821
-202.266
-192.246
-180.46
-168.597
-157.963
-148.928
-141.366
-134.986
-129.161
-123.116
-116.441
-108.756
-99.776
-89.581
-78.314
-66.202
-53.677
-41.161
-28.872
-16.942
-5.436
5.649
16.224
26.227
35.705
44.725
53.369
61.659
69.506
76.811
83.513
89.58
95.02
99.827
103.947
107.353
110.068
112.159
113.76
114.967
115.816
116.348
116.588
116.592
116.472
116.312
116.16
116.06
116.033
116.112
116.351
116.77
117.351
118.049
118.787
119.518
120.235
120.926
121.583
122.193
122.722
123.159
123.521
123.821
124.07
124.279
124.444
124.583
124.734
124.94
125.25
125.699
126.303
127.078
128.036
129.186
130.535
132.077
133.795
135.675
137.705
139.876
142.178
144.595
147.106
149.687
152.318
154.978
157.647
160.309
162.944
165.536
168.071
170.536
172.923
175.219
177.412
179.49
181.441
183.256
184.924
186.437
187.788
188.97
189.98
190.816
191.476
191.962
192.275
192.421
192.403
192.229
191.906
191.443
190.851
190.141
189.325
188.414
187.424
186.368
185.259
184.113
182.944
181.767
180.596
179.446
178.331
177.264
176.26
175.33
174.487
173.743
173.108
172.593
172.207
171.958
171.854
171.9
172.102
172.463
172.986
173.672
174.521
175.532
176.702
178.028
179.506
181.131
182.896
184.793
186.814
188.949
191.188
193.52
195.932
198.41
200.942
203.514
206.111
208.718
211.323
213.909
216.463
218.969
221.414
223.782
226.058
228.224
230.263
232.161
233.9
235.465
236.843
238.018
238.982
239.726
240.243
240.527
240.571
240.369
239.916
239.211
238.254
237.045
235.588
233.889
231.958
229.813
227.467
224.933
222.218
219.318
216.235
212.975
209.549
205.969
202.253
198.419
194.502
190.55
186.615
182.745
178.982
175.355
171.902
168.673
165.726
163.131
160.95
159.224
157.98
157.241
157.004
157.254
157.954
159.006
160.293
161.691
163.065
164.303
165.292
165.86
165.775
164.834
162.932
160.139
156.683
152.802
148.761
144.945
141.863
139.972
139.478
140.076
141.05
141.714
141.179
138.332
132.4
122.867
110.555
98.387
88.379
81.803
79.227
78.886
82.991
97.243
127.376
181.568
262.739
366.395
484.837
603.827
707.958
787.32
836.402
857.443
858.674
846.03
822.379
786.569
733.21
659.759
567.847
460.939
346.265
230.473
115.968
6.305
-96.756
-192.433
-274.107
-337.229
-378.15
-393.085
-386.82
-364.784
-332.398
-296.686
-258.522
-218.649
-178.629
-138.428
-100.935
-68.399
-40.961
-19.074
-1.991
11.593
21.949
29.458
35.107
39.513
43.368
47.61
52.407
57.554
63.11
68.945
74.699
80.182
84.995
88.535
90.716
91.741
91.795
91.257
90.526
89.888
89.752
90.586
92.611
95.906
100.487
106.24
113.077
120.932
129.661
139.094
149.087
159.487
170.168
181.025
191.912
202.691
213.256
223.509
233.391
242.857
251.853
260.332
268.256
275.591
282.315
288.408
293.855
298.648
302.783
306.253
309.055
311.183
312.629
313.401
313.513
312.994
311.891
310.272
308.231
305.868
303.283
300.554
297.727
294.84
291.92
288.999
286.121
283.305
280.541
277.776
274.911
271.81
268.301
264.153
259.078
252.767
244.897
235.19
223.422
209.384
192.889
173.736
151.713
126.65
98.433
67.02
32.456
-5.151
-45.627
-88.704
-134.026
-181.177
-229.694
-279.138
-329.108
-379.195
-428.996
-478.066
-525.924
-572.114
-616.219
-657.898
-696.895
-733.019
-766.141
-796.225
-823.318
-847.536
-869.06
-888.068
-904.729
-919.232
-931.78
-942.63
-952.096
-960.489
-968.115
-975.228
-982.018
-988.643
-995.218
-1001.805
-1008.421
-1015.033
-1021.569
-1027.963
-1034.151
-1040.064
-1045.627
-1050.729
-1055.227
-1058.974
-1061.822
-1063.657
-1064.405
-1064.01
-1062.44
-1059.691
-1055.778
-1050.746
-1044.655
-1037.565
-1029.528
-1020.599
-1010.829
-1000.287
-989.052
-977.21
-964.844
-952.029
-938.82
-925.269
-911.42
-897.307
-882.959
-868.394
-853.625
-838.668
-823.546
-808.283
-792.905
-777.435
-761.894
-746.302
-730.679
-715.046
-699.427
-683.843
-668.317
-652.875
-637.539
-622.335
-607.29
-592.426
-577.762
-563.317
-549.107
-535.146
-521.447
-508.023
-494.883
-482.036
-469.49
-457.253
-445.33
-433.724
-422.439
-411.476
-400.834
-390.511
-380.504
-370.808
-361.417
-352.323
-343.517
-334.989
-326.728
-318.721
-310.956
-303.419
-296.096
-288.974
-282.036
-275.268
-268.655
-262.182
-255.834
-249.596
-243.453
-237.391
-231.397
-225.459
-219.567
-213.709
-207.876
-202.06
-196.253
-190.451
-184.649
-178.843
-173.031
-167.214
-161.394
-155.574
-149.76
-143.959
-138.18
-132.436
-126.742
-121.111
-115.561
-110.11
-104.776
-99.578
-94.536
-89.669
-84.994
-80.531
-76.299
-72.316
-68.605
-65.183
-62.072
-59.287
-56.846
-54.763
-53.049
-51.709
-50.748
-50.166
-49.969
-50.167
-50.767
-51.769
-53.173
-54.97
-57.148
-59.684
-62.543
-65.673
-69.023
-72.537
-76.169
-79.879
-83.623
-87.356
-91.024
-94.562
-97.911
-101.02
-103.841
-106.332
-108.471
-110.267
-111.767
-113.066
-114.249
-115.382
-116.534
-117.772
-119.196
-120.92
-123.036
-125.628
-128.804
-132.724
-137.505
-143.155
-149.455
-155.988
-162.303
-167.942
-172.413
-175.177
-175.807
-174.189
-170.828
-166.657
-162.483
-159.205
-157.749
-158.611
-162.148
-167.302
-170.597
-169.573
-162.986
-150.902
-136.11
-117.389
-88.659
-42.589
27.928
123.343
235.177
349.529
453.381
537.535
598.484
640.018
665.106
675.021
670.746
648.702
606.562
544.856
464.426
369.173
263.562
151.338
36.668
-76.784
-184.825
-283.013
-367.61
-435.657
-485.537
-517.042
-530.635
-527.382
-509.747
-480.949
-444.623
-404.565
-363.732
-324.262
-287.856
-255.774
-228.317
-204.999
-184.581
-165.354
-145.906
-125.088
-102.108
-76.432
-47.895
-16.869
15.751
48.727
80.785
110.697
137.615
160.959
180.33
195.675
207.156
215.139
220.19
222.946
223.89
223.362
221.626
218.881
215.393
211.43
207.19
202.85
198.584
194.602
191.149
188.41
186.475
185.357
185.009
185.364
186.371
187.972
190.098
192.667
195.57
198.71
202.013
205.391
208.758
212.006
215.01
217.693
220.031
222.025
223.707
225.113
226.276
227.242
228.072
228.822
229.544
230.283
231.067
231.936
232.935
234.114
235.528
237.209
239.172
241.418
243.944
246.735
249.778
253.045
256.498
260.106
263.839
267.67
271.578
275.532
279.5
283.448
287.343
291.153
294.848
298.399
301.777
304.957
307.915
310.631
313.087
315.265
317.148
318.719
319.964
320.871
321.43
321.632
321.471
320.944
320.05
318.792
317.175
315.205
312.892
310.245
307.279
304.008
300.448
296.617
292.535
288.221
283.699
278.989
274.118
269.107
263.983
258.77
253.494
248.181
242.854
237.539
232.259
227.037
221.896
216.856
211.938
207.161
202.541
198.094
193.834
189.775
185.927
182.299
178.899
175.731
172.802
170.112
167.663
165.454
163.483
161.745
160.237
158.952
157.881
157.015
156.344
155.856
155.538
155.378
155.36
155.469
155.689
156.004
156.396
156.849
157.345
157.867
158.397
158.919
159.414
159.868
160.264
160.587
160.823
160.957
160.977
160.872
160.63
160.24
159.695
158.986
158.106
157.05
155.814
154.394
152.789
150.998
149.023
146.864
144.526
142.013
139.331
136.487
133.489
130.348
127.073
123.677
120.171
116.571
112.89
109.144
105.348
101.518
97.672
93.826
89.997
86.202
82.459
78.784
75.195
71.708
68.34
65.107
62.024
59.106
56.368
53.824
51.486
49.366
47.474
45.821
44.415
43.263
42.372
41.746
41.389
41.303
41.488
41.944
42.669
43.657
44.903
46.4
48.139
50.112
52.306
54.709
57.307
60.086
63.029
66.121
69.342
72.673
76.095
79.587
83.128
86.694
90.262
93.805
97.299
100.718
104.038
107.231
110.274
113.143
115.818
118.28
120.511
122.492
124.207
125.636
126.767
127.586
128.083
128.249
128.078
127.569
126.726
125.556
124.067
122.261
120.133
117.679
114.905
111.819
108.432
104.769
100.855
96.729
92.446
88.062
83.63
79.2
74.802
70.475
66.266
62.227
58.424
54.924
51.769
49.002
46.657
44.722
43.164
41.916
40.87
39.941
39.05
38.086
36.961
35.579
33.832
31.65
28.899
25.352
20.892
15.524
9.393
2.901
-3.529
-9.51
-14.471
-17.757
-18.988
-18.121
-15.566
-12.221
-9.083
-7.235
-7.859
-11.946
-18.904
-26.297
-31.259
-31.647
-29.013
-27.073
-27.31
-25.909
-10.724
32.338
112.864
230.362
369.326
508.518
626.376
707.425
750.357
761.01
749.292
724.362
687.913
637.829
570.495
484.462
382.743
271.058
156.443
44.378
-61.3
-157.577
-242.377
-313.886
-370.575
-412.038
-439.071
-452.885
-455.147
-447.469
-431.111
-407.474
-378.179
-344.802
-308.352
-269.551
-228.974
-187.495
-146.611
-107.835
-72.329
-40.688
-13.322
9.399
27.281
40.616
50.419
58.045
64.846
71.602
78.624
86.131
94.173
102.559
110.835
118.287
124.103
127.884
129.63
129.438
127.554
124.3
120.001
115.091
110.067
105.237
100.754
96.719
93.141
89.98
87.173
84.594
82.103
79.631
77.143
74.622
72.08
69.507
66.912
64.358
61.907
59.59
57.42
55.381
53.465
51.749
50.365
49.435
49.053
49.276
50.132
51.664
53.898
56.817
60.353
64.383
68.799
73.541
78.577
83.885
89.43
95.125
100.855
106.534
112.094
117.48
122.652
127.55
132.136
136.412
140.426
144.254
147.949
151.524
154.974
158.287
161.457
164.493
167.402
170.169
172.772
175.194
177.417
179.433
181.222
182.743
183.937
184.736
185.093
184.973
184.358
183.228
181.569
179.37
176.633
173.37
169.596
165.322
160.557
155.313
149.607
143.465
136.918
129.998
122.737
115.165
107.314
99.216
90.906
82.413
73.768
64.997
56.132
47.205
38.246
29.291
20.37
11.513
2.752
-5.885
-14.368
-22.673
-30.776
-38.656
-46.292
-53.668
-60.766
-67.575
-74.081
-80.275
-86.15
-91.698
-96.917
-101.803
-106.356
-110.577
-114.468
-118.033
-121.277
-124.207
-126.831
-129.157
-131.196
-132.956
-134.451
-135.692
-136.692
-137.465
-138.025
-138.386
-138.563
-138.57
-138.423
-138.135
-137.721
-137.193
-136.567
-135.854
-135.068
-134.219
-133.32
-132.381
-131.414
-130.427
-129.431
-128.435
-127.446
-126.473
-125.523
-124.603
-123.72
-122.878
-122.085
-121.344
-120.66
-120.037
-119.48
-118.99
-118.57
-118.223
-117.95
-117.752
-117.631
-117.587
-117.621
-117.731
-117.919
-118.182
-118.519
-118.93
-119.41
-119.958
-120.572
-121.247
-121.98
-122.768
-123.605
-124.488
-125.412
-126.371
-127.361
-128.375
-129.407
-130.45
-131.499
-132.545
-133.581
-134.6
-135.594
-136.556
-137.478
-138.354
-139.175
-139.935
-140.626
-141.242
-141.776
-142.222
-142.574
-142.827
-142.977
-143.019
-142.953
-142.774
-142.481
-142.075
-141.556
-140.925
-140.183
-139.334
-138.381
-137.329
-136.183
-134.95
-133.638
-132.255
-130.813
-129.327
-127.809
-126.276
-124.744
-123.229
-121.749
-120.32
-118.958
-117.676
-116.488
-115.406
-114.446
-113.624
-112.955
-112.453
-112.131
-112
-112.068
-112.346
-112.838
-113.539
-114.446
-115.561
-116.888
-118.446
-120.248
-122.295
-124.589
-127.123
-129.882
-132.851
-135.998
-139.269
-142.615
-145.983
-149.334
-152.645
-155.883
-159.002
-161.948
-164.647
-167.038
-169.082
-170.748
-172.026
-172.93
-173.493
-173.785
-173.906
-173.97
-174.101
-174.417
-175.013
-175.991
-177.445
-179.529
-182.493
-186.489
-191.507
-197.411
-203.868
-210.511
-217.025
-222.913
-227.474
-230.242
-231.144
-230.521
-229.148
-227.968
-227.878
-229.765
-234.613
-241.924
-249.37
-254.805
-256.634
-255.869
-255.678
-255.696
-249.985
-228.39
-180.421
-101.632
1.898
118.069
234.682
340.027
429.194
500.177
549.239
577.75
585.452
571.757
539.697
487.898
416.224
327.648
224.391
111.838
-3.852
-118.643
-228.515
-329.696
-419.046
-493.7
-551.498
-591.623
-614.58
-621.141
-612.251
-589.498
-554.971
-511.073
-460.63
-406.446
-350.459
-294.488
-240.749
-191.122
-147.216
-110.359
-80.808
-58.045
-41.783
-31.484
-25.884
-23.67
-23.234
-22.791
-21.498
-19.188
-15.688
-11.146
-6.058
-0.87
3.678
6.676
7.848
7.294
5.223
2.138
-1.433
-5.08
-8.28
-10.506
-11.525
-11.24
-9.665
-6.968
-3.28
1.279
6.524
12.28
18.399
24.739
31.18
37.597
43.834
49.771
55.33
60.457
65.138
69.368
73.146
76.508
79.504
82.185
84.607
86.813
88.842
90.746
92.581
94.411
96.303
98.304
100.446
102.755
105.241
107.911
110.767
113.796
116.975
120.288
123.72
127.257
130.888
134.597
138.361
142.159
145.968
149.765
153.53
157.238
160.867
164.394
167.799
171.061
174.162
177.08
179.792
182.277
184.512
186.475
188.144
189.501
190.525
191.199
191.509
191.442
190.988
190.139
188.887
187.23
185.165
182.693
179.817
176.542
172.875
168.824
164.402
159.62
154.495
149.043
143.282
137.233
130.917
124.357
117.578
110.604
103.462
96.178
88.78
81.297
73.755
66.183
58.61
51.064
43.571
36.16
28.856
21.684
14.668
7.831
1.194
-5.223
-11.402
-17.327
-22.982
-28.353
-33.429
-38.2
-42.657
-46.793
-50.602
-54.083
-57.232
-60.05
-62.538
-64.699
-66.537
-68.059
-69.272
-70.184
-70.806
-71.148
-71.222
-71.042
-70.622
-69.978
-69.124
-68.079
-66.859
-65.481
-63.964
-62.325
-60.584
-58.757
-56.863
-54.92
-52.946
-50.957
-48.97
-47.001
-45.065
-43.178
-41.352
-39.6
-37.936
-36.369
-34.911
-33.57
-32.355
-31.274
-30.334
-29.539
-28.893
-28.401
-28.065
-27.884
-27.86
-27.991
-28.275
-28.709
-29.289
-30.008
-30.862
-31.842
-32.941
-34.15
-35.458
-36.856
-38.333
-39.877
-41.477
-43.121
-44.799
-46.497
-48.205
-49.91
-51.602
-53.267
-54.895
-56.475
-57.994
-59.443
-60.811
-62.088
-63.266
-64.336
-65.291
-66.123
-66.827
-67.398
-67.83
-68.122
-68.27
-68.273
-68.131
-67.847
-67.422
-66.862
-66.171
-65.356
-64.424
-63.385
-62.248
-61.022
-59.719
-58.35
-56.927
-55.463
-53.972
-52.469
-50.971
-49.497
-48.065
-46.695
-45.408
-44.222
-43.157
-42.233
-41.465
-40.867
-40.453
-40.235
-40.227
-40.445
-40.9
-41.6
-42.554
-43.769
-45.247
-46.99
-48.994
-51.247
-53.739
-56.465
-59.426
-62.632
-66.087
-69.787
-73.725
-77.89
-82.266
-86.831
-91.549
-96.363
-101.217
-106.059
-110.845
-115.544
-120.115
-124.498
-128.625
-132.417
-135.802
-138.737
-141.189
-143.127
-144.551
-145.474
-145.939
-146.053
-145.938
-145.709
-145.504
-145.45
-145.663
-146.341
-147.725
-150
-153.273
-157.465
-162.27
-167.341
-172.333
-176.795
-180.227
-182.224
-182.589
-181.676
-180.464
-180.127
-181.752
-186.226
-194.119
-205.519
-220.04
-236.349
-251.69
-262.48
-265.217
-256.689
-235.172
-200.932
-152.982
-90.36
-12.777
81.382
187.306
294.703
393.581
471.448
522.97
552.245
562.579
558.877
542.765
508.956
454.682
379.603
285.592
178.344
63.339
-55.066
-172.835
-285.831
-389.566
-479.896
-553.649
-608.882
-645.274
-663.43
-664.12
-649.343
-622.272
-586.355
-545.232
-502.221
-459.642
-419.476
-383.984
-354.602
-331.547
-314.364
-301.949
-293.029
-286.724
-281.996
-277.211
-270.89
-262.345
-251.536
-238.964
-225.329
-211.095
-196.71
-182.975
-170.755
-160.492
-152.193
-145.503
-139.84
-134.756
-129.96
-125.075
-119.688
-113.509
-106.348
-98.164
-89.066
-79.151
-68.491
-57.177
-45.306
-33.001
-20.434
-7.784
4.768
17.07
29.02
40.542
51.572
62.052
71.928
81.172
89.795
97.815
105.244
112.091
118.361
124.085
129.323
134.145
138.63
142.84
146.816
150.597
154.218
157.708
161.094
164.388
167.591
170.708
173.751
176.733
179.671
182.573
185.437
188.26
191.039
193.77
196.449
199.069
201.621
204.096
206.487
208.788
210.991
213.085
215.058
216.895
218.578
220.092
221.42
222.544
223.447
224.11
224.519
224.658
224.514
224.076
223.329
222.265
220.874
219.148
217.081
214.67
211.91
208.802
205.348
201.551
197.416
192.952
188.169
183.079
177.697
172.038
166.12
159.962
153.585
147.01
140.262
133.363
126.338
119.213
112.013
104.763
97.49
90.219
82.973
75.778
68.657
61.632
54.725
47.957
41.348
34.916
28.678
22.651
16.847
11.282
5.965
0.906
-3.888
-8.409
-12.654
-16.62
-20.307
-23.713
-26.843
-29.698
-32.285
-34.609
-36.678
-38.5
-40.084
-41.44
-42.578
-43.509
-44.245
-44.797
-45.177
-45.398
-45.47
-45.406
-45.217
-44.916
-44.514
-44.022
-43.451
-42.81
-42.109
-41.356
-40.561
-39.73
-38.87
-37.987
-37.085
-36.168
-35.241
-34.305
-33.362
-32.413
-31.458
-30.496
-29.526
-28.547
-27.555
-26.549
-25.526
-24.482
-23.414
-22.318
-21.191
-20.028
-18.825
-17.578
-16.282
-14.934
-13.528
-12.062
-10.53
-8.928
-7.255
-5.505
-3.677
-1.769
0.223
2.299
4.462
6.711
9.047
11.472
13.985
16.585
19.272
22.045
24.901
27.838
30.855
33.949
37.116
40.355
43.66
47.03
50.459
53.945
57.482
61.065
64.689
68.347
72.036
75.747
79.474
83.209
86.946
90.677
94.395
98.091
101.758
105.388
108.972
112.5
115.962
119.347
122.643
125.836
128.914
131.865
134.674
137.331
139.823
142.143
144.282
146.233
147.988
149.537
150.871
151.984
152.872
153.529
153.954
154.145
154.104
153.843
153.371
152.695
151.82
150.737
149.441
147.937
146.229
144.327
142.245
140
137.619
135.149
132.637
130.127
127.659
125.257
122.954
120.795
118.839
117.154
115.806
114.839
114.285
114.171
114.503
115.264
116.411
117.878
119.573
121.406
123.288
125.127
126.83
128.295
129.343
129.72
129.254
127.918
125.826
123.243
120.46
117.778
115.684
114.839
115.684
118.219
122.007
126.283
130.078
132.351
131.999
127.838
120.375
112.06
105.303
101.932
100.666
98.172
94.953
96.133
111.996
154.364
228.338
332.3
457.384
589.398
714.531
818.648
891.505
930.21
938.306
925.503
901.031
869.123
828.425
773.464
701.103
612.327
511.82
407.414
304.607
205.496
109.531
14.378
-78.874
-164.181
-230.93
-268.612
-273.393
-249.23
-207.582
-160.877
-116.078
-74.529
-33.33
9.97
54.521
96.974
133.611
162.975
185.535
202.447
215.054
224.189
230.74
236.451
242.971
251.034
260.766
271.812
283.659
295.991
308.376
319.877
329.434
336.507
341.026
343.281
343.757
342.798
340.717
338.028
335.385
333.29
332.026
331.679
332.185
333.503
335.649
338.603
342.294
346.644
351.576
357.023
362.957
369.346
376.119
383.194
390.459
397.799
405.159
412.517
419.861
427.198
434.531
441.833
449.094
456.297
463.385
470.323
477.074
483.584
489.829
495.804
501.502
506.933
512.089
516.925
521.413
525.523
529.228
532.562
535.587
538.391
541.122
543.925
546.944
550.366
554.367
559.078
564.628
571.116
578.644
587.397
597.547
609.244
622.631
637.763
654.671
673.406
693.879
715.864
739.002
762.726
786.464
809.807
832.293
853.385
872.688
889.96
905.352
919.501
932.927
945.812
958.153
969.807
980.423
989.154
994.233
993.066
983.077
962.161
928.924
882.511
822.352
748.906
664.102
571.02
473.359
374.674
277.637
184.469
97.401
17.767
-54.27
-119.432
-179.337
-235.684
-289.334
-340.876
-391.053
-440.185
-488.156
-534.468
-578.003
-617.598
-652.734
-683.177
-708.73
-729.399
-745.249
-756.52
-763.827
-767.918
-769.357
-768.566
-765.914
-761.701
-756.273
-749.99
-743.073
-735.627
-727.753
-719.577
-711.26
-703.029
-695.111
-687.654
-680.783
-674.613
-669.203
-664.6
-660.803
-657.734
-655.297
-653.39
-651.939
-650.913
-650.295
-650.035
-650.066
-650.297
-650.59
-650.825
-650.872
-650.572
-649.821
-648.548
-646.718
-644.353
-641.501
-638.206
-634.512
-630.456
-626.064
-621.378
-616.44
-611.296
-606.023
-600.699
-595.421
-590.308
-585.442
-580.873
-576.63
-572.708
-569.083
-565.734
-562.624
-559.706
-556.942
-554.293
-551.723
-549.207
-546.703
-544.164
-541.539
-538.762
-535.785
-532.574
-529.104
-525.361
-521.338
-517.032
-512.453
-507.617
-502.539
-497.233
-491.71
-485.978
-480.05
-473.944
-467.68
-461.279
-454.767
-448.164
-441.495
-434.783
-428.053
-421.329
-414.632
-407.983
-401.401
-394.911
-388.534
-382.294
-376.213
-370.312
-364.612
-359.138
-353.911
-348.953
-344.283
-339.916
-335.87
-332.157
-328.789
-325.772
-323.109
-320.801
-318.848
-317.251
-316.011
-315.123
-314.582
-314.379
-314.502
-314.937
-315.67
-316.675
-317.926
-319.396
-321.063
-322.913
-324.941
-327.139
-329.489
-331.968
-334.552
-337.214
-339.92
-342.624
-345.262
-347.77
-350.091
-352.176
-353.993
-355.496
-356.629
-357.326
-357.508
-357.112
-356.102
-354.462
-352.181
-349.278
-345.779
-341.731
-337.253
-332.488
-327.578
-322.666
-317.869
-313.293
-309.129
-305.661
-303.09
-301.46
-300.639
-300.29
-300.086
-299.766
-298.922
-296.967
-293.473
-288.426
-282.304
-276.026
-270.677
-267.257
-266.666
-269.873
-276.372
-283.762
-289.57
-291.728
-290.941
-289.995
-288.199
-279.779
-253.824
-199.371
-113.59
-3.229
117.085
232.306
333.573
417.528
484.938
536.254
569.255
580.969
569.098
533.325
475.078
397.201
303.464
197.78
84.767
-30.738
-144.755
-253.472
-352.991
-440.039
-511.854
-566.461
-603.577
-623.94
-628.26
-617.665
-594.112
-560.185
-519.138
-474.238
-427.743
-381.328
-336.869
-296.338
-261.166
-231.843
-207.816
-188.066
-171.929
-158.873
-148.029
-138.02
-127.446
-115.646
-102.727
-89.192
-75.465
-61.838
-48.682
-36.753
-26.997
-19.876
-15.351
-13.064
-12.524
-13.351
-15.217
-17.613
-19.86
-21.423
-21.992
-21.446
-19.831
-17.181
-13.477
-8.751
-3.097
3.366
10.503
18.194
26.362
34.933
43.8
52.834
61.867
70.73
79.313
87.55
95.404
102.859
109.898
116.515
122.741
128.627
134.223
139.577
144.721
149.68
154.493
159.212
163.894
168.599
173.367
178.22
183.171
188.23
193.399
198.679
204.053
209.495
214.985
220.506
226.044
231.587
237.117
242.612
248.05
253.407
258.662
263.793
268.778
273.594
278.222
282.639
286.83
290.776
294.461
297.865
300.971
303.759
306.212
308.315
310.053
311.412
312.379
312.946
313.104
312.849
312.175
311.082
309.569
307.637
305.29
302.533
299.372
295.816
291.876
287.563
282.89
277.871
272.524
266.865
260.913
254.689
248.212
241.504
234.588
227.485
220.219
212.814
205.291
197.673
189.985
182.247
174.482
166.711
158.956
151.236
143.571
135.979
128.477
121.082
113.81
106.674
99.689
92.867
86.22
79.759
73.493
67.431
61.581
55.949
50.541
45.362
40.415
35.703
31.227
26.989
22.987
19.221
15.69
12.392
9.324
6.482
3.863
1.463
-0.723
-2.701
-4.474
-6.05
-7.434
-8.633
-9.653
-10.501
-11.182
-11.705
-12.076
-12.302
-12.391
-12.349
-12.185
-11.905
-11.518
-11.03
-10.451
-9.785
-9.042
-8.227
-7.347
-6.41
-5.421
-4.386
-3.312
-2.205
-1.07
0.088
1.264
2.453
3.65
4.853
6.056
7.258
8.455
9.645
10.824
11.992
13.144
14.281
15.4
16.501
17.583
18.646
19.69
20.716
21.726
22.721
23.705
24.678
25.643
26.604
27.562
28.522
29.486
30.457
31.44
32.437
33.453
34.49
35.55
36.638
37.753
38.898
40.075
41.283
42.524
43.797
45.101
46.437
47.803
49.197
50.619
52.064
53.53
55.01
56.498
57.985
59.461
60.915
62.333
63.703
65.013
66.247
67.396
68.448
69.391
70.216
70.91
71.457
71.847
72.067
72.106
71.956
71.606
71.05
70.284
69.308
68.122
66.722
65.096
63.222
61.083
58.67
55.975
52.996
49.735
46.197
42.405
38.396
34.214
29.9
25.492
21.015
16.504
12.009
7.593
3.331
-0.708
-4.487
-7.986
-11.186
-14.089
-16.714
-19.096
-21.346
-23.608
-26.009
-28.68
-31.75
-35.331
-39.62
-44.908
-51.382
-59.098
-67.972
-77.718
-88.026
-98.631
-109.096
-118.8
-127.293
-134.432
-140.456
-146.04
-152.104
-159.586
-169.192
-181.73
-196.751
-211.924
-226.115
-238.423
-248.788
-259.771
-268.31
-266.448
-246.551
-199.347
-124.622
-32.183
68.893
168.088
259.677
345.019
422.453
489.242
542.388
576.299
587.455
575.301
539.296
480.837
404.231
312.044
206.248
88.881
-40.523
-176.942
-309.714
-427.957
-519.52
-581.035
-618.201
-637.08
-645.156
-644.193
-630.33
-602.958
-562.755
-512.813
-459.107
-404.962
-352.388
-303.902
-260.932
-224.629
-195.741
-173.546
-156.847
-144.905
-136.678
-130.641
-125.272
-118.978
-110.86
-101.06
-89.998
-78.052
-65.75
-53.752
-42.901
-34.215
-28.202
-24.784
-23.676
-24.452
-26.697
-30.03
-33.891
-37.612
-40.723
-42.933
-44.125
-44.324
-43.534
-41.754
-39.044
-35.502
-31.241
-26.375
-20.99
-15.142
-8.898
-2.334
4.439
11.298
18.126
24.805
31.258
37.44
43.313
48.867
54.11
59.058
63.75
68.238
72.561
76.757
80.857
84.886
88.88
92.882
96.933
101.079
105.348
109.755
114.311
119.018
123.868
128.853
133.951
139.133
144.376
149.658
154.958
160.258
165.537
170.77
175.931
180.996
185.938
190.734
195.361
199.796
204.015
208
211.73
215.191
218.365
221.235
223.785
225.998
227.86
229.359
230.483
231.222
231.568
231.516
231.063
230.208
228.952
227.3
225.255
222.825
220.02
216.85
213.327
209.468
205.286
200.798
196.023
190.98
185.689
180.17
174.446
168.539
162.47
156.264
149.944
143.531
137.048
130.518
123.962
117.402
110.858
104.349
97.895
91.514
85.223
79.037
72.972
67.041
61.257
55.629
50.17
44.886
39.785
34.874
30.157
25.638
21.321
17.207
13.297
9.592
6.089
2.787
-0.317
-3.227
-5.945
-8.479
-10.832
-13.011
-15.022
-16.872
-18.567
-20.115
-21.522
-22.798
-23.948
-24.982
-25.908
-26.733
-27.467
-28.116
-28.689
-29.194
-29.639
-30.032
-30.379
-30.689
-30.967
-31.222
-31.46
-31.687
-31.908
-32.129
-32.355
-32.59
-32.837
-33.102
-33.385
-33.69
-34.018
-34.372
-34.752
-35.159
-35.592
-36.053
-36.538
-37.048
-37.579
-38.128
-38.694
-39.271
-39.855
-40.443
-41.03
-41.611
-42.179
-42.73
-43.257
-43.754
-44.215
-44.633
-45.001
-45.313
-45.563
-45.745
-45.854
-45.886
-45.834
-45.696
-45.468
-45.147
-44.732
-44.22
-43.609
-42.901
-42.096
-41.196
-40.204
-39.124
-37.961
-36.721
-35.411
-34.04
-32.616
-31.148
-29.648
-28.125
-26.592
-25.061
-23.545
-22.06
-20.621
-19.245
-17.952
-16.759
-15.684
-14.745
-13.961
-13.348
-12.92
-12.689
-12.664
-12.858
-13.28
-13.942
-14.851
-16.014
-17.433
-19.113
-21.051
-23.246
-25.689
-28.364
-31.259
-34.361
-37.666
-41.175
-44.886
-48.788
-52.869
-57.114
-61.5
-66.005
-70.587
-75.192
-79.764
-84.249
-88.6
-92.781
-96.747
-100.44
-103.795
-106.738
-109.201
-111.143
-112.53
-113.332
-113.552
-113.203
-112.32
-110.996
-109.342
-107.473
-105.524
-103.611
-101.835
-100.36
-99.42
-99.201
-99.816
-101.196
-103.08
-105.221
-107.402
-109.263
-110.307
-110.086
-108.325
-105.308
-101.848
-98.627
-96.359
-95.989
-98.373
-104.217
-112.911
-121.813
-127.809
-128.91
-126.045
-121.807
-116.905
-107.857
-84.807
-36.639
43.734
156.315
289.491
425.63
546.146
636.384
692.067
717.113
720.656
710.402
688.629
653.106
598.111
521.24
424.673
312.779
192.536
69.97
-50.994
-166.02
-270.796
-361.827
-436.054
-491.428
-527.727
-545.441
-545.125
-528.665
-499.109
-459.799
-414.418
-366.472
-318.482
-272.726
-231.833
-197.563
-170.376
-149.951
-135.185
-124.667
-117.346
-112.036
-106.886
-100.24
-91.342
-80.089
-67.003
-52.908
-38.39
-24.051
-10.894
0.053
8.228
13.5
16.132
16.616
15.357
12.714
9.183
5.339
1.657
-1.537
-4.049
-5.788
-6.695
-6.704
-5.799
-4.028
-1.452
1.865
5.844
10.422
15.526
21.069
26.977
33.169
39.536
45.976
52.377
58.619
64.626
70.351
75.752
80.822
85.569
90.011
94.183
98.133
101.896
105.506
108.993
112.378
115.695
118.979
122.267
125.605
129.02
132.529
136.146
139.871
143.699
147.622
151.622
155.672
159.752
163.843
167.927
171.989
176.014
179.979
183.865
187.648
191.308
194.824
198.176
201.345
204.312
207.059
209.572
211.838
213.844
215.575
217.017
218.157
218.983
219.484
219.652
219.478
218.954
218.077
216.844
215.254
213.309
211.01
208.363
205.372
202.045
198.39
194.419
190.143
185.575
180.728
175.618
170.261
164.674
158.874
152.882
146.714
140.393
133.938
127.369
120.708
113.976
107.194
100.382
93.561
86.752
79.974
73.248
66.592
60.025
53.566
47.23
41.034
34.994
29.124
23.437
17.946
12.661
7.594
2.752
-1.856
-6.223
-10.345
-14.217
-17.834
-21.196
-24.3
-27.147
-29.737
-32.074
-34.159
-35.997
-37.593
-38.953
-40.085
-40.996
-41.694
-42.19
-42.492
-42.612
-42.561
-42.351
-41.995
-41.505
-40.895
-40.178
-39.367
-38.477
-37.521
-36.512
-35.463
-34.387
-33.296
-32.201
-31.115
-30.047
-29.008
-28.008
-27.055
-26.157
-25.322
-24.555
-23.864
-23.251
-22.722
-22.278
-21.921
-21.651
-21.47
-21.375
-21.364
-21.434
-21.581
-21.799
-22.083
-22.426
-22.821
-23.259
-23.731
-24.228
-24.741
-25.26
-25.773
-26.271
-26.743
-27.179
-27.57
-27.905
-28.175
-28.371
-28.484
-28.506
-28.428
-28.244
-27.947
-27.532
-26.993
-26.327
-25.533
-24.608
-23.553
-22.368
-21.056
-19.62
-18.063
-16.393
-14.616
-12.739
-10.773
-8.729
-6.619
-4.456
-2.256
-0.034
2.192
4.404
6.582
8.705
10.75
12.695
14.519
16.201
17.724
19.072
20.229
21.179
21.908
22.404
22.659
22.662
22.398
21.856
21.029
19.923
18.552
16.937
15.086
12.99
10.652
8.086
5.314
2.355
-0.789
-4.14
-7.685
-11.358
-15.109
-18.94
-22.858
-26.894
-31.069
-35.298
-39.509
-43.729
-47.783
-51.263
-54.081
-56.284
-57.723
-58.738
-58.785
-56.053
-51.334
-46.755
-45.311
-52.616
-68.351
-86.62
-101.674
-105.401
-96.602
-82.293
-68.18
-60.383
-60.261
-62.921
-65.22
-65.057
-62.493
-60.429
-60.398
-62.992
-68.516
-76.464
-86.985
-100.556
-115.798
-130.072
-140.828
-146.066
-147.155
-147.657
-148.027
-144.406
-127.775
-86.222
-13.394
88.618
210.866
337.63
453.5
549.062
618.085
661.364
685.174
692.86
687.546
669.161
632.496
575.274
497.598
401.83
293.696
178.617
61.019
-55.153
-165.933
-267.06
-354.72
-425.906
-478.75
-513.168
-530.024
-530.319
-516.164
-490.398
-455.907
-416.01
-373.895
-331.571
-290.569
-252.615
-218.694
-189.386
-165.231
-145.837
-130.351
-118.395
-109.51
-102.807
-97.654
-93.281
-88.648
-83.491
-77.961
-72.015
-65.81
-59.695
-53.893
-48.88
-45.326
-43.373
-42.861
-43.636
-45.358
-47.685
-50.328
-52.817
-54.633
-55.508
-55.341
-54.121
-51.944
-48.868
-44.933
-40.27
-35.048
-29.414
-23.496
-17.38
-11.129
-4.845
1.328
7.267
12.881
18.121
22.978
27.44
31.499
35.163
38.463
41.448
44.17
46.674
48.995
51.167
53.234
55.252
57.281
59.371
61.555
63.855
66.285
68.855
71.572
74.434
77.426
80.532
83.741
87.039
90.421
93.873
97.377
100.911
104.452
107.979
111.473
114.912
118.273
121.533
124.671
127.667
130.501
133.155
135.605
137.83
139.806
141.512
142.929
144.035
144.811
145.24
145.307
144.999
144.305
143.216
141.725
139.827
137.52
134.803
131.678
128.151
124.226
119.914
115.226
110.176
104.78
99.055
93.02
86.697
80.109
73.28
66.234
58.999
51.6
44.067
36.427
28.71
20.944
13.159
5.383
-2.355
-10.026
-17.604
-25.061
-32.372
-39.513
-46.462
-53.195
-59.693
-65.937
-71.911
-77.6
-82.991
-88.072
-92.834
-97.27
-101.375
-105.146
-108.581
-111.682
-114.451
-116.891
-119.01
-120.815
-122.314
-123.519
-124.44
-125.092
-125.488
-125.643
-125.573
-125.295
-124.826
-124.183
-123.386
-122.453
-121.402
-120.252
-119.022
-117.729
-116.391
-115.027
-113.651
-112.281
-110.93
-109.612
-108.34
-107.125
-105.976
-104.904
-103.914
-103.014
-102.208
-101.499
-100.89
-100.38
-99.969
-99.656
-99.438
-99.309
-99.266
-99.303
-99.411
-99.585
-99.814
-100.09
-100.403
-100.742
-101.096
-101.453
-101.802
-102.13
-102.425
-102.676
-102.871
-102.999
-103.05
-103.013
-102.878
-102.638
-102.282
-101.805
-101.199
-100.459
-99.579
-98.557
-97.389
-96.075
-94.613
-93.006
-91.253
-89.358
-87.324
-85.156
-82.857
-80.435
-77.895
-75.246
-72.496
-69.656
-66.735
-63.746
-60.7
-57.61
-54.488
-51.348
-48.203
-45.065
-41.949
-38.869
-35.838
-32.871
-29.984
-27.191
-24.511
-21.96
-19.555
-17.31
-15.24
-13.359
-11.682
-10.221
-8.987
-7.99
-7.236
-6.735
-6.497
-6.529
-6.833
-7.409
-8.253
-9.362
-10.733
-12.361
-14.236
-16.345
-18.674
-21.212
-23.958
-26.909
-30.055
-33.38
-36.862
-40.48
-44.212
-48.031
-51.895
-55.758
-59.57
-63.281
-66.847
-70.229
-73.389
-76.291
-78.892
-81.141
-82.985
-84.381
-85.293
-85.726
-85.715
-85.276
-84.421
-83.249
-81.954
-80.858
-80.303
-80.446
-81.273
-82.803
-85.155
-88.331
-92.02
-95.429
-97.61
-98.042
-96.691
-93.702
-89.099
-82.972
-75.963
-69.635
-65.898
-66.097
-70.742
-79.604
-92.244
-108.058
-125.561
-141.858
-153.397
-156.731
-149.055
-128.693
-94.417
-45.329
18.269
94.364
179.827
270.585
362.194
450.837
532.49
602.843
658.156
695.624
713.297
710.367
686.731
642.07
576.96
494.123
397.954
293.08
183.18
68.482
-52.434
-177.165
-298.307
-402.875
-477.563
-516.223
-521.917
-505.861
-479.889
-451.783
-423.868
-393.388
-358.868
-321.101
-282.348
-246.744
-216.65
-192.117
-172.528
-156.43
-142.481
-130.321
-119.431
-108.854
-97.814
-85.573
-71.93
-57.419
-42.662
-28.056
-14.019
-1.022
10.407
19.543
26.033
30.014
31.74
31.569
29.857
26.878
22.997
18.737
14.526
10.648
7.327
4.678
2.778
1.722
1.543
2.205
3.66
5.846
8.688
12.126
16.092
20.507
25.304
30.404
35.703
41.099
46.485
51.745
56.807
61.625
66.164
70.421
74.412
78.156
81.695
85.076
88.339
91.518
94.645
97.743
100.846
103.992
107.219
110.575
114.087
117.773
121.644
125.7
129.933
134.33
138.871
143.525
148.265
153.068
157.909
162.769
167.625
172.448
177.21
181.881
186.432
190.835
195.063
199.088
202.884
206.428
209.697
212.673
215.338
217.673
219.659
221.279
222.518
223.364
223.806
223.833
223.438
222.618
221.372
219.7
217.606
215.097
212.181
208.867
205.168
201.1
196.678
191.92
186.846
181.477
175.837
169.948
163.837
157.53
151.053
144.434
137.701
130.883
124.006
117.099
110.189
103.303
96.467
89.706
83.044
76.504
70.109
63.879
57.833
51.989
46.361
40.965
35.811
30.91
26.271
21.9
17.803
13.983
10.442
7.181
4.198
1.492
-0.943
-3.111
-5.02
-6.679
-8.095
-9.281
-10.246
-11.004
-11.568
-11.951
-12.167
-12.231
-12.158
-11.964
-11.664
-11.273
-10.808
-10.284
-9.715
-9.117
-8.502
-7.884
-7.276
-6.69
-6.136
-5.625
-5.167
-4.771
-4.444
-4.194
-4.027
-3.949
-3.965
-4.077
-4.289
-4.601
-5.016
-5.532
-6.149
-6.865
-7.677
-8.583
-9.578
-10.656
-11.813
-13.042
-14.334
-15.683
-17.079
-18.514
-19.978
-21.462
-22.956
-24.452
-25.939
-27.408
-28.85
-30.256
-31.615
-32.919
-34.158
-35.324
-36.409
-37.402
-38.297
-39.086
-39.763
-40.321
-40.756
-41.06
-41.231
-41.264
-41.155
-40.903
-40.505
-39.961
-39.27
-38.435
-37.458
-36.343
-35.094
-33.718
-32.22
-30.609
-28.893
-27.082
-25.184
-23.21
-21.173
-19.085
-16.958
-14.807
-12.648
-10.496
-8.371
-6.29
-4.274
-2.343
-0.514
1.19
2.752
4.153
5.378
6.411
7.238
7.843
8.211
8.324
8.173
7.746
7.035
6.032
4.732
3.135
1.248
-0.921
-3.366
-6.087
-9.093
-12.388
-15.968
-19.823
-23.942
-28.305
-32.891
-37.665
-42.574
-47.565
-52.585
-57.59
-62.553
-67.438
-72.193
-76.755
-81.049
-85.004
-88.578
-91.733
-94.439
-96.684
-98.484
-99.883
-100.959
-101.804
-102.504
-103.157
-103.86
-104.708
-105.812
-107.336
-109.505
-112.486
-116.31
-120.827
-125.738
-130.733
-135.488
-139.546
-142.312
-143.329
-142.507
-140.37
-137.84
-135.739
-135.005
-136.665
-141.42
-149.76
-160.627
-170.706
-177.703
-179.93
-176.723
-170.157
-158.164
-135.552
-97.091
-35.088
53.005
162.909
286.853
410.301
516.753
594.513
637.547
649.113
639.561
617.537
587.284
547.088
490.942
415.806
322.932
216.683
103.86
-10.159
-121.788
-227.048
-322.233
-403.809
-468.599
-515.423
-544.749
-557.511
-555.073
-539.533
-513.483
-480.249
-443.366
-405.04
-366.538
-328.985
-293.399
-260.91
-232.406
-207.669
-185.885
-166.838
-150.564
-137.015
-125.97
-116.461
-107.348
-98.334
-89.609
-81.25
-73.296
-65.71
-58.516
-52.331
-47.972
-45.721
-45.466
-46.909
-49.657
-53.439
-58.004
-62.834
-67.267
-70.858
-73.368
-74.75
-75.088
-74.411
-72.715
-70.056
-66.56
-62.368
-57.625
-52.44
-46.871
-41.001
-34.943
-28.848
-22.884
-17.165
-11.751
-6.667
-1.921
2.478
6.531
10.263
13.729
16.982
20.074
23.045
25.922
28.747
31.57
34.452
37.456
40.628
43.992
47.562
51.348
55.353
59.576
64.004
68.609
73.37
78.267
83.283
88.402
93.603
98.859
104.14
109.418
114.664
119.85
124.946
129.924
134.756
139.415
143.876
148.116
152.112
155.837
159.269
162.382
165.155
167.567
169.6
171.235
172.459
173.258
173.625
173.553
173.038
172.079
170.678
168.838
166.565
163.868
160.759
157.25
153.358
149.1
144.496
139.57
134.343
128.842
123.094
117.126
110.968
104.648
98.198
91.647
85.026
78.364
71.693
65.04
58.435
51.905
45.477
39.176
33.026
27.048
21.261
15.685
10.335
5.225
0.368
-4.227
-8.551
-12.598
-16.363
-19.843
-23.037
-25.946
-28.573
-30.923
-33.002
-34.817
-36.378
-37.696
-38.781
-39.647
-40.307
-40.776
-41.069
-41.201
-41.188
-41.046
-40.792
-40.442
-40.011
-39.515
-38.969
-38.386
-37.781
-37.166
-36.552
-35.95
-35.369
-34.82
-34.31
-33.847
-33.435
-33.081
-32.788
-32.56
-32.399
-32.305
-32.279
-32.32
-32.426
-32.594
-32.821
-33.103
-33.435
-33.812
-34.227
-34.675
-35.147
-35.637
-36.137
-36.639
-37.137
-37.622
-38.088
-38.528
-38.935
-39.303
-39.626
-39.899
-40.117
-40.275
-40.368
-40.394
-40.348
-40.227
-40.03
-39.755
-39.4
-38.966
-38.45
-37.854
-37.178
-36.424
-35.591
-34.682
-33.699
-32.645
-31.522
-30.335
-29.088
-27.784
-26.429
-25.026
-23.581
-22.098
-20.582
-19.036
-17.467
-15.878
-14.274
-12.662
-11.045
-9.429
-7.82
-6.222
-4.642
-3.085
-1.556
-0.06
1.396
2.808
4.169
5.473
6.713
7.882
8.971
9.969
10.867
11.656
12.326
12.869
13.277
13.543
13.664
13.636
13.456
13.118
12.618
11.95
11.112
10.103
8.922
7.57
6.049
4.367
2.536
0.566
-1.534
-3.764
-6.135
-8.65
-11.307
-14.102
-17.027
-20.069
-23.211
-26.425
-29.662
-32.877
-36.025
-39.071
-41.992
-44.756
-47.318
-49.626
-51.612
-53.213
-54.399
-55.144
-55.43
-55.266
-54.671
-53.682
-52.404
-50.954
-49.446
-47.999
-46.708
-45.669
-45.053
-45.102
-46.008
-47.857
-50.596
-54.018
-57.89
-61.954
-65.791
-68.82
-70.578
-70.922
-70.067
-68.591
-67.305
-67.164
-69.304
-74.875
-83.582
-93.52
-102.666
-109.486
-115.077
-122.045
-129.884
-133.885
-124.549
-91.287
-28.385
63.764
177.558
301.353
422.331
526.77
605.275
653.349
672.466
670.977
655.954
630.919
595.218
543.253
471.828
382.101
277.749
165.217
50.242
-63.652
-173.07
-274.358
-363.937
-438.446
-495.502
-534.594
-556.436
-561.712
-551.553
-528.042
-493.768
-451.968
-406.055
-358.312
-310.222
-263.59
-220.263
-181.67
-148.896
-121.977
-100.133
-82.97
-70.297
-61.417
-55.286
-50.644
-46.073
-40.953
-35.379
-29.325
-22.804
-16.076
-9.538
-3.879
0.046
1.934
1.956
0.329
-2.58
-6.368
-10.627
-14.758
-18.122
-20.36
-21.341
-21.052
-19.589
-17.018
-13.393
-8.851
-3.571
2.285
8.579
15.223
22.138
29.206
36.266
43.147
49.721
55.914
61.69
67.031
71.924
76.366
80.384
84.03
87.355
90.407
93.225
95.837
98.285
100.622
102.905
105.198
107.549
109.983
112.52
115.171
117.943
120.838
123.846
126.947
130.125
133.368
136.667
140.016
143.402
146.808
150.218
153.614
156.979
160.297
163.553
166.728
169.807
172.775
175.617
178.321
180.873
183.255
185.452
187.445
189.219
190.758
192.047
193.069
193.811
194.263
194.413
194.253
193.775
192.974
191.845
190.386
188.595
186.471
184.017
181.234
178.128
174.705
170.971
166.936
162.609
158.002
153.126
147.996
142.626
137.031
131.229
125.235
119.068
112.746
106.288
99.713
93.041
86.292
79.485
72.64
65.778
58.916
52.074
45.269
38.52
31.844
25.257
18.775
12.412
6.183
0.101
-5.819
-11.567
-17.132
-22.504
-27.672
-32.63
-37.37
-41.885
-46.172
-50.225
-54.041
-57.617
-60.953
-64.048
-66.902
-69.517
-71.894
-74.037
-75.95
-77.637
-79.103
-80.356
-81.401
-82.245
-82.897
-83.365
-83.658
-83.785
-83.756
-83.58
-83.269
-82.833
-82.283
-81.629
-80.883
-80.056
-79.158
-78.201
-77.193
-76.146
-75.069
-73.972
-72.863
-71.751
-70.644
-69.55
-68.476
-67.428
-66.414
-65.438
-64.504
-63.618
-62.782
-61.999
-61.271
-60.599
-59.984
-59.425
-58.92
-58.468
-58.067
-57.711
-57.397
-57.12
-56.873
-56.65
-56.445
-56.249
-56.054
-55.853
-55.637
-55.398
-55.127
-54.817
-54.459
-54.046
-53.568
-53.019
-52.392
-51.678
-50.872
-49.966
-48.957
-47.838
-46.607
-45.259
-43.793
-42.208
-40.502
-38.678
-36.736
-34.68
-32.516
-30.248
-27.885
-25.436
-22.911
-20.322
-17.684
-15.01
-12.318
-9.627
-6.955
-4.321
-1.747
0.747
3.139
5.41
7.539
9.509
11.301
12.894
14.271
15.411
16.296
16.908
17.231
17.25
16.952
16.33
15.381
14.104
12.5
10.565
8.292
5.678
2.724
-0.564
-4.176
-8.094
-12.292
-16.73
-21.354
-26.111
-30.952
-35.834
-40.726
-45.593
-50.396
-55.085
-59.602
-63.891
-67.906
-71.61
-74.963
-77.949
-80.59
-82.94
-85.099
-87.16
-89.177
-91.205
-93.303
-95.543
-98.028
-100.874
-104.157
-108.001
-112.577
-117.961
-124.13
-130.859
-137.636
-143.883
-149.076
-152.641
-154.001
-152.863
-149.273
-143.854
-137.868
-132.63
-129.213
-128.494
-131.156
-137.314
-146.209
-155.943
-163.504
-165.527
-158.963
-141.225
-109.951
-63.547
-1.859
73.676
159.895
252.329
346.263
436.912
518.892
586.92
636.582
664.364
668.233
647.851
603.592
536.587
449.441
345.787
229.902
106.829
-18.323
-141.088
-257.131
-362.33
-453.389
-527.84
-584.133
-621.992
-642.215
-645.817
-634.134
-609.089
-572.976
-528.458
-478.429
-425.499
-371.64
-318.918
-269.575
-225.476
-188.04
-157.84
-134.52
-117.343
-105.645
-98.366
-93.958
-90.821
-87.37
-82.685
-76.663
-69.477
-61.349
-52.737
-44.327
-36.919
-31.414
-28.218
-27.179
-28.016
-30.342
-33.692
-37.592
-41.451
-44.598
-46.638
-47.443
-46.982
-45.353
-42.639
-38.884
-34.219
-28.818
-22.834
-16.399
-9.603
-2.495
4.829
12.231
19.57
26.697
33.517
39.991
46.084
51.782
57.087
62.013
66.602
70.914
75.002
78.91
82.678
86.333
89.917
93.478
97.069
100.742
104.534
108.46
112.532
116.757
121.131
125.646
130.281
135.008
139.802
144.643
149.51
154.385
159.245
164.064
168.816
173.475
178.013
182.406
186.628
190.655
194.463
198.03
201.333
204.356
207.078
209.48
211.542
213.245
214.573
215.511
216.045
216.164
215.859
215.123
213.952
212.346
210.306
207.835
204.939
201.627
197.91
193.8
189.313
184.466
179.279
173.772
167.966
161.886
155.555
149.001
142.248
135.325
128.259
121.079
113.813
106.49
99.138
91.785
84.458
77.183
69.987
62.894
55.927
49.109
42.459
35.997
29.74
23.702
17.899
12.341
7.037
1.996
-2.777
-7.279
-11.506
-15.459
-19.138
-22.546
-25.688
-28.568
-31.194
-33.571
-35.71
-37.621
-39.312
-40.796
-42.085
-43.192
-44.128
-44.909
-45.546
-46.053
-46.445
-46.733
-46.932
-47.054
-47.112
-47.118
-47.083
-47.018
-46.933
-46.838
-46.741
-46.65
-46.571
-46.51
-46.472
-46.46
-46.48
-46.533
-46.621
-46.746
-46.91
-47.112
-47.353
-47.631
-47.946
-48.296
-48.678
-49.09
-49.53
-49.995
-50.48
-50.984
-51.501
-52.03
-52.564
-53.101
-53.636
-54.164
-54.682
-55.184
-55.667
-56.126
-56.559
-56.961
-57.329
-57.66
-57.951
-58.2
-58.402
-58.556
-58.659
-58.706
-58.697
-58.627
-58.495
-58.298
-58.035
-57.703
-57.302
-56.828
-56.282
-55.662
-54.968
-54.197
-53.351
-52.43
-51.433
-50.364
-49.224
-48.015
-46.741
-45.405
-44.012
-42.565
-41.07
-39.53
-37.953
-36.345
-34.713
-33.064
-31.408
-29.756
-28.12
-26.516
-24.954
-23.45
-22.017
-20.67
-19.425
-18.298
-17.297
-16.436
-15.724
-15.175
-14.802
-14.619
-14.633
-14.85
-15.275
-15.912
-16.768
-17.844
-19.134
-20.631
-22.325
-24.213
-26.305
-28.606
-31.115
-33.824
-36.716
-39.774
-42.984
-46.319
-49.736
-53.188
-56.622
-59.989
-63.252
-66.382
-69.349
-72.114
-74.624
-76.812
-78.612
-79.98
-80.904
-81.387
-81.475
-81.197
-80.538
-79.628
-78.711
-78.02
-77.837
-78.276
-79.184
-80.641
-82.995
-86.25
-90.147
-94.197
-97.455
-99.472
-100.515
-100.444
-98.755
-95.399
-90.634
-85.466
-81.949
-81.389
-83.962
-89.954
-99.564
-112.455
-127.844
-143.479
-155.553
-160.588
-155.926
-139.305
-108.993
-63.741
-3.043
71.682
157.212
249.512
344.138
436.875
523.434
599.136
659.566
701.326
722
720.367
696.309
649.714
581.332
493.383
389.015
272.334
148.356
21.957
-102.31
-219.076
-323.235
-410.763
-478.584
-525.487
-552.139
-559.671
-549.548
-524.702
-488.684
-445.284
-398.509
-351.094
-304.544
-260.54
-220.792
-186.204
-157.34
-133.926
-114.831
-99.554
-87.973
-79.409
-72.904
-67.427
-61.768
-55.485
-48.864
-41.92
-34.665
-27.366
-20.379
-14.388
-10.25
-8.243
-8.175
-9.803
-12.741
-16.621
-21.081
-25.516
-29.269
-31.955
-33.402
-33.602
-32.654
-30.603
-27.481
-23.401
-18.524
-13.012
-7.01
-0.612
6.101
13.025
20.019
26.906
33.55
39.874
45.832
51.415
56.617
61.429
65.869
69.988
73.834
77.459
80.909
84.21
87.4
90.528
93.647
96.818
100.086
103.473
106.995
110.655
114.456
118.395
122.459
126.623
130.864
135.162
139.501
143.868
148.244
152.604
156.924
161.178
165.344
169.399
173.319
177.082
180.666
184.05
187.216
190.147
192.824
195.23
197.346
199.154
200.639
201.786
202.582
203.015
203.075
202.756
202.054
200.965
199.49
197.629
195.386
192.766
189.778
186.429
182.73
178.693
174.334
169.668
164.711
159.484
154.004
148.293
142.372
136.264
129.991
123.576
117.042
110.412
103.709
96.957
90.177
83.391
76.621
69.887
63.209
56.605
50.095
43.693
37.416
31.278
25.293
19.472
13.827
8.367
3.101
-1.964
-6.819
-11.46
-15.883
-20.084
-24.061
-27.812
-31.337
-34.637
-37.713
-40.568
-43.204
-45.624
-47.832
-49.833
-51.632
-53.233
-54.642
-55.866
-56.91
-57.782
-58.488
-59.036
-59.432
-59.685
-59.803
-59.794
-59.665
-59.426
-59.086
-58.653
-58.135
-57.544
-56.886
-56.172
-55.411
-54.611
-53.78
-52.926
-52.057
-51.181
-50.304
-49.434
-48.577
-47.738
-46.924
-46.141
-45.392
-44.683
-44.018
-43.399
-42.831
-42.315
-41.853
-41.446
-41.096
-40.801
-40.562
-40.376
-40.243
-40.158
-40.117
-40.117
-40.152
-40.217
-40.305
-40.41
-40.524
-40.642
-40.757
-40.86
-40.946
-41.006
-41.034
-41.024
-40.967
-40.858
-40.688
-40.453
-40.145
-39.76
-39.292
-38.737
-38.09
-37.348
-36.507
-35.566
-34.522
-33.375
-32.123
-30.768
-29.311
-27.754
-26.102
-24.358
-22.529
-20.62
-18.638
-16.592
-14.49
-12.341
-10.154
-7.938
-5.704
-3.463
-1.225
0.996
3.187
5.332
7.416
9.422
11.335
13.138
14.815
16.35
17.732
18.949
19.991
20.848
21.509
21.962
22.198
22.208
21.988
21.531
20.834
19.896
18.719
17.314
15.686
13.841
11.775
9.475
6.936
4.157
1.146
-2.089
-5.533
-9.166
-12.954
-16.841
-20.774
-24.7
-28.574
-32.366
-36.036
-39.526
-42.768
-45.686
-48.21
-50.302
-51.939
-53.103
-53.803
-54.062
-53.935
-53.538
-53.012
-52.494
-52.122
-52.014
-52.278
-53.093
-54.708
-57.329
-61.046
-65.742
-71.122
-76.915
-82.853
-88.543
-93.437
-96.994
-98.93
-99.605
-99.857
-100.344
-101.87
-105.362
-111.396
-120.613
-132.239
-143.028
-150.751
-154.226
-153.182
-150.016
-141.992
-121.434
-81.391
-14.394
77.914
184.833
296.041
400.246
491.542
570.123
634.092
681.809
711.308
718.805
703.6
666.99
610.123
535.862
447.776
349.039
243.375
134.722
26.029
-79.876
-179.49
-269.764
-348.267
-412.917
-462.536
-496.877
-515.669
-518.97
-508.131
-485.316
-453.116
-414.472
-372.143
-328.345
-285.417
-245.932
-211.648
-183.267
-160.716
-143.237
-129.849
-119.766
-111.967
-104.838
-96.91
-87.463
-76.408
-64.198
-51.491
-38.767
-26.519
-15.583
-6.889
-0.944
2.165
2.694
1.134
-2.089
-6.617
-11.973
-17.569
-22.919
-27.663
-31.562
-34.551
-36.598
-37.658
-37.744
-36.902
-35.187
-32.692
-29.511
-25.723
-21.418
-16.68
-11.583
-6.239
-0.776
4.679
9.993
15.077
19.89
24.395
28.574
32.43
35.978
39.257
42.324
45.225
48.002
50.687
53.309
55.907
58.528
61.216
64.021
66.972
70.087
73.377
76.846
80.49
84.299
88.251
92.317
96.471
100.692
104.959
109.251
113.545
117.814
122.032
126.171
130.203
134.103
137.844
141.4
144.747
147.861
150.722
153.31
155.606
157.592
159.249
160.558
161.504
162.074
162.255
162.038
161.416
160.383
158.939
157.085
154.825
152.165
149.113
145.679
141.878
137.723
133.232
128.423
123.317
117.936
112.303
106.443
100.382
94.146
87.764
81.262
74.67
68.014
61.325
54.629
47.955
41.329
34.778
28.325
21.996
15.813
9.797
3.967
-1.66
-7.067
-12.242
-17.174
-21.852
-26.27
-30.421
-34.303
-37.914
-41.254
-44.324
-47.128
-49.671
-51.96
-54.001
-55.805
-57.381
-58.741
-59.897
-60.862
-61.648
-62.271
-62.744
-63.082
-63.3
-63.413
-63.436
-63.384
-63.269
-63.107
-62.911
-62.692
-62.462
-62.231
-62.01
-61.805
-61.626
-61.478
-61.367
-61.297
-61.271
-61.293
-61.364
-61.483
-61.651
-61.866
-62.127
-62.43
-62.773
-63.152
-63.562
-64
-64.46
-64.937
-65.425
-65.919
-66.412
-66.899
-67.374
-67.83
-68.263
-68.665
-69.033
-69.361
-69.645
-69.881
-70.065
-70.194
-70.265
-70.277
-70.226
-70.113
-69.935
-69.694
-69.39
-69.022
-68.593
-68.102
-67.553
-66.945
-66.282
-65.565
-64.795
-63.975
-63.105
-62.189
-61.229
-60.227
-59.184
-58.104
-56.989
-55.841
-54.661
-53.453
-52.217
-50.956
-49.672
-48.366
-47.041
-45.7
-44.343
-42.973
-41.593
-40.206
-38.812
-37.416
-36.02
-34.626
-33.238
-31.86
-30.497
-29.152
-27.834
-26.55
-25.309
-24.12
-22.994
-21.941
-20.971
-20.097
-19.326
-18.667
-18.127
-17.715
-17.439
-17.309
-17.336
-17.527
-17.889
-18.431
-19.156
-20.071
-21.175
-22.464
-23.932
-25.577
-27.401
-29.415
-31.626
-34.037
-36.644
-39.442
-42.419
-45.561
-48.838
-52.206
-55.621
-59.038
-62.421
-65.746
-68.98
-72.083
-75.002
-77.671
-80.035
-82.053
-83.692
-84.928
-85.758
-86.2
-86.303
-86.151
-85.832
-85.442
-85.078
-84.841
-84.857
-85.243
-86.157
-87.807
-90.337
-93.8
-98.112
-102.984
-108.048
-112.953
-117.224
-120.294
-121.764
-121.44
-119.593
-117.119
-114.981
-114.079
-115.303
-119.31
-126.431
-136.543
-148.415
-159.608
-167.37
-168.711
-160.731
-141.144
-107.833
-59.37
3.928
80.134
166.258
258.131
351.257
441.247
522.901
591.104
641.877
672.052
679.69
664.429
626.353
566.204
486.366
390.193
281.751
166.057
48.012
-68.047
-177.4
-275.591
-359.101
-425.283
-473.179
-503.521
-517.746
-517.56
-505.416
-484.213
-457.06
-427.131
-396.455
-365.96
-336.176
-307.645
-280.892
-256.197
-233.467
-212.109
-191.874
-173.028
-155.914
-140.621
-126.787
-113.865
-101.389
-89.376
-78.019
-67.311
-57.166
-47.566
-38.718
-31.071
-25.184
-21.253
-19.12
-18.59
-19.44
-21.461
-24.456
-28.055
-31.702
-34.983
-37.651
-39.517
-40.538
-40.675
-39.848
-38.071
-35.433
-32.017
-27.931
-23.271
-18.073
-12.391
-6.294
0.147
6.816
13.599
20.397
27.097
33.62
39.915
45.937
51.674
57.14
62.351
67.341
72.152
76.81
81.341
85.767
90.104
94.381
98.633
102.89
107.193
111.567
116.024
120.572
125.208
129.919
134.689
139.494
144.302
149.085
153.819
158.479
163.046
167.497
171.808
175.951
179.9
183.629
187.117
190.339
193.275
195.905
198.211
200.178
201.796
203.053
203.937
204.438
204.546
204.253
203.555
202.449
200.931
199.003
196.668
193.931
190.803
187.294
183.417
179.186
174.618
169.733
164.551
159.094
153.385
147.448
141.308
134.991
128.524
121.935
115.25
108.498
101.706
94.901
88.111
81.362
74.68
68.089
61.614
55.277
49.1
43.103
37.304
31.722
26.371
21.265
16.417
11.835
7.528
3.502
-0.239
-3.694
-6.861
-9.742
-12.339
-14.658
-16.704
-18.484
-20.007
-21.283
-22.321
-23.134
-23.735
-24.136
-24.352
-24.396
-24.283
-24.029
-23.649
-23.157
-22.57
-21.903
-21.171
-20.389
-19.572
-18.733
-17.886
-17.044
-16.218
-15.421
-14.661
-13.95
-13.295
-12.705
-12.186
-11.745
-11.387
-11.116
-10.936
-10.849
-10.859
-10.965
-11.168
-11.469
-11.866
-12.36
-12.946
-13.625
-14.392
-15.245
-16.179
-17.191
-18.276
-19.428
-20.642
-21.913
-23.234
-24.599
-26.002
-27.436
-28.896
-30.375
-31.867
-33.364
-34.861
-36.35
-37.824
-39.277
-40.703
-42.093
-43.443
-44.745
-45.993
-47.181
-48.302
-49.35
-50.318
-51.2
-51.989
-52.679
-53.263
-53.735
-54.09
-54.321
-54.423
-54.393
-54.226
-53.918
-53.465
-52.865
-52.114
-51.21
-50.152
-48.939
-47.569
-46.043
-44.363
-42.53
-40.547
-38.417
-36.145
-33.735
-31.194
-28.528
-25.744
-22.85
-19.857
-16.773
-13.612
-10.385
-7.106
-3.791
-0.458
2.876
6.191
9.468
12.687
15.827
18.868
21.791
24.579
27.214
29.68
31.961
34.038
35.894
37.513
38.88
39.981
40.803
41.336
41.572
41.512
41.156
40.504
39.552
38.288
36.703
34.793
32.56
30.008
27.154
24.016
20.629
17.047
13.323
9.51
5.659
1.804
-2.019
-5.762
-9.374
-12.787
-15.933
-18.766
-21.246
-23.341
-25.051
-26.399
-27.446
-28.304
-29.077
-29.869
-30.792
-31.941
-33.435
-35.405
-37.969
-41.286
-45.56
-50.9
-57.316
-64.673
-72.596
-80.62
-88.262
-94.882
-99.794
-102.534
-102.944
-101.375
-98.742
-96.156
-94.664
-95.259
-98.787
-105.552
-115.127
-126.119
-136.002
-141.388
-138.702
-124.672
-97.164
-55.904
-1.422
66.124
148.54
247.883
362.579
484.723
598.28
686.072
737.3
750.956
736.584
705.155
662.838
609.643
540.485
452.851
348.612
232.904
113.272
-4.896
-117.992
-222.215
-314.466
-391.858
-452.006
-494.481
-520.091
-529.581
-524.167
-506.016
-477.939
-443.397
-405.742
-367.151
-329.115
-293.286
-261.397
-234.641
-213.266
-196.514
-183.288
-172.987
-165.199
-159.254
-153.957
-147.983
-140.757
-132.452
-123.556
-114.458
-105.359
-96.474
-88.424
-82.07
-77.799
-75.55
-74.976
-75.566
-76.974
-78.929
-80.981
-82.569
-83.275
-82.852
-81.247
-78.546
-74.8
-70.029
-64.292
-57.691
-50.373
-42.486
-34.155
-25.495
-16.614
-7.64
1.271
9.985
18.393
26.416
34.018
41.183
47.89
54.138
59.937
65.309
70.293
74.93
79.25
83.295
87.105
90.73
94.23
97.657
101.04
104.407
107.769
111.134
114.51
117.899
121.29
124.678
128.054
131.411
134.75
138.065
141.346
144.581
147.758
150.862
153.885
156.817
159.646
162.363
164.958
167.423
169.749
171.93
173.954
175.809
177.484
178.965
180.243
181.306
182.142
182.741
183.094
183.195
183.038
182.617
181.93
180.972
179.742
178.241
176.47
174.43
172.124
169.556
166.734
163.663
160.352
156.811
153.049
149.077
144.907
140.552
136.025
131.339
126.509
121.548
116.473
111.298
106.039
100.713
95.335
89.92
84.486
79.049
73.622
68.222
62.863
57.558
52.321
47.164
42.1
37.14
32.296
27.577
22.994
18.557
14.273
10.15
6.196
2.416
-1.184
-4.598
-7.823
-10.855
-13.692
-16.329
-18.767
-21.003
-23.038
-24.871
-26.504
-27.938
-29.177
-30.223
-31.081
-31.755
-32.251
-32.573
-32.729
-32.726
-32.57
-32.27
-31.834
-31.272
-30.592
-29.804
-28.92
-27.949
-26.903
-25.793
-24.63
-23.426
-22.192
-20.94
-19.681
-18.427
-17.19
-15.981
-14.811
-13.691
-12.631
-11.641
-10.732
-9.91
-9.184
-8.562
-8.049
-7.652
-7.375
-7.223
-7.197
-7.301
-7.535
-7.899
-8.392
-9.012
-9.755
-10.618
-11.595
-12.679
-13.863
-15.14
-16.499
-17.93
-19.423
-20.966
-22.546
-24.151
-25.767
-27.381
-28.977
-30.544
-32.065
-33.527
-34.916
-36.218
-37.42
-38.509
-39.472
-40.296
-40.971
-41.486
-41.831
-42
-41.983
-41.776
-41.373
-40.77
-39.967
-38.961
-37.753
-36.346
-34.742
-32.947
-30.969
-28.815
-26.495
-24.021
-21.408
-18.669
-15.82
-12.879
-9.863
-6.789
-3.68
-0.554
2.566
5.659
8.701
11.668
14.532
17.267
19.846
22.244
24.436
26.398
28.104
29.532
30.66
31.472
31.949
32.076
31.832
31.205
30.183
28.76
26.938
24.716
22.095
19.083
15.691
11.931
7.822
3.38
-1.387
-6.468
-11.846
-17.499
-23.396
-29.506
-35.794
-42.221
-48.737
-55.291
-61.828
-68.292
-74.63
-80.793
-86.732
-92.404
-97.774
-102.788
-107.393
-111.534
-115.163
-118.272
-120.902
-123.072
-124.77
-126.077
-127.122
-128.157
-129.582
-131.62
-134.271
-137.579
-141.616
-146.286
-151.417
-156.406
-160.083
-161.673
-160.898
-157.606
-151.914
-144.175
-134.769
-124.843
-116.637
-112.114
-112.622
-118.974
-130.129
-143.731
-157.908
-170.778
-182.415
-194.789
-206.814
-213.677
-205.999
-171.584
-103.715
-4.43
117.221
245.775
365.805
468.404
547.6
602.873
639.115
658.32
662.243
650.916
619.786
566.604
491.617
397.125
288.657
171.859
51.655
-67.72
-182.502
-288.407
-381.337
-457.994
-516.081
-555.099
-575.957
-579.694
-567.789
-542.764
-507.591
-465.568
-420.074
-373.45
-327.012
-282.181
-240.516
-202.899
-169.86
-141.43
-116.84
-95.69
-78.187
-64.232
-53.148
-44.322
-37.054
-30.845
-26.038
-22.739
-20.361
-18.305
-16.412
-14.67
-13.226
-12.09
-10.543
-8.047
-4.814
-1.354
2.05
5.341
8.643
11.996
14.93
17.068
18.594
20.018
21.788
24.132
27.045
30.468
34.56
39.447
45.002
50.906
56.797
62.411
67.651
72.515
76.97
80.982
84.558
87.749
90.645
93.332
95.859
98.245
100.507
102.674
104.795
106.932
109.149
111.509
114.06
116.833
119.853
123.135
126.688
130.515
134.606
138.94
143.5
148.272
153.243
158.399
163.716
169.161
174.702
180.303
185.93
191.548
197.12
202.609
207.976
213.184
218.199
222.985
227.507
231.726
235.607
239.112
242.206
244.859
247.038
248.714
249.861
250.455
250.477
249.911
248.742
246.96
244.559
241.535
237.889
233.625
228.751
223.278
217.219
210.595
203.426
195.737
187.555
178.91
169.836
160.367
150.541
140.397
129.975
119.316
108.464
97.461
86.351
75.177
63.983
52.811
41.704
30.701
19.844
9.17
-1.286
-11.487
-21.402
-30.999
-40.252
-49.133
-57.62
-65.693
-73.332
-80.522
-87.25
-93.506
-99.283
-104.577
-109.384
-113.707
-117.547
-120.91
-123.805
-126.242
-128.233
-129.793
-130.937
-131.684
-132.051
-132.061
-131.733
-131.089
-130.153
-128.948
-127.498
-125.826
-123.956
-121.914
-119.722
-117.404
-114.985
-112.486
-109.931
-107.34
-104.736
-102.137
-99.563
-97.033
-94.562
-92.166
-89.861
-87.659
-85.571
-83.608
-81.778
-80.089
-78.546
-77.153
-75.914
-74.829
-73.901
-73.127
-72.507
-72.038
-71.716
-71.538
-71.498
-71.59
-71.807
-72.142
-72.588
-73.135
-73.775
-74.499
-75.296
-76.157
-77.071
-78.028
-79.016
-80.025
-81.045
-82.063
-83.07
-84.055
-85.008
-85.919
-86.78
-87.583
-88.318
-88.981
-89.562
-90.057
-90.459
-90.764
-90.966
-91.061
-91.045
-90.914
-90.666
-90.299
-89.811
-89.2
-88.467
-87.61
-86.631
-85.531
-84.311
-82.974
-81.522
-79.959
-78.289
-76.518
-74.651
-72.695
-70.657
-68.544
-66.363
-64.124
-61.835
-59.504
-57.141
-54.756
-52.359
-49.961
-47.572
-45.205
-42.872
-40.589
-38.368
-36.227
-34.18
-32.243
-30.432
-28.762
-27.248
-25.9
-24.732
-23.753
-22.973
-22.405
-22.06
-21.946
-22.072
-22.445
-23.069
-23.947
-25.078
-26.455
-28.07
-29.916
-31.99
-34.295
-36.837
-39.611
-42.613
-45.834
-49.254
-52.851
-56.592
-60.427
-64.307
-68.187
-72.022
-75.785
-79.445
-82.958
-86.281
-89.353
-92.112
-94.519
-96.532
-98.117
-99.282
-100.058
-100.502
-100.718
-100.785
-100.772
-100.775
-100.884
-101.2
-101.841
-102.887
-104.462
-106.769
-109.93
-113.968
-118.722
-123.763
-128.629
-132.884
-135.973
-137.324
-136.582
-133.661
-129.114
-124.076
-119.563
-116.726
-116.813
-120.446
-127.975
-138.317
-147.748
-153.322
-153.179
-146.486
-136.459
-122.481
-98.357
-57.179
12.507
114.94
240.847
375.46
495.713
582.057
629.074
639.803
626.077
599.872
565.108
520.068
459.249
379.772
283.71
176.243
64.612
-46.042
-152.51
-251.406
-339.882
-415.343
-475.458
-519.396
-547.72
-561.172
-560.775
-548.25
-525.742
-495.743
-460.991
-423.748
-385.368
-346.903
-309.516
-274.246
-241.952
-213.223
-187.995
-165.924
-147.028
-131.445
-118.97
-109.116
-101.121
-94.042
-87.474
-81.437
-75.822
-70.492
-65.466
-60.902
-57.193
-54.928
-54.291
-55.085
-57.076
-59.938
-63.307
-66.811
-69.981
-72.277
-73.381
-73.194
-71.687
-68.934
-65.013
-59.975
-53.954
-47.132
-39.669
-31.703
-23.36
-14.743
-5.997
2.688
11.166
19.338
27.135
34.537
41.526
48.083
54.22
59.978
65.399
70.531
75.412
80.07
84.543
88.881
93.139
97.379
101.648
105.972
110.369
114.846
119.407
124.051
128.766
133.529
138.319
143.122
147.924
152.716
157.486
162.211
166.874
171.455
175.934
180.296
184.522
188.595
192.499
196.218
199.74
203.052
206.141
208.993
211.591
213.921
215.969
217.724
219.172
220.304
221.109
221.582
221.717
221.512
220.964
220.073
218.841
217.269
215.362
213.126
210.565
207.689
204.504
201.023
197.257
193.216
188.914
184.366
179.586
174.591
169.396
164.02
158.48
152.794
146.981
141.06
135.048
128.965
122.829
116.657
110.466
104.273
98.094
91.943
85.835
79.782
73.797
67.892
62.076
56.36
50.752
45.262
39.897
34.665
29.573
24.627
19.833
15.197
10.724
6.417
2.282
-1.681
-5.467
-9.076
-12.505
-15.754
-18.823
-21.712
-24.42
-26.949
-29.3
-31.473
-33.47
-35.293
-36.942
-38.421
-39.73
-40.872
-41.848
-42.661
-43.314
-43.808
-44.147
-44.334
-44.373
-44.269
-44.026
-43.65
-43.147
-42.524
-41.788
-40.945
-40.003
-38.97
-37.854
-36.664
-35.407
-34.092
-32.728
-31.323
-29.887
-28.428
-26.956
-25.48
-24.008
-22.549
-21.112
-19.705
-18.337
-17.015
-15.748
-14.542
-13.406
-12.345
-11.365
-10.471
-9.667
-8.956
-8.34
-7.819
-7.394
-7.064
-6.826
-6.678
-6.615
-6.633
-6.726
-6.887
-7.11
-7.387
-7.708
-8.064
-8.446
-8.842
-9.242
-9.634
-10.006
-10.347
-10.644
-10.886
-11.062
-11.158
-11.165
-11.07
-10.864
-10.538
-10.081
-9.486
-8.745
-7.854
-6.808
-5.605
-4.242
-2.72
-1.039
0.797
2.784
4.915
7.185
9.584
12.102
14.728
17.449
20.25
23.115
26.026
28.963
31.903
34.825
37.703
40.515
43.236
45.84
48.305
50.61
52.736
54.662
56.37
57.838
59.046
59.978
60.617
60.951
60.968
60.658
60.014
59.043
57.746
56.129
54.187
51.911
49.293
46.337
43.05
39.445
35.541
31.361
26.942
22.342
17.619
12.83
8.026
3.24
-1.488
-6.103
-10.535
-14.703
-18.536
-21.988
-25.025
-27.615
-29.747
-31.437
-32.733
-33.725
-34.513
-35.188
-35.836
-36.557
-37.46
-38.669
-40.358
-42.741
-45.961
-50.061
-54.931
-60.264
-65.68
-70.788
-75.077
-77.967
-79.056
-78.203
-75.767
-72.69
-70.073
-68.917
-70.09
-74.198
-81.345
-91.178
-102.434
-112.488
-118.03
-115.842
-102.902
-77.625
-40.276
10.111
74.3
152.477
246.116
350.399
455.386
551.403
626.428
675.572
702.88
711.633
706.577
689.416
655.728
603.239
531.644
442.774
341.497
233.427
124.475
17.774
-84.759
-182.04
-275.747
-362.115
-433.329
-483.021
-503.41
-494.744
-466.237
-426.623
-385.605
-347.663
-310.572
-273.412
-235.819
-199.476
-168.181
-143.135
-123.826
-109.21
-97.583
-87.994
-79.823
-71.659
-62.193
-50.967
-38.098
-24.22
-10.13
3.703
16.845
28.517
37.863
44.431
48.203
49.504
48.852
46.673
43.3
39.17
34.837
30.767
27.301
24.669
22.938
22.138
22.326
23.506
25.636
28.667
32.505
37.046
42.203
47.875
53.966
60.395
67.044
73.776
80.456
86.943
93.135
98.98
104.428
109.449
114.028
118.164
121.882
125.224
128.225
130.913
133.31
135.431
137.305
138.968
140.458
141.816
143.068
144.227
145.301
146.293
147.202
148.019
148.728
149.303
149.728
149.99
150.077
149.981
149.692
149.198
148.488
147.55
146.375
144.956
143.286
141.359
139.172
136.723
134.012
131.045
127.823
124.351
120.632
116.669
112.468
108.036
103.381
98.51
93.434
88.165
82.714
77.096
71.327
65.42
59.393
53.262
47.043
40.752
34.406
28.023
21.618
15.209
8.812
2.442
-3.884
-10.152
-16.345
-22.45
-28.454
-34.342
-40.103
-45.726
-51.199
-56.514
-61.662
-66.635
-71.427
-76.031
-80.444
-84.66
-88.678
-92.497
-96.115
-99.532
-102.751
-105.772
-108.599
-111.233
-113.678
-115.937
-118.014
-119.913
-121.638
-123.194
-124.583
-125.813
-126.886
-127.808
-128.585
-129.22
-129.718
-130.085
-130.326
-130.444
-130.446
-130.336
-130.119
-129.799
-129.383
-128.873
-128.276
-127.595
-126.834
-125.999
-125.092
-124.118
-123.081
-121.985
-120.834
-119.632
-118.383
-117.092
-115.764
-114.403
-113.013
-111.599
-110.166
-108.719
-107.262
-105.799
-104.337
-102.88
-101.432
-99.998
-98.585
-97.194
-95.832
-94.501
-93.206
-91.949
-90.735
-89.565
-88.443
-87.37
-86.349
-85.381
-84.468
-83.611
-82.809
-82.062
-81.37
-80.731
-80.143
-79.604
-79.113
-78.664
-78.256
-77.885
-77.547
-77.238
-76.951
-76.683
-76.428
-76.179
-75.93
-75.675
-75.406
-75.116
-74.8
-74.45
-74.06
-73.624
-73.135
-72.586
-71.973
-71.29
-70.532
-69.694
-68.772
-67.763
-66.666
-65.479
-64.201
-62.834
-61.379
-59.838
-58.214
-56.51
-54.732
-52.885
-50.975
-49.009
-46.995
-44.943
-42.863
-40.767
-38.67
-36.586
-34.533
-32.526
-30.583
-28.721
-26.959
-25.311
-23.792
-22.416
-21.198
-20.151
-19.292
-18.637
-18.197
-17.983
-18.004
-18.268
-18.781
-19.544
-20.551
-21.798
-23.282
-25.005
-26.982
-29.218
-31.714
-34.467
-37.465
-40.692
-44.13
-47.746
-51.491
-55.318
-59.175
-63.023
-66.833
-70.567
-74.176
-77.598
-80.753
-83.57
-86.003
-88.012
-89.576
-90.696
-91.387
-91.699
-91.709
-91.511
-91.207
-90.905
-90.716
-90.765
-91.176
-92.12
-93.844
-96.496
-100.081
-104.437
-109.159
-113.81
-118.046
-121.407
-123.318
-123.455
-121.825
-118.987
-116.156
-114.53
-114.967
-118.166
-124.613
-134.281
-146.442
-159.173
-169.394
-173.732
-169.085
-152.915
-123.172
-78.414
-18.389
55.453
140.03
230.947
323.273
412.438
493.702
562.229
614.027
646.134
656.791
646.081
615.085
564.85
497.314
415.406
322.293
221.642
117.41
12.646
-89.871
-186.67
-274.508
-350.783
-413.293
-460.729
-492.929
-509.73
-511.211
-498.926
-475.296
-443.009
-405.121
-364.551
-323.424
-284.012
-248.801
-218.939
-194.549
-175.299
-160.171
-147.956
-137.878
-128.789
-119.029
-107.792
-94.966
-80.739
-65.84
-51.039
-36.759
-23.651
-12.677
-4.335
1.229
4.089
4.725
3.637
1.168
-2.225
-5.98
-9.663
-12.881
-15.313
-16.853
-17.432
-16.989
-15.54
-13.109
-9.723
-5.459
-0.41
5.336
11.667
18.483
25.698
33.204
40.872
48.551
56.08
63.346
70.282
76.843
83.004
88.743
94.053
98.96
103.513
107.755
111.73
115.465
118.984
122.325
125.534
128.663
131.769
134.887
138.041
141.248
144.518
147.857
151.268
154.736
158.241
161.766
165.298
168.83
172.353
175.855
179.32
182.733
186.077
189.339
192.505
195.56
198.488
201.279
203.919
206.398
208.708
210.839
212.777
214.513
216.032
217.323
218.376
219.179
219.722
219.995
219.993
219.708
219.137
218.277
217.126
215.682
213.945
211.918
209.602
207.001
204.118
200.961
197.535
193.848
189.908
185.726
181.31
176.672
171.824
166.778
161.545
156.14
150.576
144.866
139.027
133.071
127.016
120.875
114.666
108.404
102.105
95.784
89.458
83.139
76.844
70.587
64.381
58.24
52.177
46.206
40.338
34.588
28.965
23.483
18.15
12.978
7.976
3.153
-1.482
-5.921
-10.157
-14.183
-17.992
-21.579
-24.939
-28.068
-30.963
-33.622
-36.045
-38.23
-40.18
-41.895
-43.379
-44.634
-45.666
-46.479
-47.078
-47.472
-47.666
-47.67
-47.492
-47.143
-46.634
-45.976
-45.18
-44.26
-43.228
-42.098
-40.882
-39.595
-38.252
-36.867
-35.455
-34.03
-32.608
-31.203
-29.828
-28.499
-27.227
-26.025
-24.903
-23.873
-22.944
-22.124
-21.421
-20.841
-20.39
-20.072
-19.89
-19.846
-19.941
-20.174
-20.543
-21.044
-21.673
-22.422
-23.286
-24.256
-25.323
-26.475
-27.7
-28.988
-30.323
-31.691
-33.076
-34.463
-35.834
-37.172
-38.461
-39.682
-40.82
-41.857
-42.777
-43.565
-44.208
-44.69
-45
-45.125
-45.055
-44.78
-44.292
-43.583
-42.65
-41.487
-40.093
-38.469
-36.615
-34.536
-32.235
-29.72
-26.999
-24.085
-20.988
-17.724
-14.309
-10.761
-7.101
-3.351
0.465
4.324
8.196
12.054
15.868
19.608
23.244
26.745
30.08
33.221
36.137
38.804
41.197
43.29
45.061
46.485
47.54
48.205
48.463
48.299
47.701
46.658
45.163
43.221
40.836
38.015
34.759
31.064
26.932
22.375
17.41
12.057
6.347
0.315
-5.993
-12.51
-19.176
-25.93
-32.72
-39.508
-46.252
-52.895
-59.374
-65.609
-71.526
-77.079
-82.22
-86.904
-91.122
-94.884
-98.229
-101.248
-103.999
-106.529
-108.899
-111.149
-113.332
-115.544
-117.86
-120.408
-123.397
-126.913
-130.925
-135.344
-139.867
-144.095
-147.656
-150.014
-150.545
-148.954
-145.306
-139.958
-133.635
-127.416
-122.426
-119.524
-119.635
-122.279
-125.103
-127.028
-127.195
-125.494
-124.465
-121.947
-111.868
-87.757
-40.011
34.945
132.854
246.31
360.966
462.019
540.146
590.076
614.521
622.144
619.158
608.296
587.855
551.627
495.999
421.471
331.042
230.086
123.515
14.775
-92.925
-195.739
-289.612
-370.814
-436.449
-485.222
-517.161
-532.74
-532.795
-519.384
-495.401
-464.156
-429.043
-392.413
-355.809
-320.829
-289.202
-262.048
-239.583
-221.174
-205.715
-192.627
-181.639
-172.187
-163.217
-153.527
-142.541
-130.449
-117.832
-105.128
-92.583
-80.462
-69.344
-60.128
-53.343
-49.03
-46.958
-46.712
-47.933
-50.373
-53.652
-57.195
-60.526
-63.297
-65.251
-66.332
-66.513
-65.73
-63.988
-61.326
-57.79
-53.467
-48.454
-42.824
-36.67
-30.078
-23.12
-15.912
-8.585
-1.272
5.884
12.79
19.397
25.664
31.566
37.094
42.254
47.074
51.607
55.893
59.969
63.864
67.602
71.224
74.775
78.304
81.862
85.485
89.19
92.993
96.903
100.919
105.037
109.24
113.501
117.802
122.124
126.452
130.771
135.061
139.301
143.467
147.538
151.489
155.299
158.945
162.407
165.662
168.692
171.479
174.007
176.259
178.218
179.865
181.185
182.162
182.781
183.029
182.895
182.369
181.445
180.119
178.389
176.256
173.723
170.796
167.481
163.789
159.73
155.32
150.572
145.505
140.138
134.491
128.585
122.444
116.093
109.555
102.857
96.026
89.087
82.068
74.997
67.9
60.805
53.739
46.728
39.798
32.976
26.285
19.75
13.391
7.231
1.288
-4.421
-9.881
-15.077
-19.997
-24.633
-28.974
-33.016
-36.753
-40.183
-43.305
-46.119
-48.629
-50.836
-52.748
-54.371
-55.711
-56.779
-57.583
-58.134
-58.444
-58.526
-58.391
-58.055
-57.533
-56.838
-55.987
-54.996
-53.882
-52.66
-51.348
-49.961
-48.516
-47.029
-45.515
-43.989
-42.465
-40.957
-39.478
-38.04
-36.653
-35.329
-34.076
-32.902
-31.815
-30.82
-29.922
-29.127
-28.438
-27.858
-27.39
-27.034
-26.792
-26.664
-26.647
-26.742
-26.943
-27.249
-27.655
-28.154
-28.743
-29.413
-30.157
-30.969
-31.837
-32.754
-33.709
-34.693
-35.695
-36.704
-37.709
-38.7
-39.666
-40.599
-41.488
-42.323
-43.097
-43.8
-44.425
-44.964
-45.409
-45.753
-45.99
-46.114
-46.12
-46.004
-45.762
-45.391
-44.889
-44.256
-43.492
-42.596
-41.571
-40.419
-39.145
-37.752
-36.248
-34.64
-32.936
-31.146
-29.28
-27.35
-25.368
-23.346
-21.297
-19.235
-17.173
-15.125
-13.105
-11.128
-9.209
-7.364
-5.611
-3.966
-2.447
-1.072
0.144
1.183
2.031
2.674
3.103
3.307
3.279
3.009
2.488
1.709
0.667
-0.642
-2.218
-4.062
-6.171
-8.538
-11.148
-13.988
-17.044
-20.308
-23.783
-27.466
-31.346
-35.409
-39.638
-44.007
-48.494
-53.057
-57.639
-62.186
-66.641
-70.96
-75.114
-79.067
-82.773
-86.177
-89.208
-91.808
-93.946
-95.591
-96.734
-97.384
-97.57
-97.355
-96.838
-96.132
-95.356
-94.624
-94.028
-93.667
-93.637
-94.098
-95.284
-97.348
-100.312
-104.071
-108.361
-112.919
-117.493
-121.652
-124.789
-126.413
-126.314
-124.77
-122.437
-120
-118.229
-117.881
-119.703
-123.515
-127.743
-130.395
-129.978
-127.921
-127.065
-127.53
-125.057
-109.094
-68.656
-0.214
91.496
193.795
293.091
381.869
457.89
522.297
575.325
614.729
636.985
638.44
617.902
575.463
511.873
429.635
331.777
221.775
104.315
-15.808
-134.419
-246.967
-348.924
-436.71
-507.386
-559.156
-592.061
-607.184
-605.904
-590.258
-562.908
-526.687
-484.597
-439.313
-392.597
-345.622
-299.41
-254.935
-212.943
-173.937
-138.41
-106.819
-79.485
-56.708
-38.714
-25.228
-15.86
-10.174
-6.986
-5.007
-3.521
-1.94
0.221
2.95
6.369
10.595
14.741
17.844
19.556
19.643
18.144
15.452
11.647
6.77
1.597
-3.107
-6.944
-9.568
-10.962
-11.295
-10.49
-8.469
-5.464
-1.688
2.703
7.518
12.727
18.318
24.157
30.115
36.092
41.965
47.669
53.182
58.461
63.503
68.324
72.936
77.381
81.708
85.951
90.142
94.308
98.467
102.646
106.879
111.204
115.662
120.279
125.063
130.014
135.12
140.363
145.725
151.174
156.669
162.178
167.666
173.106
178.474
183.742
188.878
193.852
198.63
203.182
207.483
211.506
215.224
218.615
221.657
224.334
226.631
228.535
230.03
231.104
231.747
231.948
231.702
231.005
229.854
228.248
226.191
223.689
220.749
217.384
213.604
209.425
204.864
199.939
194.672
189.083
183.198
177.038
170.632
164.003
157.181
150.193
143.065
135.828
128.508
121.134
113.734
106.335
98.963
91.644
84.402
77.26
70.24
63.363
56.648
50.112
43.773
37.643
31.738
26.067
20.64
15.465
10.55
5.897
1.511
-2.607
-6.457
-10.041
-13.36
-16.42
-19.224
-21.778
-24.09
-26.168
-28.019
-29.654
-31.081
-32.311
-33.354
-34.222
-34.926
-35.475
-35.882
-36.155
-36.307
-36.345
-36.281
-36.122
-35.879
-35.559
-35.171
-34.723
-34.222
-33.675
-33.089
-32.469
-31.822
-31.152
-30.464
-29.762
-29.049
-28.329
-27.605
-26.88
-26.156
-25.435
-24.719
-24.01
-23.309
-22.618
-21.936
-21.266
-20.609
-19.966
-19.338
-18.727
-18.135
-17.564
-17.015
-16.492
-15.994
-15.525
-15.085
-14.675
-14.298
-13.954
-13.643
-13.366
-13.125
-12.918
-12.747
-12.611
-12.509
-12.441
-12.404
-12.398
-12.419
-12.466
-12.536
-12.624
-12.73
-12.848
-12.975
-13.107
-13.238
-13.365
-13.48
-13.579
-13.656
-13.703
-13.714
-13.684
-13.606
-13.476
-13.287
-13.036
-12.717
-12.329
-11.869
-11.333
-10.721
-10.03
-9.263
-8.419
-7.501
-6.513
-5.458
-4.344
-3.179
-1.975
-0.742
0.507
1.762
3.008
4.232
5.418
6.554
7.626
8.622
9.527
10.324
10.996
11.527
11.907
12.124
12.17
12.035
11.709
11.194
10.485
9.583
8.486
7.181
5.655
3.904
1.927
-0.273
-2.684
-5.294
-8.085
-11.022
-14.072
-17.197
-20.358
-23.528
-26.668
-29.738
-32.7
-35.502
-38.1
-40.454
-42.506
-44.22
-45.598
-46.655
-47.46
-48.068
-48.47
-48.774
-49.197
-49.935
-51.236
-53.203
-55.753
-59.023
-63.288
-68.465
-74.184
-79.887
-84.748
-88.378
-90.839
-91.793
-90.844
-88.149
-84.289
-80.542
-78.792
-80.346
-86.034
-95.792
-107.942
-120.558
-130.964
-139.486
-150.554
-165.388
-183.514
-196.756
-186.029
-139.408
-50.478
79.106
228.74
379.476
513.706
611.987
671.501
694.798
688.359
667.285
638.165
601.75
555.97
493.884
414.064
319.85
215.614
107.689
0.055
-105.226
-204.891
-295.735
-374.882
-439.596
-488.346
-520.853
-536.844
-536.377
-521.009
-493.331
-456.438
-413.697
-368.075
-321.855
-277.432
-237.414
-203.517
-176.314
-155.533
-140.299
-129.629
-122.717
-118.499
-115.299
-111.532
-106.39
-99.704
-91.761
-83.04
-73.897
-64.747
-56.452
-49.997
-45.853
-44.063
-44.344
-46.18
-49.163
-52.927
-56.883
-60.375
-62.964
-64.397
-64.618
-63.719
-61.737
-58.685
-54.643
-49.728
-44.078
-37.831
-31.093
-23.961
-16.553
-9.012
-1.51
5.798
12.813
19.468
25.73
31.588
37.028
42.051
46.683
50.96
54.925
58.618
62.072
65.328
68.435
71.453
74.452
77.485
80.588
83.784
87.087
90.504
94.041
97.695
101.45
105.293
109.214
113.204
117.258
121.367
125.514
129.682
133.849
137.999
142.112
146.172
150.158
154.051
157.832
161.485
164.993
168.338
171.498
174.452
177.179
179.656
181.864
183.782
185.389
186.669
187.606
188.185
188.395
188.226
187.668
186.714
185.36
183.601
181.436
178.866
175.892
172.518
168.751
164.599
160.073
155.185
149.951
144.385
138.506
132.335
125.893
119.202
112.286
105.171
97.884
90.451
82.9
75.26
67.559
59.825
52.087
44.372
36.708
29.12
21.634
14.275
7.064
0.025
-6.82
-13.453
-19.855
-26.008
-31.896
-37.505
-42.824
-47.84
-52.546
-56.934
-60.999
-64.739
-68.152
-71.238
-74
-76.441
-78.568
-80.388
-81.91
-83.144
-84.102
-84.796
-85.242
-85.453
-85.445
-85.233
-84.835
-84.267
-83.546
-82.69
-81.716
-80.641
-79.483
-78.259
-76.987
-75.682
-74.362
-73.041
-71.734
-70.454
-69.215
-68.028
-66.903
-65.85
-64.877
-63.991
-63.198
-62.501
-61.903
-61.407
-61.012
-60.718
-60.522
-60.423
-60.416
-60.495
-60.657
-60.895
-61.201
-61.568
-61.988
-62.451
-62.949
-63.471
-64.007
-64.546
-65.077
-65.589
-66.073
-66.516
-66.909
-67.241
-67.502
-67.683
-67.776
-67.772
-67.663
-67.442
-67.105
-66.645
-66.059
-65.345
-64.5
-63.523
-62.413
-61.172
-59.8
-58.3
-56.673
-54.923
-53.055
-51.074
-48.987
-46.799
-44.52
-42.158
-39.722
-37.224
-34.674
-32.084
-29.466
-26.832
-24.197
-21.574
-18.977
-16.42
-13.919
-11.491
-9.152
-6.92
-4.81
-2.84
-1.024
0.621
2.082
3.348
4.41
5.258
5.884
6.278
6.429
6.33
5.975
5.358
4.478
3.331
1.921
0.258
-1.648
-3.785
-6.148
-8.738
-11.559
-14.604
-17.867
-21.335
-24.99
-28.808
-32.756
-36.783
-40.839
-44.875
-48.849
-52.731
-56.494
-60.098
-63.493
-66.617
-69.407
-71.822
-73.825
-75.383
-76.5
-77.203
-77.546
-77.622
-77.515
-77.307
-77.086
-76.93
-76.916
-77.155
-77.764
-78.921
-80.874
-83.729
-87.487
-92.06
-97.113
-102.213
-106.931
-110.655
-112.7
-112.822
-111.034
-107.563
-103.496
-100.233
-98.92
-100.867
-105.832
-111.506
-116.25
-119.286
-122.594
-130.579
-143.021
-153.756
-150.374
-117.341
-47.66
54.94
178.321
303.475
415.074
505.418
570.002
610.956
633.736
640.173
632.732
611.102
570.447
509.165
427.824
329.088
219.017
103.315
-13.617
-127.713
-234.547
-329.773
-409.701
-471.651
-514.787
-539.862
-547.908
-540.284
-519.678
-489.235
-452.274
-412.223
-371.281
-330.687
-291.953
-256.607
-225.476
-199.075
-177.153
-158.789
-143.679
-131.773
-122.469
-114.88
-108.015
-100.808
-92.953
-84.75
-76.251
-67.5
-58.746
-50.363
-43.042
-37.597
-34.32
-33.061
-33.577
-35.541
-38.654
-42.609
-46.896
-50.898
-54.171
-56.492
-57.795
-58.124
-57.506
-55.936
-53.46
-50.187
-46.238
-41.732
-36.764
-31.39
-25.663
-19.679
-13.562
-7.449
-1.481
4.256
9.72
14.879
19.715
24.22
28.398
32.28
35.914
39.344
42.605
45.723
48.719
51.625
54.483
57.341
60.248
63.233
66.313
69.497
72.791
76.193
79.695
83.282
86.925
90.604
94.3
97.999
101.686
105.343
108.949
112.483
115.923
119.248
122.438
125.473
128.334
131.001
133.457
135.687
137.679
139.418
140.892
142.085
142.985
143.58
143.861
143.819
143.446
142.738
141.69
140.304
138.579
136.521
134.132
131.422
128.397
125.067
121.444
117.54
113.369
108.944
104.283
99.401
94.317
89.048
83.615
78.037
72.335
66.53
60.644
54.697
48.711
42.707
36.706
30.728
24.792
18.918
13.124
7.427
1.842
-3.613
-8.927
-14.087
-19.081
-23.9
-28.535
-32.979
-37.225
-41.269
-45.106
-48.733
-52.146
-55.346
-58.33
-61.1
-63.656
-66
-68.137
-70.069
-71.801
-73.34
-74.691
-75.862
-76.859
-77.691
-78.366
-78.892
-79.28
-79.537
-79.674
-79.699
-79.622
-79.451
-79.195
-78.863
-78.463
-78.004
-77.492
-76.935
-76.341
-75.716
-75.068
-74.403
-73.727
-73.048
-72.371
-71.701
-71.045
-70.407
-69.791
-69.2
-68.639
-68.11
-67.614
-67.153
-66.729
-66.341
-65.989
-65.674
-65.393
-65.147
-64.932
-64.746
-64.588
-64.455
-64.343
-64.251
-64.175
-64.112
-64.059
-64.013
-63.97
-63.927
-63.879
-63.821
-63.75
-63.659
-63.545
-63.4
-63.221
-63.001
-62.737
-62.422
-62.054
-61.629
-61.141
-60.589
-59.97
-59.282
-58.522
-57.69
-56.785
-55.807
-54.756
-53.634
-52.443
-51.184
-49.86
-48.475
-47.032
-45.535
-43.989
-42.398
-40.768
-39.106
-37.419
-35.716
-34.005
-32.3
-30.611
-28.954
-27.343
-25.792
-24.318
-22.935
-21.658
-20.502
-19.478
-18.597
-17.87
-17.309
-16.926
-16.734
-16.742
-16.957
-17.388
-18.039
-18.918
-20.027
-21.359
-22.91
-24.678
-26.665
-28.883
-31.339
-34.031
-36.951
-40.092
-43.436
-46.968
-50.657
-54.452
-58.304
-62.165
-65.991
-69.757
-73.429
-76.958
-80.286
-83.342
-86.066
-88.426
-90.4
-91.968
-93.129
-93.907
-94.351
-94.557
-94.63
-94.663
-94.756
-95.006
-95.511
-96.383
-97.775
-99.888
-102.857
-106.704
-111.311
-116.402
-121.704
-126.958
-131.751
-135.519
-137.843
-138.528
-137.807
-136.463
-135.101
-134.143
-134.377
-136.404
-140.417
-146.576
-153.021
-157.017
-157.627
-152.714
-142.311
-127.12
-102.997
-68.575
-20.218
46.793
129.224
225.93
330.136
428.591
513.769
575.891
610.751
623.726
618.707
600.617
572.908
532.647
474.86
397.857
300.812
186.023
63.227
-60.263
-177.769
-281.186
-369.217
-440.936
-494.287
-530.312
-548.653
-548.677
-532.531
-503.326
-464.575
-420.355
-374.406
-329.212
-286.986
-250.251
-220.128
-196.452
-178.716
-165.602
-155.446
-147.248
-139.727
-131.039
-120.329
-107.538
-92.872
-77.177
-61.39
-46.019
-31.826
-19.898
-10.764
-4.584
-1.279
-0.317
-1.163
-3.453
-6.705
-10.333
-13.907
-17.039
-19.426
-20.991
-21.673
-21.422
-20.256
-18.201
-15.29
-11.601
-7.229
-2.263
3.188
9.023
15.159
21.496
27.921
34.299
40.488
46.394
51.962
57.162
61.982
66.411
70.455
74.149
77.55
80.713
83.69
86.519
89.229
91.865
94.476
97.114
99.837
102.682
105.673
108.828
112.158
115.669
119.363
123.227
127.239
131.378
135.629
139.977
144.409
148.907
153.445
158.003
162.556
167.079
171.55
175.944
180.236
184.402
188.42
192.266
195.921
199.365
202.574
205.528
208.204
210.583
212.646
214.375
215.754
216.769
217.409
217.664
217.527
216.994
216.063
214.734
213.008
210.892
208.392
205.518
202.281
198.695
194.777
190.543
186.014
181.209
176.152
170.866
165.376
159.708
153.89
147.949
141.912
135.809
129.667
123.517
117.385
111.3
105.289
99.379
93.596
87.965
82.51
77.254
72.216
67.417
62.874
58.604
54.62
50.936
47.561
44.505
41.775
39.377
37.313
35.585
34.194
33.137
32.413
32.015
31.937
32.171
32.709
33.539
34.648
36.025
37.655
39.521
41.607
43.897
46.371
49.011
51.796
54.707
57.724
60.824
63.987
67.192
70.418
73.643
76.846
80.009
83.11
86.13
89.051
91.854
94.523
97.04
99.39
101.558
103.529
105.292
106.833
108.143
109.211
110.03
110.593
110.894
110.929
110.695
110.191
109.417
108.375
107.068
105.503
103.684
101.621
99.322
96.8
94.067
91.135
88.021
84.74
81.309
77.745
74.066
70.291
66.441
62.535
58.594
54.639
50.693
46.776
42.912
39.121
35.424
31.843
28.397
25.106
21.99
19.066
16.35
13.86
11.608
9.609
7.874
6.412
5.231
4.336
3.732
3.421
3.401
3.672
4.23
5.069
6.182
7.561
9.195
11.072
13.177
15.496
18.01
20.699
23.54
26.509
29.581
32.729
35.926
39.142
42.351
45.523
48.634
51.66
54.573
57.351
59.964
62.388
64.598
66.572
68.286
69.724
70.866
71.7
72.221
72.423
72.302
71.848
71.045
69.877
68.336
66.42
64.128
61.474
58.477
55.165
51.59
47.803
43.854
39.791
35.644
31.451
27.256
23.113
19.09
15.252
11.649
8.324
5.31
2.601
0.169
-2.051
-4.167
-6.265
-8.446
-10.824
-13.495
-16.565
-20.141
-24.307
-29.214
-35.085
-42.026
-50.011
-58.863
-68.188
-77.587
-86.689
-94.935
-101.659
-106.45
-109.284
-110.591
-111.172
-111.898
-113.599
-117.094
-123.226
-131.288
-138.764
-143.247
-142.882
-139.06
-135.687
-132.662
-125.344
-103.572
-54.701
24.803
130.179
249.185
363.594
462.796
541.481
597.556
636.255
659.197
665.632
656.524
628.573
579.99
512.295
426.926
327.874
220.272
108.392
-3.855
-112.621
-213.748
-303.353
-378.086
-435.226
-473.855
-494.161
-496.229
-481.438
-452.585
-412.779
-365.818
-315.868
-265.929
-218.634
-177.027
-142.765
-116.121
-96.879
-83.729
-74.712
-68.442
-63.231
-56.809
-47.945
-36.257
-21.719
-5.13
12.431
30.239
47.272
62.204
74.342
83.386
89.311
92.61
93.837
93.422
91.936
90.032
88.16
86.711
85.98
86.042
86.957
88.769
91.451
94.972
99.304
104.384
110.132
116.469
123.281
130.456
137.901
145.504
153.144
160.68
167.959
174.875
181.361
187.378
192.903
197.914
202.402
206.388
209.918
213.037
215.791
218.216
220.341
222.212
223.879
225.397
226.828
228.213
229.579
230.949
232.341
233.769
235.245
236.768
238.329
239.923
241.552
243.221
244.934
246.693
248.493
250.332
252.206
254.112
256.046
258.001
259.967
261.938
263.906
265.87
267.824
269.763
271.681
273.57
275.427
277.244
279.012
280.711
282.328
283.845
285.253
286.554
287.744
288.814
289.762
290.579
291.25
291.76
292.069
292.121
291.86
291.228
290.188
288.725
286.82
284.467
281.656
278.363
274.568
270.259
265.405
259.987
254.019
247.528
240.604
233.37
225.962
218.545
211.192
203.865
196.46
188.781
180.652
172.013
162.811
152.982
142.721
132.41
122.554
113.806
106.536
100.774
96.367
92.985
90.005
86.505
81.3
73.058
60.797
43.805
21.802
-5.118
-36.721
-72.195
-110.213
-149.28
-187.818
-224.133
-257.021
-285.554
-308.727
-326.282
-338.524
-345.922
-349.465
-350.462
-349.799
-348.297
-346.926
-346.114
-346.007
-346.689
-347.764
-348.665
-349.183
-349.159
-348.405
-346.979
-344.953
-342.404
-339.639
-337.008
-334.679
-332.736
-331.2
-330.008
-329.134
-328.553
-328.172
-327.86
-327.494
-326.992
-326.309
-325.433
-324.355
-323.053
-321.515
-319.746
-317.774
-315.632
-313.363
-310.995
-308.547
-306.049
-303.533
-301.036
-298.602
-296.258
-294.016
-291.885
-289.868
-287.964
-286.173
-284.486
-282.881
-281.34
-279.843
-278.37
-276.91
-275.443
-273.95
-272.41
-270.803
-269.112
-267.326
-265.434
-263.426
-261.295
-259.034
-256.64
-254.114
-251.456
-248.668
-245.75
-242.704
-239.535
-236.248
-232.852
-229.356
-225.769
-222.106
-218.38
-214.611
-210.817
-207.017
-203.232
-199.483
-195.792
-192.182
-188.672
-185.282
-182.03
-178.935
-176.015
-173.29
-170.779
-168.495
-166.453
-164.666
-163.143
-161.893
-160.92
-160.219
-159.786
-159.62
-159.719
-160.096
-160.754
-161.693
-162.906
-164.383
-166.106
-168.054
-170.193
-172.473
-174.842
-177.249
-179.65
-182.015
-184.307
-186.479
-188.475
-190.222
-191.653
-192.724
-193.397
-193.651
-193.484
-192.913
-191.985
-190.78
-189.391
-187.921
-186.46
-185.105
-183.962
-183.138
-182.795
-183.167
-184.39
-186.488
-189.383
-192.769
-196.265
-199.523
-202.041
-203.203
-202.641
-200.297
-196.446
-191.947
-188.051
-185.766
-185.926
-189.509
-195.831
-203.567
-212.378
-219.95
-225.386
-228.213
-222.594
-204.18
-168.169
-109.731
-33.625
54.404
148.261
239.628
326.478
406.636
475.789
531.276
568.966
585.535
580.471
554.077
507.12
441.377
359.284
263.835
158.77
48.34
-63.316
-172.422
-275.008
-367.321
-446.303
-509.501
-555.511
-584.376
-597.015
-594.546
-578.596
-551.361
-515.252
-473.057
-427.514
-380.452
-333.139
-287.082
-243.808
-204.59
-170.453
-141.553
-117.403
-97.783
-82.551
-71.076
-62.367
-55.196
-48.235
-40.89
-33.227
-25.251
-17.018
-8.809
-1.051
5.575
10.242
12.617
12.818
11.038
7.61
2.901
-2.725
-8.744
-14.556
-19.756
-24.115
-27.519
-29.989
-31.545
-32.201
-32.038
-31.166
-29.687
-27.696
-25.26
-22.421
-19.246
-15.819
-12.236
-8.599
-5.005
-1.553
1.689
4.682
7.411
9.888
12.141
14.194
16.092
17.884
19.615
21.324
23.047
24.813
26.656
28.618
30.741
33.071
35.639
38.46
41.542
44.881
48.467
52.289
56.324
60.541
64.913
69.413
74.018
78.707
83.457
88.237
93.02
97.772
102.465
107.072
111.563
115.911
120.09
124.075
127.845
131.38
134.661
137.668
140.381
142.783
144.857
146.589
147.967
148.98
149.619
149.879
149.756
149.252
148.369
147.109
145.481
143.493
141.154
138.48
135.484
132.182
128.593
124.736
120.633
116.305
111.776
107.07
102.212
97.227
92.141
86.979
81.766
76.528
71.289
66.074
60.907
55.808
50.801
45.906
41.142
36.527
32.077
27.808
23.732
19.861
16.205
12.771
9.568
6.599
3.869
1.378
-0.872
-2.882
-4.657
-6.199
-7.514
-8.609
-9.492
-10.172
-10.658
-10.961
-11.092
-11.064
-10.888
-10.578
-10.147
-9.609
-8.977
-8.264
-7.486
-6.654
-5.782
-4.884
-3.97
-3.054
-2.147
-1.259
-0.4
0.419
1.19
1.906
2.558
3.14
3.647
4.074
4.417
4.674
4.842
4.92
4.909
4.809
4.62
4.347
3.99
3.555
3.044
2.464
1.819
1.117
0.363
-0.434
-1.268
-2.129
-3.009
-3.899
-4.79
-5.673
-6.538
-7.376
-8.178
-8.934
-9.634
-10.269
-10.831
-11.31
-11.698
-11.986
-12.166
-12.232
-12.178
-11.997
-11.684
-11.236
-10.648
-9.917
-9.042
-8.02
-6.852
-5.537
-4.077
-2.473
-0.73
1.148
3.155
5.287
7.533
9.886
12.337
14.874
17.487
20.165
22.894
25.661
28.451
31.249
34.04
36.806
39.527
42.182
44.753
47.22
49.563
51.764
53.802
55.662
57.328
58.788
60.029
61.037
61.797
62.295
62.523
62.471
62.136
61.515
60.603
59.404
57.926
56.178
54.171
51.908
49.383
46.593
43.545
40.249
36.723
32.993
29.081
25.025
20.878
16.689
12.515
8.401
4.379
0.492
-3.222
-6.711
-9.909
-12.766
-15.227
-17.248
-18.816
-19.936
-20.636
-20.994
-21.054
-20.862
-20.6
-20.433
-20.533
-21.124
-22.218
-23.829
-26.253
-29.662
-33.886
-38.667
-43.369
-47.246
-50.197
-52.063
-52.265
-50.568
-47.199
-42.811
-39.007
-37.465
-38.778
-43.358
-51.67
-63.478
-77.875
-92.878
-105.018
-110.518
-106.481
-90.5
-60.506
-15.326
45.182
119.484
204.185
294.81
386.657
475.152
555.535
623.244
674.356
706.052
716.795
706.266
675.088
624.223
555.409
471.181
374.494
268.7
157.553
44.847
-65.923
-171.109
-267.131
-350.911
-419.791
-471.881
-506.611
-524.394
-525.96
-512.585
-486.318
-449.618
-405.362
-356.586
-305.647
-254.278
-204.23
-157.318
-114.85
-77.739
-46.539
-21.171
-1.514
12.483
21.265
25.781
26.823
25.242
22.216
18.624
15.299
12.918
11.666
11.504
12.652
15.266
18.988
23.318
27.543
31.222
34.445
37.312
39.691
41.343
42.266
42.808
43.626
45.181
47.558
50.743
54.715
59.576
65.402
72.006
79.005
86.039
92.853
99.331
105.455
111.16
116.374
121.085
125.324
129.156
132.661
135.873
138.802
141.461
143.869
146.07
148.126
150.097
152.045
154.016
156.037
158.134
160.326
162.622
165.03
167.543
170.14
172.811
175.546
178.341
181.192
184.085
186.998
189.911
192.803
195.655
198.45
201.168
203.788
206.291
208.658
210.873
212.922
214.786
216.446
217.882
219.075
220.007
220.66
221.019
221.066
220.788
220.172
219.208
217.889
216.207
214.159
211.741
208.953
205.797
202.275
198.394
194.16
189.582
184.671
179.441
173.905
168.079
161.981
155.63
149.044
142.245
135.256
128.098
120.796
113.372
105.851
98.259
90.619
82.956
75.295
67.659
60.072
52.558
45.138
37.833
30.663
23.646
16.8
10.141
3.683
-2.56
-8.577
-14.359
-19.895
-25.179
-30.204
-34.967
-39.464
-43.693
-47.654
-51.349
-54.779
-57.948
-60.86
-63.52
-65.936
-68.115
-70.065
-71.794
-73.314
-74.633
-75.763
-76.715
-77.502
-78.134
-78.626
-78.987
-79.232
-79.371
-79.417
-79.38
-79.272
-79.103
-78.882
-78.62
-78.325
-78.006
-77.669
-77.322
-76.97
-76.621
-76.277
-75.943
-75.623
-75.318
-75.031
-74.764
-74.516
-74.289
-74.081
-73.893
-73.722
-73.568
-73.426
-73.293
-73.167
-73.043
-72.916
-72.781
-72.634
-72.469
-72.282
-72.067
-71.819
-71.533
-71.205
-70.829
-70.401
-69.916
-69.369
-68.756
-68.074
-67.318
-66.487
-65.579
-64.59
-63.52
-62.368
-61.133
-59.815
-58.413
-56.929
-55.363
-53.716
-51.991
-50.191
-48.321
-46.384
-44.386
-42.333
-40.233
-38.093
-35.921
-33.724
-31.513
-29.295
-27.082
-24.883
-22.711
-20.578
-18.496
-16.483
-14.553
-12.722
-11.007
-9.422
-7.984
-6.706
-5.602
-4.681
-3.954
-3.431
-3.122
-3.041
-3.196
-3.595
-4.245
-5.152
-6.317
-7.743
-9.425
-11.352
-13.515
-15.91
-18.538
-21.406
-24.519
-27.871
-31.455
-35.259
-39.266
-43.456
-47.792
-52.221
-56.69
-61.152
-65.567
-69.907
-74.131
-78.185
-82.009
-85.529
-88.683
-91.432
-93.746
-95.598
-96.994
-97.951
-98.508
-98.762
-98.823
-98.797
-98.805
-98.939
-99.284
-99.99
-101.279
-103.328
-106.23
-109.896
-114.058
-118.487
-122.976
-127.166
-130.553
-132.659
-133.214
-132.551
-131.461
-130.539
-130.453
-132.1
-136.274
-143.715
-153.528
-162.543
-167.779
-167.611
-163.97
-161.004
-159.399
-154.898
-136.11
-89.833
-9.201
104.474
237.379
369.414
482.142
562.332
608.106
625.973
625.972
616.092
598.435
570.326
525.532
460.539
376.4
277.341
170.979
63.484
-43.075
-150.02
-259.677
-370.956
-476.464
-562.221
-614.688
-627.883
-605.443
-560.883
-509.195
-459.347
-413.807
-369.718
-324.729
-280.235
-240.015
-208.04
-185.453
-171.14
-163.017
-158.541
-155.947
-153.433
-148.915
-141.356
-130.658
-117.232
-102.068
-86.236
-70.536
-56.059
-44.02
-35.022
-29.237
-26.498
-26.264
-27.999
-31.265
-35.5
-40.07
-44.515
-48.451
-51.6
-53.874
-55.206
-55.538
-54.886
-53.279
-50.751
-47.37
-43.22
-38.375
-32.936
-27
-20.647
-13.98
-7.117
-0.2
6.62
13.237
19.59
25.636
31.356
36.732
41.762
46.475
50.923
55.152
59.207
63.117
66.907
70.612
74.278
77.95
81.68
85.501
89.429
93.476
97.647
101.943
106.357
110.871
115.454
120.085
124.742
129.406
134.062
138.688
143.258
147.75
152.137
156.395
160.501
164.43
168.16
171.666
174.929
177.928
180.647
183.069
185.174
186.947
188.369
189.426
190.105
190.395
190.285
189.768
188.839
187.495
185.739
183.571
180.998
178.025
174.663
170.922
166.816
162.36
157.571
152.467
147.069
141.399
135.479
129.334
122.989
116.469
109.804
103.019
96.143
89.204
82.231
75.251
68.291
61.379
54.54
47.799
41.179
34.703
28.393
22.267
16.343
10.637
5.164
-0.065
-5.039
-9.75
-14.192
-18.359
-22.249
-25.86
-29.192
-32.247
-35.029
-37.541
-39.789
-41.781
-43.525
-45.031
-46.31
-47.372
-48.231
-48.9
-49.392
-49.721
-49.902
-49.948
-49.875
-49.696
-49.425
-49.078
-48.666
-48.204
-47.704
-47.179
-46.639
-46.094
-45.556
-45.032
-44.531
-44.06
-43.624
-43.23
-42.883
-42.586
-42.344
-42.158
-42.031
-41.964
-41.959
-42.013
-42.128
-42.301
-42.531
-42.815
-43.151
-43.535
-43.964
-44.434
-44.942
-45.482
-46.049
-46.639
-47.246
-47.864
-48.488
-49.111
-49.727
-50.332
-50.918
-51.482
-52.016
-52.516
-52.976
-53.392
-53.756
-54.065
-54.312
-54.492
-54.599
-54.63
-54.578
-54.441
-54.213
-53.891
-53.47
-52.949
-52.323
-51.589
-50.746
-49.79
-48.72
-47.537
-46.24
-44.831
-43.312
-41.685
-39.955
-38.126
-36.205
-34.196
-32.106
-29.942
-27.714
-25.43
-23.101
-20.738
-18.354
-15.965
-13.588
-11.24
-8.937
-6.699
-4.544
-2.49
-0.552
1.253
2.913
4.412
5.733
6.861
7.779
8.476
8.939
9.157
9.121
8.824
8.266
7.45
6.381
5.059
3.479
1.629
-0.5
-2.907
-5.589
-8.539
-11.743
-15.185
-18.833
-22.636
-26.545
-30.513
-34.497
-38.467
-42.385
-46.194
-49.831
-53.22
-56.293
-59.006
-61.326
-63.224
-64.698
-65.76
-66.442
-66.838
-67.059
-67.201
-67.367
-67.648
-68.113
-68.917
-70.294
-72.408
-75.355
-79.109
-83.458
-88.198
-93.146
-97.907
-101.928
-104.78
-106.207
-106.302
-105.617
-104.824
-104.629
-105.968
-109.975
-116.324
-123.181
-128.969
-131.362
-131.322
-133.894
-139.604
-146.336
-146.665
-123.905
-68.375
21.513
141.679
272.511
394.586
496.427
567.995
612.394
639.102
651.963
654.986
646.871
620.952
574.389
506.56
419.628
318.833
209.914
99.186
-9.956
-115.575
-216.207
-313.251
-402.779
-476.498
-527.858
-549.081
-540.066
-509.841
-467.195
-421.751
-378.325
-335.544
-293.106
-251.334
-212.644
-180.883
-157.163
-141.053
-131.232
-125.362
-121.934
-119.511
-115.868
-109.741
-100.83
-89.196
-75.669
-61.314
-46.828
-33.194
-21.74
-13.185
-7.809
-5.595
-6.021
-8.518
-12.655
-17.856
-23.454
-28.97
-33.985
-38.184
-41.477
-43.792
-45.068
-45.32
-44.563
-42.814
-40.13
-36.587
-32.257
-27.244
-21.648
-15.554
-9.07
-2.32
4.552
11.387
18.075
24.548
30.762
36.691
42.309
47.605
52.601
57.339
61.86
66.202
70.391
74.445
78.399
82.29
86.164
90.068
94.031
98.065
102.181
106.378
110.654
115.001
119.399
123.816
128.228
132.613
136.953
141.233
145.431
149.525
153.492
157.308
160.953
164.406
167.649
170.661
173.425
175.925
178.148
180.084
181.722
183.049
184.055
184.729
185.062
185.048
184.68
183.955
182.869
181.422
179.619
177.462
174.958
172.115
168.942
165.451
161.652
157.561
153.192
148.56
143.684
138.58
133.268
127.768
122.1
116.285
110.345
104.302
98.177
91.992
85.77
79.531
73.297
67.09
60.929
54.834
48.825
42.919
37.134
31.485
25.989
20.658
15.506
10.542
5.777
1.22
-3.122
-7.243
-11.137
-14.801
-18.232
-21.426
-24.384
-27.106
-29.593
-31.847
-33.872
-35.671
-37.249
-38.613
-39.768
-40.722
-41.482
-42.057
-42.456
-42.689
-42.765
-42.695
-42.49
-42.16
-41.718
-41.174
-40.54
-39.827
-39.047
-38.211
-37.329
-36.412
-35.472
-34.52
-33.564
-32.615
-31.683
-30.776
-29.902
-29.07
-28.286
-27.556
-26.888
-26.286
-25.754
-25.297
-24.918
-24.618
-24.401
-24.265
-24.212
-24.24
-24.347
-24.532
-24.791
-25.121
-25.517
-25.974
-26.487
-27.049
-27.653
-28.292
-28.959
-29.645
-30.341
-31.039
-31.73
-32.405
-33.055
-33.671
-34.245
-34.768
-35.232
-35.628
-35.949
-36.187
-36.334
-36.385
-36.333
-36.172
-35.9
-35.512
-35.005
-34.378
-33.629
-32.757
-31.764
-30.65
-29.417
-28.068
-26.607
-25.04
-23.372
-21.611
-19.763
-17.838
-15.845
-13.794
-11.697
-9.565
-7.408
-5.241
-3.077
-0.928
1.191
3.265
5.278
7.212
9.05
10.774
12.367
13.809
15.085
16.178
17.072
17.756
18.22
18.452
18.444
18.186
17.666
16.879
15.817
14.478
12.858
10.957
8.776
6.327
3.62
0.667
-2.526
-5.961
-9.639
-13.55
-17.684
-22.03
-26.563
-31.256
-36.073
-40.957
-45.85
-50.699
-55.45
-60.069
-64.517
-68.744
-72.693
-76.299
-79.497
-82.251
-84.528
-86.295
-87.56
-88.357
-88.75
-88.852
-88.758
-88.552
-88.346
-88.248
-88.37
-88.844
-89.775
-91.316
-93.693
-97.02
-101.27
-106.302
-111.754
-117.215
-122.313
-126.496
-129.091
-129.715
-128.356
-125.404
-121.65
-117.989
-115.323
-114.627
-116.891
-121.673
-126.766
-129.641
-128.327
-124.014
-119.94
-117.258
-112.534
-95.254
-52.933
23.168
133.704
266.573
403.117
522.984
610.24
660.618
678.82
675.711
660.725
636.85
601.664
548.456
473.873
379.639
270.01
152.11
32.226
-85.448
-196.729
-297.487
-385.39
-459.461
-517.338
-557.675
-578.529
-575.719
-552.386
-516.281
-475.415
-440.844
-414.813
-391.058
-364.582
-329.649
-286.588
-242.537
-202.131
-168.127
-140.818
-118.006
-98.971
-83.755
-71.933
-62.582
-54.215
-45.848
-37.274
-28.449
-19.36
-9.98
-0.448
8.456
15.714
20.83
23.751
24.7
24.049
22.05
18.955
15.295
11.714
8.682
6.514
5.307
5.012
5.623
7.132
9.474
12.547
16.233
20.414
25.011
29.969
35.234
40.738
46.377
52.039
57.615
62.993
68.107
72.921
77.409
81.571
85.424
88.988
92.305
95.429
98.402
101.26
104.035
106.748
109.433
112.131
114.882
117.732
120.708
123.821
127.082
130.488
134.03
137.693
141.454
145.28
149.142
153.017
156.877
160.703
164.471
168.153
171.72
175.143
178.394
181.446
184.275
186.853
189.159
191.169
192.867
194.236
195.261
195.927
196.22
196.127
195.637
194.742
193.435
191.712
189.569
187.009
184.034
180.652
176.872
172.704
168.162
163.261
158.018
152.452
146.584
140.435
134.028
127.388
120.537
113.504
106.313
98.993
91.569
84.069
76.52
68.948
61.381
53.844
46.36
38.956
31.653
24.474
17.44
10.57
3.883
-2.605
-8.877
-14.921
-20.724
-26.277
-31.571
-36.599
-41.358
-45.842
-50.049
-53.98
-57.635
-61.015
-64.122
-66.962
-69.537
-71.855
-73.922
-75.745
-77.331
-78.69
-79.831
-80.763
-81.495
-82.04
-82.406
-82.606
-82.649
-82.548
-82.314
-81.957
-81.491
-80.925
-80.272
-79.541
-78.743
-77.889
-76.989
-76.051
-75.084
-74.097
-73.098
-72.094
-71.093
-70.1
-69.123
-68.167
-67.238
-66.34
-65.478
-64.658
-63.882
-63.154
-62.478
-61.856
-61.289
-60.78
-60.33
-59.938
-59.606
-59.332
-59.115
-58.954
-58.845
-58.785
-58.771
-58.799
-58.863
-58.958
-59.079
-59.22
-59.374
-59.535
-59.695
-59.848
-59.987
-60.105
-60.194
-60.246
-60.254
-60.21
-60.107
-59.937
-59.691
-59.362
-58.942
-58.426
-57.807
-57.078
-56.235
-55.271
-54.184
-52.971
-51.628
-50.154
-48.549
-46.814
-44.95
-42.961
-40.85
-38.623
-36.287
-33.85
-31.321
-28.71
-26.028
-23.286
-20.497
-17.674
-14.833
-11.987
-9.152
-6.346
-3.587
-0.896
1.706
4.199
6.56
8.769
10.806
12.649
14.282
15.691
16.862
17.781
18.434
18.808
18.892
18.678
18.16
17.336
16.202
14.761
13.022
10.996
8.698
6.136
3.312
0.223
-3.128
-6.732
-10.572
-14.632
-18.891
-23.322
-27.885
-32.527
-37.193
-41.836
-46.419
-50.907
-55.255
-59.41
-63.298
-66.852
-70.014
-72.741
-75.002
-76.779
-78.072
-78.897
-79.296
-79.342
-79.123
-78.729
-78.264
-77.847
-77.592
-77.667
-78.303
-79.643
-81.735
-84.48
-87.538
-90.507
-93.026
-94.635
-94.819
-93.314
-90.115
-85.718
-81.281
-78.062
-77.163
-79.572
-85.951
-96.348
-110.224
-126.03
-140.8
-150.934
-153.03
-143.863
-121.758
-86.89
-38.264
24.527
101.618
194.12
296.243
397.848
488.481
555.234
593.989
608.962
603.742
584.497
552.878
504.182
437.022
351.994
251.814
142.848
30.633
-81.2
-189.112
-289.365
-378.516
-453.505
-512.053
-553.495
-578.441
-587.675
-582.505
-565.092
-537.847
-503.349
-464.174
-422.24
-378.748
-334.681
-290.789
-247.603
-205.65
-165.512
-127.855
-93.327
-62.784
-37.385
-18.255
-6.346
-1.294
-0.919
-2.76
-5.941
-13.383
-29.967
-58.386
-95.557
-129.016
-144.241
-132.514
-93.532
-41.69
4.263
32.217
35.752
21.697
2.989
-12.584
-19.133
-17.377
-12.87
-7.926
-4.044
-1.315
2.371
7.56
13.866
21.006
28.16
34.875
41.223
47.212
52.867
58.243
63.345
68.164
72.73
77.069
81.178
85.056
88.713
92.159
95.408
98.501
101.487
104.418
107.345
110.303
113.308
116.375
119.521
122.755
126.081
129.492
132.971
136.506
140.089
143.707
147.35
150.998
154.625
158.208
161.727
165.161
168.491
171.698
174.76
177.659
180.377
182.899
185.209
187.293
189.133
190.713
192.017
193.032
193.745
194.144
194.218
193.957
193.354
192.406
191.109
189.462
187.466
185.123
182.439
179.419
176.071
172.405
168.431
164.164
159.617
154.807
149.748
144.46
138.961
133.269
127.406
121.391
115.244
108.988
102.641
96.227
89.766
83.28
76.788
70.312
63.871
57.485
51.174
44.953
38.841
32.852
27.001
21.301
15.764
10.401
5.221
0.234
-4.555
-9.138
-13.512
-17.671
-21.614
-25.339
-28.845
-32.132
-35.202
-38.055
-40.696
-43.126
-45.35
-47.371
-49.195
-50.827
-52.273
-53.539
-54.633
-55.56
-56.329
-56.947
-57.422
-57.761
-57.973
-58.065
-58.044
-57.919
-57.696
-57.383
-56.987
-56.515
-55.974
-55.37
-54.708
-53.996
-53.238
-52.44
-51.607
-50.744
-49.856
-48.946
-48.021
-47.083
-46.137
-45.187
-44.237
-43.289
-42.348
-41.415
-40.493
-39.585
-38.693
-37.818
-36.964
-36.13
-35.32
-34.533
-33.771
-33.036
-32.327
-31.645
-30.991
-30.364
-29.765
-29.193
-28.647
-28.128
-27.635
-27.167
-26.723
-26.301
-25.9
-25.518
-25.153
-24.802
-24.462
-24.13
-23.803
-23.479
-23.154
-22.826
-22.491
-22.147
-21.79
-21.419
-21.029
-20.619
-20.185
-19.725
-19.237
-18.718
-18.166
-17.581
-16.96
-16.304
-15.612
-14.883
-14.119
-13.319
-12.485
-11.619
-10.722
-9.799
-8.853
-7.889
-6.914
-5.935
-4.961
-4.003
-3.071
-2.178
-1.334
-0.55
0.162
0.791
1.325
1.754
2.068
2.256
2.307
2.208
1.947
1.515
0.903
0.105
-0.883
-2.066
-3.443
-5.013
-6.778
-8.739
-10.901
-13.268
-15.84
-18.614
-21.584
-24.735
-28.042
-31.477
-34.998
-38.565
-42.141
-45.688
-49.177
-52.576
-55.839
-58.929
-61.805
-64.43
-66.788
-68.848
-70.561
-71.921
-72.954
-73.721
-74.35
-74.908
-75.386
-75.901
-76.664
-77.887
-79.824
-82.539
-85.889
-89.95
-94.952
-100.811
-107.146
-113.313
-118.438
-122.147
-124.561
-125.458
-124.42
-121.452
-117.18
-112.878
-110.124
-109.875
-112.339
-117.754
-126.578
-137.714
-147.692
-152.965
-150.867
-142.621
-133.943
-127.27
-117.968
-94.06
-39.707
53.621
179.822
319.341
446.798
542.458
599.836
625.62
633.043
632.084
625.396
608.719
574.203
517.533
438.978
343.193
237.066
124.8
10.148
-105.405
-220.245
-326.672
-418.539
-489.624
-534.336
-556.765
-560.977
-550.41
-531.239
-504.118
-469.992
-432.06
-391.306
-350.076
-311.082
-275.635
-244.715
-218.688
-196.908
-178.358
-162.63
-149.589
-138.687
-129.129
-119.988
-110.244
-99.67
-88.694
-77.473
-66.102
-54.822
-43.942
-34.114
-26.19
-20.495
-16.892
-15.148
-14.924
-15.928
-17.916
-20.427
-22.826
-24.642
-25.617
-25.653
-24.801
-23.094
-20.512
-17.087
-12.917
-8.115
-2.804
2.914
8.983
15.348
21.923
28.593
35.207
41.609
47.699
53.421
58.745
63.659
68.148
72.212
75.882
79.213
82.257
85.06
87.654
90.064
92.33
94.503
96.642
98.812
101.055
103.399
105.864
108.464
111.209
114.104
117.139
120.293
123.548
126.892
130.316
133.809
137.356
140.939
144.535
148.123
151.681
155.189
158.624
161.962
165.182
168.262
171.181
173.921
176.463
178.784
180.865
182.683
184.218
185.451
186.364
186.94
187.163
187.022
186.506
185.608
184.321
182.642
180.571
178.107
175.255
172.02
168.409
164.431
160.099
155.427
150.43
145.127
139.535
133.678
127.577
121.256
114.742
108.059
101.235
94.298
87.276
80.197
73.089
65.982
58.902
51.879
44.938
38.106
31.408
24.868
18.507
12.347
6.405
0.7
-4.753
-9.94
-14.849
-19.468
-23.791
-27.808
-31.515
-34.908
-37.986
-40.75
-43.2
-45.341
-47.178
-48.718
-49.969
-50.942
-51.647
-52.096
-52.303
-52.283
-52.052
-51.624
-51.017
-50.249
-49.336
-48.296
-47.146
-45.904
-44.586
-43.209
-41.788
-40.34
-38.878
-37.417
-35.971
-34.552
-33.173
-31.845
-30.578
-29.382
-28.265
-27.234
-26.295
-25.454
-24.715
-24.082
-23.555
-23.137
-22.827
-22.624
-22.525
-22.527
-22.625
-22.814
-23.088
-23.44
-23.862
-24.348
-24.888
-25.476
-26.101
-26.756
-27.431
-28.117
-28.806
-29.488
-30.154
-30.796
-31.405
-31.972
-32.49
-32.951
-33.347
-33.671
-33.918
-34.079
-34.151
-34.126
-34
-33.77
-33.431
-32.982
-32.422
-31.749
-30.965
-30.071
-29.068
-27.959
-26.748
-25.439
-24.036
-22.543
-20.969
-19.318
-17.599
-15.818
-13.986
-12.11
-10.199
-8.265
-6.317
-4.364
-2.418
-0.489
1.41
3.269
5.076
6.817
8.478
10.044
11.5
12.831
14.021
15.056
15.922
16.604
17.093
17.379
17.457
17.32
16.96
16.371
15.544
14.478
13.169
11.615
9.817
7.776
5.498
2.998
0.287
-2.625
-5.732
-9.04
-12.551
-16.259
-20.156
-24.23
-28.458
-32.818
-37.274
-41.769
-46.249
-50.66
-54.957
-59.109
-63.077
-66.815
-70.268
-73.368
-76.051
-78.278
-80.012
-81.237
-81.966
-82.231
-82.094
-81.65
-81.004
-80.27
-79.568
-78.995
-78.657
-78.644
-79.091
-80.233
-82.226
-85.1
-88.781
-92.99
-97.396
-101.738
-105.57
-108.25
-109.373
-108.821
-106.805
-104.057
-101.47
-99.834
-100.099
-103.355
-109.008
-114.762
-118.373
-116.983
-111.594
-107.255
-105.879
-107.058
-102.058
-74.318
-11.508
93.427
233.044
385.638
525.317
625.443
673.244
670.826
633.406
585.466
542.822
512.314
487.614
452.116
396.561
318.05
222.625
122.923
24.865
-71.899
-170.41
-272.274
-371.568
-454.86
-509.179
-529.321
-519.119
-490.72
-457.198
-425.76
-397.518
-368.77
-336.123
-299.42
-261.383
-226.476
-197.297
-174.113
-156.054
-141.734
-130.601
-122.468
-116.554
-111.452
-105.687
-98.546
-90.117
-80.832
-71.011
-60.863
-50.692
-41.244
-33.528
-28.068
-24.913
-23.808
-24.318
-26.148
-29.08
-32.695
-36.419
-39.768
-42.39
-44.132
-45.015
-45.042
-44.197
-42.494
-39.975
-36.732
-32.875
-28.5
-23.68
-18.469
-12.914
-7.095
-1.118
4.887
10.784
16.487
21.953
27.145
32.044
36.636
40.915
44.913
48.681
52.264
55.701
59.016
62.225
65.361
68.466
71.585
74.769
78.049
81.44
84.958
88.611
92.401
96.328
100.375
104.516
108.73
113.001
117.311
121.648
125.993
130.321
134.61
138.838
142.981
147.018
150.925
154.679
158.258
161.642
164.81
167.747
170.434
172.853
174.985
176.812
178.317
179.484
180.301
180.752
180.828
180.519
179.819
178.723
177.23
175.338
173.051
170.371
167.306
163.863
160.052
155.886
151.378
146.546
141.405
135.974
130.275
124.328
118.156
111.783
105.233
98.531
91.702
84.772
77.767
70.713
63.636
56.562
49.515
42.521
35.604
28.787
22.094
15.545
9.162
2.962
-3.036
-8.817
-14.365
-19.667
-24.712
-29.49
-33.993
-38.213
-42.146
-45.789
-49.14
-52.198
-54.966
-57.445
-59.639
-61.553
-63.194
-64.569
-65.685
-66.552
-67.18
-67.579
-67.76
-67.736
-67.519
-67.123
-66.56
-65.846
-64.993
-64.017
-62.932
-61.752
-60.492
-59.166
-57.788
-56.373
-54.933
-53.48
-52.028
-50.587
-49.167
-47.78
-46.433
-45.134
-43.892
-42.713
-41.602
-40.565
-39.607
-38.732
-37.942
-37.241
-36.63
-36.111
-35.683
-35.347
-35.102
-34.946
-34.877
-34.892
-34.988
-35.16
-35.403
-35.712
-36.08
-36.502
-36.969
-37.474
-38.01
-38.568
-39.141
-39.72
-40.297
-40.865
-41.417
-41.945
-42.442
-42.901
-43.316
-43.679
-43.985
-44.228
-44.401
-44.499
-44.518
-44.452
-44.299
-44.054
-43.714
-43.277
-42.741
-42.105
-41.369
-40.532
-39.596
-38.563
-37.434
-36.214
-34.909
-33.522
-32.06
-30.531
-28.941
-27.3
-25.614
-23.894
-22.148
-20.387
-18.62
-16.857
-15.111
-13.392
-11.715
-10.093
-8.542
-7.076
-5.711
-4.462
-3.342
-2.367
-1.548
-0.894
-0.415
-0.119
-0.015
-0.116
-0.429
-0.962
-1.721
-2.709
-3.928
-5.38
-7.06
-8.956
-11.06
-13.365
-15.868
-18.581
-21.508
-24.644
-27.981
-31.505
-35.195
-39.028
-42.966
-46.956
-50.944
-54.88
-58.724
-62.45
-66.025
-69.402
-72.527
-75.324
-77.734
-79.717
-81.245
-82.311
-82.929
-83.131
-82.979
-82.566
-81.998
-81.394
-80.863
-80.498
-80.41
-80.702
-81.542
-83.19
-85.768
-89.239
-93.461
-98.094
-102.752
-107.135
-110.768
-113.001
-113.544
-112.512
-110.323
-107.83
-106.094
-105.99
-108.197
-113.503
-121.056
-128.2
-133.7
-136.279
-135.457
-133.822
-128.391
-112.667
-82.301
-29.432
46.425
137.872
240.854
344.649
438.608
518.352
575.313
608.09
622.445
620.602
607.489
584.506
546.416
491.25
418.622
329.985
230.646
125.395
17.848
-88.336
-189.236
-280.797
-359.195
-421.439
-466.224
-493.777
-504.763
-500.243
-482.531
-454.508
-419.446
-380.878
-341.203
-301.813
-264.225
-229.928
-199.762
-174.246
-153.066
-135.174
-120.12
-107.775
-97.597
-88.829
-80.585
-71.907
-62.585
-53.023
-43.384
-33.747
-24.313
-15.355
-7.455
-1.372
2.621
4.695
5.107
4.161
2.107
-0.837
-4.264
-7.581
-10.34
-12.311
-13.409
-13.673
-13.132
-11.756
-9.563
-6.656
-3.15
0.836
5.197
9.897
14.909
20.161
25.562
30.983
36.286
41.391
46.261
50.869
55.204
59.255
63.021
66.539
69.866
73.054
76.147
79.172
82.148
85.107
88.091
91.146
94.325
97.659
101.161
104.843
108.711
112.764
116.997
121.39
125.91
130.533
135.234
139.992
144.788
149.596
154.386
159.129
163.794
168.353
172.777
177.036
181.102
184.948
188.546
191.873
194.908
197.63
200.017
202.047
203.702
204.963
205.815
206.245
206.242
205.797
204.904
203.562
201.77
199.533
196.854
193.743
190.209
186.265
181.925
177.208
172.131
166.716
160.985
154.963
148.673
142.144
135.403
128.478
121.399
114.195
106.896
99.533
92.135
84.733
77.356
70.032
62.79
55.654
48.65
41.803
35.134
28.665
22.413
16.395
10.626
5.119
-0.115
-5.067
-9.729
-14.097
-18.168
-21.938
-25.403
-28.564
-31.419
-33.973
-36.239
-38.22
-39.92
-41.358
-42.546
-43.503
-44.261
-44.819
-45.15
-45.268
-45.181
-44.868
-44.35
-43.626
-42.644
-41.468
-40.241
-39.002
-37.774
-36.721
-35.926
-35.273
-34.881
-34.693
-33.993
-33.683
-34.832
-36.043
-37.296
-35.401
-25.121
-10.218
5.017
13.913
5.544
-15.803
-40.286
-59.175
-59.534
-43.402
-22.191
-3.206
4.679
1.103
-6.215
-13.519
-17.95
-18.735
-18.752
-19.045
-19.381
-19.893
-20.191
-20.151
-20.124
-20.227
-20.396
-20.659
-21.057
-21.559
-22.131
-22.74
-23.319
-23.842
-24.335
-24.798
-25.216
-25.588
-25.905
-26.164
-26.367
-26.512
-26.587
-26.589
-26.513
-26.354
-26.111
-25.782
-25.364
-24.856
-24.256
-23.564
-22.779
-21.9
-20.928
-19.865
-18.712
-17.472
-16.147
-14.743
-13.263
-11.713
-10.098
-8.426
-6.702
-4.935
-3.134
-1.307
0.536
2.383
4.224
6.045
7.831
9.568
11.239
12.831
14.326
15.71
16.968
18.086
19.054
19.863
20.502
20.962
21.23
21.297
21.155
20.796
20.214
19.405
18.366
17.099
15.613
13.915
12.012
9.907
7.591
5.06
2.316
-0.635
-3.784
-7.115
-10.61
-14.235
-17.941
-21.679
-25.402
-29.071
-32.662
-36.144
-39.477
-42.614
-45.493
-48.058
-50.272
-52.102
-53.528
-54.557
-55.217
-55.567
-55.698
-55.708
-55.698
-55.768
-56.007
-56.508
-57.353
-58.676
-60.686
-63.529
-67.261
-71.829
-76.985
-82.423
-87.852
-92.798
-96.635
-98.914
-99.424
-98.345
-96.343
-94.33
-93.225
-94.051
-98.032
-104.964
-113.111
-120.809
-125.428
-127.01
-129.377
-132.554
-134.577
-128.854
-100.353
-40.671
51.713
172.562
302.421
422.335
519.713
583.064
614.922
624.47
616.212
596.469
565.602
517.328
450.15
364.869
264.454
155.748
44.275
-66.838
-174.767
-276.346
-368.188
-447.278
-511.435
-559.425
-590.987
-605.793
-603.228
-585.007
-555.161
-516.156
-469.803
-416.672
-354.313
-286.12
-220.731
-165.912
-130.335
-114.55
-110.699
-112.002
-111.266
-105.864
-98.627
-90.519
-82.456
-74.593
-65.067
-53.646
-41.066
-28.03
-16.101
-6.613
0.052
3.804
4.867
3.816
1.138
-2.704
-7.038
-11.168
-14.614
-17.082
-18.463
-18.81
-18.159
-16.524
-13.972
-10.599
-6.518
-1.838
3.347
8.965
14.941
21.166
27.508
33.819
39.955
45.817
51.353
56.531
61.333
65.758
69.813
73.531
76.962
80.158
83.163
86.019
88.758
91.426
94.078
96.77
99.562
102.495
105.588
108.857
112.309
115.943
119.756
123.729
127.837
132.056
136.368
140.754
145.198
149.678
154.169
158.644
163.076
167.437
171.703
175.846
179.842
183.664
187.288
190.691
193.853
196.753
199.366
201.673
203.649
205.276
206.536
207.411
207.887
207.95
207.592
206.805
205.586
203.932
201.846
199.331
196.391
193.036
189.275
185.12
180.587
175.691
170.45
164.884
159.015
152.864
146.456
139.816
132.971
125.947
118.772
111.475
104.084
96.628
89.134
81.631
74.147
66.709
59.342
52.072
44.923
37.917
31.075
24.416
17.957
11.713
5.698
-0.076
-5.601
-10.868
-15.87
-20.604
-25.065
-29.253
-33.167
-36.809
-40.181
-43.288
-46.134
-48.727
-51.073
-53.181
-55.06
-56.721
-58.174
-59.431
-60.504
-61.404
-62.145
-62.74
-63.201
-63.542
-63.774
-63.912
-63.966
-63.949
-63.871
-63.743
-63.574
-63.374
-63.151
-62.913
-62.666
-62.418
-62.173
-61.937
-61.715
-61.511
-61.328
-61.169
-61.038
-60.935
-60.864
-60.824
-60.818
-60.846
-60.908
-61.004
-61.134
-61.298
-61.493
-61.72
-61.976
-62.261
-62.571
-62.906
-63.262
-63.639
-64.034
-64.445
-64.871
-65.309
-65.758
-66.215
-66.68
-67.15
-67.623
-68.098
-68.572
-69.043
-69.509
-69.967
-70.415
-70.85
-71.269
-71.668
-72.045
-72.395
-72.713
-72.997
-73.242
-73.444
-73.599
-73.704
-73.755
-73.749
-73.681
-73.55
-73.352
-73.084
-72.744
-72.33
-71.838
-71.269
-70.621
-69.893
-69.085
-68.197
-67.229
-66.185
-65.067
-63.877
-62.618
-61.297
-59.918
-58.489
-57.017
-55.509
-53.978
-52.434
-50.892
-49.366
-47.87
-46.42
-45.03
-43.717
-42.496
-41.378
-40.376
-39.503
-38.769
-38.189
-37.779
-37.55
-37.513
-37.678
-38.054
-38.651
-39.472
-40.514
-41.776
-43.254
-44.951
-46.878
-49.044
-51.446
-54.082
-56.945
-60.018
-63.283
-66.71
-70.253
-73.864
-77.503
-81.128
-84.718
-88.245
-91.667
-94.935
-97.986
-100.761
-103.227
-105.357
-107.119
-108.52
-109.585
-110.367
-110.963
-111.452
-111.894
-112.369
-112.956
-113.756
-114.904
-116.51
-118.719
-121.742
-125.665
-130.458
-135.948
-141.693
-147.208
-152.094
-155.831
-157.851
-157.897
-156.022
-152.8
-149.433
-147.074
-146.568
-148.638
-153.811
-162.118
-172.877
-184.239
-193.274
-196.826
-192.017
-176.49
-148.258
-105.839
-48.953
20.985
101.022
186.948
274.107
358.224
434.742
498.875
546.667
575.133
582.374
568.363
533.924
479.581
406.953
318.82
218.238
109.192
-3.892
-117.724
-228.92
-332.887
-425.603
-503.727
-564.341
-606.481
-630.361
-635.792
-623.603
-596.436
-557.469
-510.603
-460.071
-408.65
-358.622
-312.757
-273.058
-240.528
-215.355
-196.425
-182.11
-171.484
-163.527
-156.806
-150.084
-142.153
-132.438
-121.375
-109.627
-97.665
-86.016
-75.232
-65.934
-58.945
-54.634
-52.837
-53.222
-55.316
-58.681
-62.967
-67.674
-72.206
-76.127
-79.147
-81.127
-82.088
-82.036
-80.973
-78.959
-76.075
-72.424
-68.122
-63.257
-57.912
-52.171
-46.113
-39.857
-33.528
-27.248
-21.147
-15.31
-9.778
-4.585
0.26
4.767
8.95
12.842
16.497
19.956
23.257
26.437
29.517
32.536
35.538
38.566
41.668
44.877
48.205
51.664
55.258
58.981
62.824
66.771
70.793
74.868
78.978
83.104
87.229
91.336
95.399
99.396
103.302
107.092
110.746
114.24
117.552
120.662
123.549
126.197
128.589
130.711
132.544
134.073
135.282
136.156
136.684
136.853
136.654
136.079
135.122
133.781
132.055
129.946
127.456
124.592
121.361
117.773
113.838
109.572
104.988
100.104
94.937
89.509
83.839
77.951
71.867
65.611
59.207
52.682
46.061
39.368
32.631
25.874
19.122
12.402
5.737
-0.85
-7.336
-13.698
-19.916
-25.97
-31.844
-37.52
-42.983
-48.222
-53.223
-57.978
-62.479
-66.719
-70.695
-74.402
-77.842
-81.013
-83.918
-86.56
-88.945
-91.078
-92.966
-94.618
-96.043
-97.252
-98.254
-99.063
-99.689
-100.146
-100.447
-100.606
-100.635
-100.549
-100.361
-100.084
-99.732
-99.318
-98.853
-98.351
-97.822
-97.277
-96.726
-96.178
-95.641
-95.121
-94.626
-94.159
-93.726
-93.33
-92.973
-92.656
-92.381
-92.148
-91.957
-91.806
-91.694
-91.618
-91.576
-91.564
-91.579
-91.617
-91.673
-91.744
-91.825
-91.911
-91.999
-92.082
-92.156
-92.216
-92.257
-92.274
-92.263
-92.218
-92.136
-92.014
-91.846
-91.631
-91.367
-91.051
-90.681
-90.256
-89.774
-89.235
-88.637
-87.98
-87.263
-86.486
-85.649
-84.753
-83.798
-82.785
-81.715
-80.589
-79.407
-78.17
-76.881
-75.539
-74.146
-72.703
-71.213
-69.679
-68.103
-66.489
-64.839
-63.158
-61.45
-59.719
-57.969
-56.205
-54.431
-52.655
-50.88
-49.115
-47.366
-45.641
-43.95
-42.304
-40.714
-39.192
-37.75
-36.401
-35.156
-34.029
-33.029
-32.165
-31.446
-30.881
-30.479
-30.252
-30.21
-30.362
-30.714
-31.274
-32.046
-33.035
-34.241
-35.654
-37.269
-39.081
-41.091
-43.313
-45.753
-48.409
-51.276
-54.342
-57.588
-60.995
-64.527
-68.128
-71.746
-75.33
-78.837
-82.246
-85.526
-88.634
-91.515
-94.097
-96.319
-98.144
-99.542
-100.499
-101.02
-101.132
-100.897
-100.423
-99.822
-99.201
-98.671
-98.328
-98.281
-98.64
-99.557
-101.246
-103.853
-107.405
-111.782
-116.646
-121.595
-126.253
-130.125
-132.606
-133.242
-131.83
-128.716
-124.875
-121.417
-119.337
-119.47
-122.426
-128.517
-137.52
-148.015
-157.445
-162.69
-160.486
-148.116
-123.37
-84.348
-30.038
38.896
120.225
210.242
304.198
397.599
485.777
563.587
626.258
669.925
691.71
690.341
665.961
618.878
550.335
463.051
360.568
247.177
127.889
7.455
-109.885
-219.425
-316.768
-398.704
-462.896
-508.17
-535.039
-544.688
-538.438
-518.795
-488.816
-451.304
-409.294
-365.533
-321.595
-278.86
-238.968
-202.635
-170.321
-142.529
-118.882
-98.877
-82.488
-69.269
-58.326
-49.211
-41.176
-33.357
-25.733
-18.116
-10.153
-2.035
5.942
13.698
20.778
26.794
31.926
35.907
38.474
39.848
40.147
39.514
38.366
36.915
35.15
33.529
32.45
32.012
32.414
33.683
35.689
38.489
42.153
46.494
51.378
56.732
62.405
68.364
74.604
81.013
87.502
94.01
100.434
106.716
112.838
118.763
124.485
130.015
135.358
140.54
145.604
150.576
155.485
160.348
165.174
169.98
174.792
179.637
184.553
189.564
194.676
199.892
205.204
210.601
216.071
221.589
227.119
232.63
238.095
243.492
248.803
254.005
259.072
263.978
268.695
273.2
277.471
281.485
285.222
288.662
291.788
294.589
297.055
299.177
300.944
302.349
303.385
304.047
304.333
304.241
303.771
302.926
301.711
300.135
298.208
295.943
293.351
290.45
287.255
283.785
280.06
276.099
271.923
267.555
263.015
258.328
253.515
248.601
243.608
238.559
233.477
228.384
223.303
218.254
213.258
208.333
203.498
198.771
194.167
189.702
185.389
181.241
177.269
173.483
169.89
166.498
163.311
160.334
157.567
155.013
152.672
150.542
148.621
146.906
145.395
144.081
142.96
142.027
141.273
140.693
140.279
140.022
139.915
139.948
140.113
140.402
140.804
141.312
141.916
142.608
143.379
144.219
145.121
146.077
147.079
148.119
149.192
150.289
151.407
152.538
153.679
154.825
155.971
157.114
158.25
159.377
160.49
161.589
162.671
163.734
164.777
165.8
166.802
167.782
168.742
169.681
170.601
171.502
172.385
173.253
174.107
174.95
175.784
176.613
177.439
178.266
179.097
179.937
180.788
181.655
182.541
183.45
184.386
185.352
186.354
187.396
188.481
189.615
190.802
192.047
193.355
194.729
196.173
197.691
199.286
200.961
202.718
204.559
206.487
208.502
210.607
212.801
215.084
217.454
219.909
222.447
225.063
227.753
230.511
233.33
236.205
239.127
242.088
245.08
248.093
251.115
254.135
257.139
260.114
263.04
265.902
268.679
271.355
273.91
276.328
278.589
280.68
282.587
284.297
285.798
287.075
288.114
288.903
289.432
289.693
289.681
289.388
288.812
287.958
286.835
285.45
283.807
281.902
279.724
277.273
274.555
271.58
268.363
264.922
261.28
257.478
253.575
249.628
245.691
241.806
238.003
234.331
230.852
227.641
224.776
222.316
220.293
218.735
217.672
217.105
217.02
217.373
218.055
218.952
219.962
220.959
221.83
222.465
222.67
222.201
220.915
218.78
215.943
212.758
209.536
206.539
204.164
202.899
203.112
204.915
207.844
210.856
213.001
213.553
211.946
207.828
201.046
191.937
181.958
173.617
169.846
173.469
186.608
211.18
247.946
297.017
358.926
431.866
515.04
607.188
701.45
792.089
871.175
929.726
968.009
986.368
985.38
968.513
932.776
875.804
799.332
704.947
597.441
482.948
365.964
250.769
142.056
44.177
-39.405
-106.013
-154.235
-184.433
-197.485
-194.363
-177.218
-148.812
-112.021
-70.114
-26.026
18.337
61.115
100.225
134.276
162.35
184.178
200.432
211.958
219.348
223.543
225.917
227.814
230.531
234.773
240.446
247.3
255.129
263.526
271.903
279.487
285.371
289.124
290.855
290.821
289.346
286.77
283.41
279.752
276.458
273.948
272.398
271.859
272.242
273.499
275.64
278.606
282.262
286.48
291.13
296.115
301.407
306.942
312.627
318.34
323.919
329.252
334.283
338.977
343.318
347.289
350.872
354.08
356.961
359.561
361.924
364.084
366.057
367.874
369.576
371.212
372.839
374.496
376.203
377.973
379.817
381.739
383.743
385.82
387.946
390.104
392.278
394.455
396.626
398.776
400.884
402.928
404.889
406.746
408.481
410.074
411.503
412.75
413.796
414.624
415.218
415.562
415.637
415.425
414.911
414.076
412.907
411.39
409.511
407.262
404.632
401.617
398.213
394.417
390.229
385.651
380.686
375.342
369.624
363.543
357.11
350.339
343.245
335.843
328.153
320.191
311.979
303.538
294.89
286.058
277.067
267.939
258.7
249.375
239.989
230.566
221.132
211.709
202.321
192.989
183.735
174.579
165.539
156.633
147.876
139.283
130.866
122.638
114.608
106.783
99.171
91.777
84.603
77.653
70.927
64.424
58.143
52.079
46.23
40.589
35.149
29.903
24.843
19.957
15.237
10.67
6.246
1.952
-2.224
-6.295
-10.272
-14.169
-17.997
-21.769
-25.496
-29.19
-32.861
-36.521
-40.178
-43.843
-47.523
-51.227
-54.962
-58.734
-62.549
-66.414
-70.333
-74.309
-78.347
-82.45
-86.619
-90.857
-95.165
-99.542
-103.989
-108.505
-113.088
-117.737
-122.449
-127.222
-132.053
-136.939
-141.876
-146.861
-151.889
-156.958
-162.063
-167.2
-172.365
-177.556
-182.769
-188.001
-193.25
-198.512
-203.784
-209.065
-214.349
-219.636
-224.922
-230.204
-235.48
-240.746
-246.002
-251.244
-256.471
-261.683
-266.877
-272.053
-277.21
-282.347
-287.463
-292.559
-297.634
-302.689
-307.724
-312.742
-317.742
-322.727
-327.699
-332.658
-337.607
-342.545
-347.474
-352.392
-357.301
-362.203
-367.098
-371.989
-376.881
-381.777
-386.683
-391.608
-396.56
-401.546
-406.573
-411.647
-416.776
-421.965
-427.222
-432.551
-437.959
-443.453
-449.041
-454.741
-460.564
-466.522
-472.625
-478.873
-485.273
-491.84
-498.587
