Name,John Breau
Date of Birth,"Dec 20, 1971"
Recorded Date,2023-05-26 17:04:15 -0500
Classification,Sinus Rhythm
Symptoms,
Software Version,1.90
Device,"Watch6,3"
Sample Rate,512 hertz


Lead,Lead I
Unit,µV

-179.841
-348.073
-453.241
-470.109
-401.617
-275.629
-136.272
-16.9
67.205
118.937
156.9
198.511
251.688
315.143
379.371
433.672
473.11
497.523
510.505
518.198
523.359
526.081
525.423
517.704
503.857
489.469
479.52
480.899
493.872
510.791
525.396
530.955
525.73
515.155
502.988
491.898
483.056
474.366
464.789
454.809
444.546
434.099
423.598
412.912
401.948
391.583
381.892
370.822
358.569
346.761
337.932
338.005
346.436
355.704
358.036
343.44
310.853
269.697
228.113
194.366
170.491
150.612
131.515
111.135
89.059
67.984
48.411
29.671
11.577
-6.794
-25.957
-45.967
-67.534
-91.256
-117.05
-144.73
-173.782
-203.26
-232.512
-260.744
-286.54
-308.44
-325.252
-336.162
-341.274
-341.616
-338.23
-332.296
-325.479
-319.701
-317.092
-319.708
-328.863
-344.672
-366.768
-394.751
-427.967
-465.51
-506.112
-547.971
-589.293
-629.207
-667.356
-703.133
-735.862
-764.791
-789.023
-808.14
-820.863
-824.335
-816.147
-795.218
-763.828
-726.886
-686.346
-640.012
-581.591
-502.309
-399.31
-277.702
-147.247
-23.206
80.198
155.264
197.015
206.747
190.885
153.463
98.529
27.974
-59.884
-163.979
-281.298
-407.143
-534.565
-657.81
-772.333
-874.567
-962.315
-1034.112
-1089.828
-1130.616
-1158.257
-1175.16
-1184.042
-1187.289
-1187.063
-1184.928
-1181.094
-1175.197
-1166.721
-1154.796
-1138.701
-1118.099
-1092.8
-1063.249
-1030.734
-996.468
-961.49
-926.795
-892.857
-859.767
-827.357
-794.82
-761.067
-725.374
-687.193
-646.156
-602.322
-555.891
-507.307
-457.444
-407.116
-356.83
-306.983
-257.795
-209.317
-161.643
-114.756
-68.464
-22.705
22.455
66.872
110.271
152.382
193.028
232.021
269.162
304.328
337.436
368.481
397.555
424.668
449.761
472.851
494.071
513.706
532.069
549.333
565.502
580.608
594.874
608.498
621.318
632.756
642.184
649.207
653.905
656.819
658.177
658.08
657.375
656.544
655.008
652.615
649.219
647.239
653.59
672.727
703.685
737.912
759.844
758.921
734.364
695.386
657.551
630.782
617.3
612.25
606.527
595.985
580.141
563.454
555.269
560.319
579.827
606.781
624.009
616.725
576.117
506.525
428.471
367.064
341.718
358.791
409.632
474.375
534.364
577.963
598.707
599.526
586.522
564.575
541.894
525.287
516.894
518.005
526.159
534.264
538.915
537.979
529.718
517.605
503.599
488.141
472.903
457.145
440.237
422.808
404.906
386.852
369.163
351.907
335.097
318.866
303.263
288.305
274.048
260.539
247.804
235.866
224.745
214.38
204.689
195.604
187.037
178.934
171.263
163.98
157.074
150.567
144.516
138.995
134.086
129.842
126.303
123.523
121.561
120.505
120.459
121.509
123.754
127.256
132.04
138.11
145.407
153.815
163.206
173.395
184.109
195.191
206.628
218.434
230.738
243.558
256.631
269.868
283.587
297.891
312.418
326.678
339.811
351.903
364.939
380.413
397.643
413.064
420.862
417.136
404.701
394.009
398.522
428.31
483.48
551.223
612.456
651.546
662.72
653.377
638.768
631.186
635.458
648.474
662.792
674.151
682.71
691.014
701.93
715.948
731.944
748.52
764.405
778.428
789.054
795.295
796.943
793.969
787.009
775.731
758.029
733.929
704.258
669.797
633.467
592.564
539.567
467.716
368.884
242.621
97.12
-59.185
-216.769
-370.979
-523.067
-672.957
-819.894
-961.22
-1092.722
-1212.836
-1321.441
-1418.769
-1505.667
-1582.401
-1649.382
-1707.741
-1756.914
-1794.451
-1818.253
-1827.583
-1825.372
-1817.047
-1804.656
-1784.783
-1749.172
-1688.473
-1598.105
-1480.7
-1345.433
-1203.927
-1068.652
-951.441
-858.507
-791.904
-748.034
-716.495
-689.267
-661.688
-632.315
-605.403
-583.875
-567.575
-555.581
-545.09
-534.063
-522.672
-511.553
-501.334
-492.334
-484.336
-476.971
-470.307
-464.739
-460.285
-456.809
-454.239
-452.445
-451.428
-451.248
-451.65
-451.965
-451.79
-451.126
-449.781
-447.761
-445.596
-442.305
-436.988
-431.314
-425.552
-422.74
-427.751
-436.936
-446.282
-449.764
-437.343
-412.902
-385.418
-362.755
-356.714
-365.711
-379.556
-391.829
-394.705
-387.778
-378.047
-368.987
-363.229
-361.771
-362.215
-363.622
-366.147
-369.368
-373.249
-377.544
-381.326
-383.695
-384.127
-382.329
-378.407
-373.041
-367.055
-361.277
-356.75
-354.776
-355.236
-356.322
-356.312
-352.824
-346.419
-340.97
-336.091
-328.182
-308.869
-265.044
-191.018
-88.204
37.675
174.523
311.918
441.068
550.58
632.216
681.902
700.569
695.871
675.407
642.587
596.399
532.509
448.797
347.254
232.208
109.64
-15.195
-138.308
-255.324
-361.678
-454.455
-532.645
-594.033
-636.64
-657.882
-652.86
-624.322
-581.17
-532.448
-489.894
-456.777
-426.966
-395.985
-358.945
-315.806
-273.043
-234.246
-201.138
-173.712
-149.31
-126.377
-104.119
-81.543
-58.024
-33.265
-7.305
19.511
46.77
74.026
100.722
126.075
149.129
169.364
186.76
201.512
213.992
224.545
233.436
241.047
247.913
254.463
260.97
267.612
274.462
281.619
289.26
297.55
306.564
316.329
326.827
338.009
349.848
362.311
375.339
388.863
402.796
417.03
431.479
446.069
460.71
475.304
489.727
503.83
517.517
530.736
543.461
555.692
567.429
578.671
589.436
599.759
609.671
619.2
628.364
637.172
645.643
653.81
661.711
669.394
676.89
684.206
691.347
698.308
705.081
711.656
718.01
724.114
729.943
735.48
740.712
745.629
750.219
754.467
758.355
761.872
765.004
767.745
770.087
772.027
773.562
774.695
775.431
775.781
775.751
775.352
774.594
773.486
772.042
770.276
768.204
765.841
763.205
760.318
757.201
753.879
750.376
746.716
742.926
739.034
735.065
731.048
727.009
722.975
718.973
715.03
711.172
707.425
703.812
700.357
697.083
694.011
691.161
688.55
686.196
684.112
682.311
680.805
679.604
678.716
678.147
677.902
677.986
678.399
679.143
680.216
681.614
683.333
685.367
687.709
690.35
693.281
696.492
699.97
703.703
707.68
711.885
716.304
720.922
725.722
730.69
735.808
741.058
746.425
751.891
757.44
763.057
768.726
774.432
780.159
785.894
791.623
797.331
803.005
808.632
814.198
819.691
825.101
830.416
835.628
840.726
845.702
850.547
855.256
859.821
864.234
868.49
872.584
876.512
880.272
883.86
887.276
890.519
893.592
896.498
899.243
901.829
904.261
906.546
908.692
910.705
912.594
914.361
916.015
917.566
919.027
920.415
921.742
923.024
924.276
925.515
926.762
928.035
929.342
930.69
932.081
933.531
935.065
936.716
938.507
940.462
942.6
944.946
947.533
950.378
953.479
956.821
960.384
964.168
968.197
972.502
977.106
982.011
987.19
992.602
998.215
1003.977
1009.811
1015.614
1021.267
1026.682
1031.829
1036.703
1041.295
1045.559
1049.408
1052.753
1055.526
1057.679
1059.188
1060.037
1060.207
1059.738
1058.751
1057.419
1055.943
1054.46
1053.039
1051.748
1050.606
1049.606
1048.67
1047.56
1046.002
1043.765
1040.566
1036.089
1030.157
1022.705
1013.958
1004.481
994.768
985.246
976.269
968.061
960.651
953.493
945.085
933.276
915.793
890.245
854.808
807.924
747.788
673.909
587.429
489.983
385.374
278.268
170.861
66.694
-33.026
-130.416
-222.083
-304.25
-369.919
-408.46
-420.606
-416.398
-413.513
-432.976
-483.593
-558.196
-638.893
-706.726
-750.367
-772.805
-787.002
-803.862
-830.871
-867.865
-908.054
-947.677
-984.876
-1019.91
-1055.896
-1093.799
-1132.936
-1172.563
-1211.248
-1248.442
-1284.498
-1319.085
-1351.74
-1382.574
-1412.143
-1441.784
-1473.426
-1508.24
-1546.655
-1589.498
-1635.952
-1682.947
-1727.3
-1765.048
-1796.286
-1826.461
-1858.525
-1892.005
-1915.906
-1910.134
-1860.043
-1758.23
-1615.955
-1461.218
-1322.418
-1226.959
-1185.453
-1190.392
-1228.488
-1281.118
-1338.42
-1401.652
-1475.522
-1567.482
-1679.332
-1806.703
-1943.317
-2081.615
-2216.437
-2344.467
-2462.112
-2566.238
-2653.954
-2722.91
-2772.599
-2803.835
-2817.637
-2815.558
-2799.943
-2773.456
-2739.092
-2699.906
-2658.006
-2614.661
-2571.184
-2528.982
-2488.996
-2451.914
-2418.054
-2387.06
-2358.747
-2333.276
-2310.427
-2289.469
-2269.642
-2250.02
-2229.668
-2208.373
-2186.07
-2162.544
-2137.887
-2112.47
-2086.74
-2061.448
-2037.451
-2015.069
-1994.373
-1975.41
-1958.027
-1942.061
-1927.326
-1913.391
-1899.764
-1886.191
-1872.571
-1858.914
-1845.319
-1831.794
-1818.321
-1804.959
-1791.758
-1778.758
-1765.969
-1753.324
-1740.763
-1728.301
-1715.987
-1703.926
-1692.236
-1680.969
-1670.157
-1659.814
-1649.937
-1640.535
-1631.591
-1623.034
-1614.807
-1606.85
-1599.09
-1591.481
-1583.932
-1576.269
-1568.321
-1559.887
-1550.739
-1540.708
-1529.644
-1517.407
-1503.912
-1489.088
-1472.896
-1455.356
-1436.498
-1416.366
-1395.039
-1372.593
-1349.141
-1324.849
-1299.872
-1274.368
-1248.523
-1222.48
-1196.359
-1170.258
-1144.225
-1118.297
-1092.498
-1066.82
-1041.229
-1015.663
-990.05
-964.33
-938.444
-912.342
-885.998
-859.391
-832.503
-805.361
-778.023
-750.583
-723.172
-695.888
-668.828
-642.112
-615.888
-590.356
-565.696
-542.054
-519.552
-498.277
-478.303
-459.698
-442.496
-426.665
-412.141
-398.83
-386.621
-375.472
-365.334
-356.118
-347.698
-339.885
-332.507
-325.416
-318.471
-311.526
-304.412
-296.965
-289.067
-280.668
-271.736
-262.245
-252.156
-241.359
-229.765
-217.336
-204.065
-189.988
-175.139
-159.552
-143.284
-126.443
-109.183
-91.639
-73.905
-56.028
-38.045
-20.012
-2.006
15.858
33.49
50.83
67.832
84.458
100.669
116.438
131.771
146.721
161.371
175.779
189.97
203.947
217.701
231.237
244.573
257.724
270.685
283.446
295.997
308.334
320.457
332.357
344.002
355.344
366.325
376.904
387.058
396.771
406.036
414.843
423.186
431.07
438.512
445.528
452.13
458.328
464.132
469.555
474.62
479.353
483.78
487.925
491.81
495.457
498.888
502.126
505.19
508.095
510.856
513.489
516.012
518.443
520.799
523.099
525.358
527.592
529.819
532.053
534.307
536.594
538.923
541.306
543.75
546.263
548.85
551.516
554.264
557.096
560.014
563.017
566.105
569.274
572.523
575.847
579.244
582.705
586.226
589.797
593.412
597.06
600.733
604.419
608.106
611.785
615.443
619.066
622.643
626.158
629.597
632.945
636.186
639.301
642.272
645.08
647.706
650.133
652.342
654.316
656.034
657.48
658.638
659.497
660.044
660.265
660.146
659.676
658.847
657.657
656.104
654.184
651.895
649.235
646.214
642.846
639.147
635.128
630.789
626.13
621.164
615.906
610.376
604.599
598.595
592.391
586.039
579.595
573.125
566.697
560.352
554.128
548.058
542.166
536.513
531.174
526.213
521.695
517.655
514.066
510.933
508.28
506.024
504.024
502.003
499.516
496.322
492.402
487.773
482.446
476.402
469.644
462.622
456.328
451.492
448.386
446.951
446.923
448.309
451.198
454.963
457.977
458.597
455.883
449.399
439.152
425.244
407.638
388.098
371.102
359.852
356.138
360.133
368.704
384.234
414.191
464.993
543.707
648.169
766.656
888.381
1001.821
1100.374
1184.141
1251.278
1299.842
1327.589
1330.534
1307.493
1259.317
1187.45
1095.099
986.205
864.762
735.737
604.241
474.61
351.371
238.981
140.974
60.167
-1.524
-43.961
-67.878
-74.065
-64.459
-41.835
-9.188
29.954
72.197
115.293
157.218
195.701
229.225
256.879
278.397
294.577
306.466
314.651
320.012
323.86
327.426
331.931
337.96
345.229
353.29
361.826
370.383
378.389
385.122
389.668
391.616
391.121
388.509
384.228
378.689
372.24
365.379
358.768
352.894
348.007
344.209
341.439
339.645
338.836
338.962
339.914
341.563
343.772
346.418
349.423
352.713
356.188
359.73
363.186
366.402
369.282
371.771
373.841
375.484
376.686
377.449
377.808
377.816
377.53
377.001
376.265
375.353
374.306
373.179
372.029
370.919
369.892
368.973
368.182
367.531
367.032
366.688
366.492
366.423
366.467
366.612
366.848
367.166
367.553
367.989
368.455
368.93
369.394
369.827
370.21
370.52
370.737
370.841
370.815
370.643
370.307
369.788
369.069
368.13
366.956
365.53
363.838
361.866
359.603
357.039
354.166
350.979
347.476
343.652
339.51
335.05
330.277
325.196
319.815
314.144
308.193
301.976
295.507
288.801
281.876
274.75
267.443
259.974
252.365
244.637
236.812
228.913
220.962
212.98
204.989
197.011
189.066
181.173
173.353
165.624
158.002
150.504
143.146
135.941
128.902
122.04
115.366
108.889
102.615
96.553
90.706
85.08
79.677
74.498
69.545
64.816
60.309
56.023
51.954
48.095
44.442
40.988
37.727
34.649
31.748
29.014
26.439
24.013
21.727
19.573
17.54
15.618
13.8
12.074
10.433
8.867
7.367
5.926
4.534
3.184
1.869
0.582
-0.685
-1.939
-3.184
-4.428
-5.676
-6.931
-8.199
-9.483
-10.786
-12.111
-13.46
-14.834
-16.233
-17.66
-19.113
-20.591
-22.095
-23.622
-25.17
-26.737
-28.321
-29.918
-31.525
-33.138
-34.753
-36.366
-37.973
-39.568
-41.147
-42.705
-44.235
-45.733
-47.192
-48.605
-49.967
-51.27
-52.509
-53.677
-54.768
-55.777
-56.698
-57.525
-58.254
-58.881
-59.401
-59.812
-60.109
-60.292
-60.359
-60.311
-60.148
-59.87
-59.482
-58.987
-58.388
-57.693
-56.905
-56.032
-55.082
-54.066
-52.993
-51.874
-50.724
-49.558
-48.394
-47.25
-46.146
-45.1
-44.133
-43.266
-42.522
-41.924
-41.49
-41.24
-41.192
-41.367
-41.787
-42.471
-43.433
-44.684
-46.233
-48.091
-50.27
-52.778
-55.612
-58.766
-62.233
-66.008
-70.097
-74.506
-79.222
-84.232
-89.518
-95.055
-100.827
-106.808
-112.948
-119.197
-125.497
-131.785
-138.029
-144.194
-150.242
-156.146
-161.842
-167.252
-172.325
-177
-181.236
-185.048
-188.43
-191.351
-193.886
-196.148
-198.351
-200.874
-203.926
-207.515
-211.629
-216.238
-221.329
-226.882
-232.476
-237.18
-240.269
-241.418
-240.624
-238.139
-234.002
-228.199
-221.353
-214.97
-210.759
-209.854
-212.607
-218.998
-228.933
-242.072
-257.697
-272.595
-282.561
-285.574
-279.199
-263.651
-239.961
-203.36
-150.96
-80.353
10.349
113.552
221.541
327.399
422.545
504.516
571.049
618.669
646.046
650.582
630.807
587.473
521.947
437.179
337.189
226.253
109.297
-8.747
-123.455
-230.425
-325.772
-406.554
-470.785
-517.718
-547.874
-562.548
-563.301
-552.193
-531.837
-505.009
-474.315
-441.811
-408.892
-376.521
-345.826
-318.003
-293.429
-271.833
-252.729
-235.617
-220.257
-206.554
-193.904
-181.17
-167.806
-153.925
-139.888
-126.268
-113.432
-101.481
-90.817
-82.245
-76.223
-72.802
-71.804
-72.722
-75.097
-78.692
-83.145
-87.939
-92.65
-96.883
-100.332
-102.916
-104.593
-105.302
-105.053
-103.861
-101.754
-98.834
-95.211
-90.987
-86.282
-81.179
-75.746
-70.086
-64.318
-58.582
-53.029
-47.753
-42.799
-38.207
-33.993
-30.172
-26.745
-23.671
-20.891
-18.354
-16.011
-13.831
-11.79
-9.848
-7.955
-6.06
-4.105
-2.054
0.114
2.416
4.867
7.472
10.231
13.131
16.145
19.257
22.451
25.714
29.033
32.391
35.767
39.14
42.489
45.792
49.031
52.184
55.229
58.148
60.92
63.529
65.961
68.199
70.226
72.025
73.58
74.876
75.898
76.633
77.07
77.197
77.008
76.495
75.657
74.489
72.992
71.168
69.021
66.555
63.778
60.699
57.33
53.683
49.771
45.612
41.219
36.613
31.812
26.836
21.706
16.443
11.07
5.609
0.083
-5.486
-11.073
-16.658
-22.217
-27.729
-33.172
-38.527
-43.772
-48.89
-53.862
-58.671
-63.302
-67.74
-71.974
-75.99
-79.779
-83.333
-86.643
-89.704
-92.511
-95.062
-97.354
-99.386
-101.16
-102.678
-103.943
-104.96
-105.736
-106.275
-106.588
-106.683
-106.568
-106.256
-105.757
-105.083
-104.245
-103.257
-102.132
-100.883
-99.523
-98.066
-96.525
-94.913
-93.245
-91.532
-89.787
-88.023
-86.251
-84.483
-82.728
-80.998
-79.302
-77.648
-76.044
-74.496
-73.012
-71.596
-70.253
-68.985
-67.796
-66.687
-65.658
-64.709
-63.84
-63.046
-62.327
-61.677
-61.093
-60.57
-60.101
-59.68
-59.301
-58.957
-58.64
-58.342
-58.056
-57.773
-57.485
-57.183
-56.859
-56.504
-56.109
-55.666
-55.166
-54.603
-53.968
-53.257
-52.462
-51.577
-50.6
-49.524
-48.349
-47.071
-45.688
-44.201
-42.609
-40.916
-39.124
-37.236
-35.258
-33.195
-31.055
-28.846
-26.575
-24.252
-21.888
-19.492
-17.076
-14.653
-12.237
-9.841
-7.481
-5.177
-2.947
-0.809
1.217
3.112
4.857
6.433
7.824
9.018
10.002
10.763
11.289
11.566
11.584
11.335
10.81
10.007
8.92
7.549
5.898
3.978
1.799
-0.631
-3.312
-6.253
-9.456
-12.917
-16.625
-20.567
-24.723
-29.067
-33.558
-38.134
-42.733
-47.295
-51.77
-56.118
-60.293
-64.233
-67.866
-71.108
-73.88
-76.139
-77.848
-78.981
-79.541
-79.551
-79.062
-78.191
-77.069
-75.829
-74.607
-73.519
-72.665
-72.206
-72.378
-73.386
-75.351
-78.211
-81.716
-85.608
-89.642
-93.423
-96.378
-97.926
-97.69
-95.863
-93.176
-90.289
-87.946
-87.121
-88.775
-93.833
-101.758
-109.965
-115.607
-116.735
-113.99
-109.492
-102.389
-88.112
-57.961
-2.879
80.519
190.777
320.051
456.079
586.306
696.249
774.806
817.813
827.12
811.204
778.699
733.542
675.326
600.848
509.054
402.639
287.123
169.353
54.372
-54.079
-152.618
-238.863
-310.677
-366.522
-406.441
-431.178
-441.538
-438.879
-425.137
-402.651
-374.161
-342.204
-308.491
-274.394
-241.533
-211.661
-186.095
-165.31
-148.931
-136.233
-126.776
-120.16
-115.536
-111.481
-106.502
-99.808
-91.412
-81.757
-71.254
-60.246
-49.179
-38.858
-30.308
-24.118
-20.388
-18.915
-19.294
-21.158
-24.231
-28.11
-32.257
-36.271
-39.827
-42.699
-44.851
-46.256
-46.875
-46.724
-45.829
-44.213
-41.954
-39.129
-35.802
-32.059
-27.955
-23.532
-18.872
-14.066
-9.231
-4.501
0.048
4.374
8.44
12.231
15.733
18.943
21.896
24.645
27.234
29.701
32.073
34.365
36.614
38.86
41.148
43.529
46.038
48.691
51.506
54.495
57.659
60.998
64.496
68.127
71.87
75.706
79.62
83.595
87.613
91.649
95.679
99.679
103.624
107.49
111.253
114.888
118.371
121.682
124.799
127.706
130.386
132.82
134.99
136.879
138.471
139.753
140.713
141.338
141.62
141.553
141.134
140.361
139.235
137.76
135.941
133.787
131.307
128.514
125.421
122.044
118.399
114.507
110.387
106.059
101.547
96.873
92.061
87.136
82.121
77.041
71.921
66.785
61.655
56.554
51.505
46.529
41.646
36.874
32.233
27.737
23.404
19.244
15.271
11.493
7.919
4.554
1.402
-1.534
-4.254
-6.76
-9.053
-11.139
-13.022
-14.711
-16.214
-17.541
-18.702
-19.709
-20.574
-21.311
-21.933
-22.454
-22.888
-23.248
-23.549
-23.805
-24.029
-24.234
-24.435
-24.642
-24.869
-25.126
-25.423
-25.77
-26.176
-26.647
-27.191
-27.812
-28.516
-29.304
-30.18
-31.144
-32.195
-33.332
-34.553
-35.854
-37.231
-38.677
-40.187
-41.754
-43.37
-45.028
-46.719
-48.435
-50.166
-51.904
-53.64
-55.363
-57.066
-58.737
-60.37
-61.954
-63.482
-64.947
-66.339
-67.654
-68.883
-70.021
-71.062
-72.001
-72.832
-73.552
-74.156
-74.643
-75.01
-75.257
-75.384
-75.391
-75.28
-75.052
-74.71
-74.258
-73.698
-73.035
-72.273
-71.417
-70.473
-69.446
-68.344
-67.173
-65.939
-64.651
-63.315
-61.94
-60.531
-59.097
-57.646
-56.186
-54.725
-53.273
-51.839
-50.436
-49.075
-47.772
-46.537
-45.386
-44.33
-43.383
-42.555
-41.859
-41.303
-40.894
-40.64
-40.55
-40.632
-40.896
-41.35
-41.998
-42.846
-43.896
-45.15
-46.607
-48.259
-50.1
-52.127
-54.337
-56.739
-59.338
-62.134
-65.122
-68.293
-71.63
-75.11
-78.699
-82.343
-85.991
-89.595
-93.104
-96.49
-99.711
-102.718
-105.466
-107.891
-109.939
-111.578
-112.761
-113.46
-113.686
-113.462
-112.859
-112.001
-110.963
-109.83
-108.791
-107.987
-107.577
-107.752
-108.564
-110.113
-112.623
-116.172
-120.53
-125.404
-130.316
-134.705
-138.324
-140.736
-141.359
-140.028
-137.047
-132.974
-128.84
-125.966
-125.163
-127.352
-132.294
-137.762
-141.706
-143.054
-143.665
-146.961
-152.93
-155.451
-142.022
-100.778
-26.268
77.506
197.905
323.617
444.437
552.347
644.138
713.15
756.565
777.312
776.223
757.593
723.175
669.108
595.19
502.736
394.612
277.667
157.795
39.067
-74.005
-177.308
-267.569
-341.852
-398.242
-436.787
-458.442
-464.23
-456.304
-437.597
-410.946
-379.491
-346.224
-312.876
-280.702
-251.25
-225.318
-203.202
-185.18
-170.689
-158.823
-149.328
-141.913
-135.795
-130.424
-125.123
-119.03
-112.128
-104.749
-96.948
-88.929
-81.016
-73.427
-66.7
-61.55
-58.175
-56.484
-56.31
-57.317
-59.262
-61.962
-65.047
-68.021
-70.487
-72.207
-73.096
-73.201
-72.561
-71.175
-69.069
-66.32
-63.036
-59.325
-55.28
-50.955
-46.376
-41.598
-36.7
-31.791
-27.011
-22.452
-18.158
-14.157
-10.46
-7.076
-4.015
-1.257
1.248
3.548
5.683
7.684
9.561
11.343
13.068
14.784
16.547
18.398
20.359
22.449
24.683
27.071
29.623
32.333
35.183
38.157
41.245
44.438
47.731
51.111
54.56
58.06
61.593
65.14
68.682
72.2
75.674
79.083
82.409
85.635
88.746
91.726
94.558
97.224
99.707
101.992
104.063
105.907
107.51
108.859
109.945
110.76
111.296
111.55
111.518
111.199
110.593
109.703
108.532
107.085
105.372
103.4
101.182
98.728
96.054
93.173
90.101
86.857
83.458
79.923
76.271
72.521
68.692
64.805
60.878
56.931
52.983
49.052
45.155
41.309
37.532
33.838
30.243
26.759
23.398
20.173
17.094
14.168
11.405
8.809
6.387
4.141
2.075
0.19
-1.514
-3.04
-4.388
-5.564
-6.571
-7.416
-8.105
-8.646
-9.047
-9.317
-9.465
-9.5
-9.432
-9.272
-9.029
-8.714
-8.337
-7.908
-7.438
-6.935
-6.409
-5.869
-5.323
-4.781
-4.248
-3.732
-3.239
-2.775
-2.345
-1.954
-1.604
-1.298
-1.038
-0.825
-0.658
-0.538
-0.462
-0.428
-0.433
-0.473
-0.545
-0.643
-0.761
-0.895
-1.036
-1.18
-1.317
-1.441
-1.543
-1.616
-1.653
-1.644
-1.583
-1.461
-1.272
-1.008
-0.662
-0.227
0.304
0.935
1.674
2.526
3.494
4.582
5.794
7.131
8.594
10.185
11.904
13.749
15.718
17.81
20.021
22.348
24.786
27.327
29.966
32.693
35.5
38.377
41.312
44.296
47.315
50.357
53.41
56.459
59.491
62.491
65.442
68.329
71.132
73.833
76.412
78.851
81.131
83.232
85.133
86.814
88.258
89.452
90.384
91.038
91.402
91.462
91.211
90.644
89.757
88.547
87.01
85.141
82.946
80.441
77.642
74.563
71.214
67.587
63.686
59.521
55.106
50.454
45.579
40.491
35.22
29.817
24.343
18.867
13.439
8.085
2.826
-2.318
-7.299
-12.032
-16.434
-20.434
-23.993
-27.104
-29.746
-31.861
-33.473
-34.716
-35.857
-37.299
-39.283
-41.819
-44.867
-48.428
-52.538
-57.215
-62.101
-66.342
-69.288
-70.722
-70.743
-69.63
-67.416
-64.034
-60.052
-56.891
-55.968
-58.435
-64.847
-75.133
-89.653
-107.64
-126.466
-143.229
-154.307
-158.894
-160.248
-158.833
-153.523
-138.705
-101.584
-35.214
63.464
191.819
333.798
472.917
592.004
675.803
722.67
738.196
732.494
716.108
691.815
656.245
603.632
530.695
438.938
333.077
219.641
103.862
-10.59
-119.564
-219.101
-305.705
-376.133
-428.318
-461.681
-476.287
-472.947
-454.063
-422.88
-382.817
-337.664
-290.993
-245.643
-204.356
-169.414
-141.596
-120.662
-105.897
-95.931
-89.207
-84.367
-79.635
-73.236
-64.408
-53.106
-39.71
-25.056
-10.009
4.714
18.101
29.054
37.029
41.87
43.749
43.166
40.611
36.507
31.385
25.838
20.307
15.162
10.675
6.937
4.021
1.98
0.808
0.485
0.986
2.251
4.2
6.756
9.819
13.293
17.104
21.157
25.344
29.532
33.582
37.397
40.921
44.125
46.992
49.511
51.682
53.538
55.134
56.52
57.745
58.845
59.846
60.787
61.716
62.681
63.738
64.924
66.258
67.756
69.428
71.277
73.304
75.493
77.819
80.261
82.803
85.428
88.125
90.873
93.65
96.434
99.2
101.928
104.594
107.175
109.65
111.995
114.191
116.219
118.062
119.704
121.126
122.312
123.245
123.91
124.295
124.386
124.175
123.652
122.813
121.655
120.175
118.377
116.263
113.837
111.107
108.081
104.771
101.186
97.343
93.254
88.937
84.41
79.69
74.798
69.754
64.58
59.298
53.931
48.5
43.031
37.545
32.065
26.613
21.212
15.882
10.643
5.514
0.512
-4.346
-9.044
-13.57
-17.91
-22.055
-25.996
-29.724
-33.234
-36.521
-39.582
-42.415
-45.019
-47.395
-49.542
-51.466
-53.168
-54.654
-55.929
-57.001
-57.877
-58.565
-59.074
-59.417
-59.601
-59.64
-59.545
-59.326
-58.998
-58.571
-58.057
-57.468
-56.816
-56.111
-55.365
-54.587
-53.787
-52.975
-52.157
-51.343
-50.538
-49.75
-48.984
-48.244
-47.536
-46.863
-46.227
-45.633
-45.08
-44.572
-44.106
-43.685
-43.306
-42.967
-42.665
-42.398
-42.16
-41.947
-41.753
-41.573
-41.399
-41.224
-41.042
-40.846
-40.629
-40.382
-40.1
-39.775
-39.4
-38.97
-38.477
-37.915
-37.28
-36.566
-35.769
-34.884
-33.91
-32.844
-31.682
-30.424
-29.069
-27.618
-26.071
-24.429
-22.696
-20.875
-18.97
-16.988
-14.936
-12.823
-10.657
-8.45
-6.213
-3.959
-1.7
0.55
2.777
4.967
7.103
9.171
11.154
13.036
14.799
16.423
17.891
19.183
20.28
21.164
21.819
22.227
22.375
22.252
21.847
21.15
20.153
18.845
17.22
15.273
13.002
10.407
7.49
4.255
0.715
-3.115
-7.217
-11.579
-16.19
-21.051
-26.155
-31.488
-37.034
-42.774
-48.683
-54.733
-60.883
-67.074
-73.249
-79.352
-85.335
-91.163
-96.788
-102.154
-107.194
-111.833
-116.003
-119.659
-122.768
-125.3
-127.254
-128.639
-129.491
-129.896
-129.962
-129.803
-129.537
-129.267
-129.095
-129.178
-129.742
-130.988
-133.014
-135.736
-138.927
-142.351
-145.759
-148.802
-150.971
-151.768
-150.952
-148.85
-146.209
-143.685
-142.142
-142.592
-145.756
-152.427
-162.003
-171.558
-179.237
-184.035
-185.401
-185.225
-180.613
-163.721
-128.637
-69.037
15.049
114.201
221.088
327.838
425.48
511.427
580.235
625.564
648.504
648.224
625.834
585.69
526.627
449.359
357.192
252.355
140.328
26.832
-84.539
-189.91
-285.954
-370.242
-440.534
-495.333
-534.328
-558.063
-567.304
-563.166
-547.191
-521.27
-487.674
-448.858
-407.07
-363.963
-321.219
-280.674
-243.832
-211.874
-185.301
-163.837
-146.953
-134.232
-124.922
-117.862
-111.843
-105.62
-98.5
-90.495
-81.781
-72.555
-63.196
-54.252
-46.442
-40.581
-37.032
-35.668
-36.218
-38.318
-41.587
-45.642
-49.927
-53.795
-56.838
-58.876
-59.861
-59.862
-58.914
-57.014
-54.239
-50.721
-46.588
-41.968
-36.951
-31.585
-25.956
-20.184
-14.418
-8.824
-3.51
1.468
6.078
10.308
14.147
17.593
20.678
23.456
25.978
28.295
30.444
32.451
34.363
36.231
38.118
40.09
42.194
44.455
46.893
49.522
52.347
55.371
58.584
61.96
65.483
69.137
72.91
76.79
80.761
84.8
88.884
92.989
97.092
101.17
105.199
109.155
113.014
116.755
120.355
123.796
127.058
130.118
132.954
135.546
137.872
139.914
141.652
143.07
144.153
144.889
145.268
145.282
144.925
144.195
143.091
141.613
139.765
137.552
134.983
132.065
128.812
125.237
121.354
117.181
112.735
108.037
103.108
97.971
92.647
87.162
81.539
75.803
69.979
64.094
58.17
52.234
46.308
40.418
34.585
28.832
23.179
17.644
12.247
7.003
1.926
-2.972
-7.677
-12.183
-16.48
-20.562
-24.426
-28.069
-31.488
-34.686
-37.664
-40.424
-42.973
-45.316
-47.461
-49.414
-51.187
-52.789
-54.231
-55.525
-56.682
-57.716
-58.639
-59.464
-60.206
-60.876
-61.489
-62.057
-62.591
-63.104
-63.606
-64.109
-64.621
-65.15
-65.706
-66.295
-66.923
-67.594
-68.312
-69.081
-69.901
-70.774
-71.699
-72.675
-73.699
-74.77
-75.883
-77.034
-78.218
-79.428
-80.659
-81.903
-83.153
-84.4
-85.636
-86.852
-88.04
-89.191
-90.295
-91.345
-92.332
-93.248
-94.084
-94.833
-95.488
-96.041
-96.484
-96.813
-97.022
-97.105
-97.06
-96.882
-96.57
-96.122
-95.535
-94.812
-93.95
-92.952
-91.819
-90.552
-89.156
-87.634
-85.992
-84.234
-82.368
-80.401
-78.34
-76.195
-73.974
-71.686
-69.341
-66.95
-64.523
-62.07
-59.605
-57.14
-54.689
-52.266
-49.888
-47.571
-45.329
-43.18
-41.138
-39.22
-37.438
-35.806
-34.332
-33.03
-31.91
-30.983
-30.262
-29.757
-29.475
-29.425
-29.614
-30.046
-30.723
-31.639
-32.789
-34.168
-35.775
-37.616
-39.696
-42.01
-44.555
-47.321
-50.29
-53.44
-56.736
-60.127
-63.56
-66.983
-70.347
-73.619
-76.762
-79.73
-82.473
-84.929
-87.042
-88.774
-90.09
-90.963
-91.395
-91.414
-91.084
-90.512
-89.796
-89.031
-88.328
-87.793
-87.54
-87.677
-88.301
-89.535
-91.549
-94.451
-98.253
-102.819
-107.843
-113.002
-117.94
-122.16
-125.093
-126.279
-125.501
-123.063
-119.591
-115.575
-111.727
-108.952
-107.831
-108.91
-111.302
-111.929
-109.073
-101.897
-90.805
-79.017
-64.673
-41.935
-4.105
57.843
144.861
250.289
363.511
468.718
554.982
616.374
651.823
667.031
665.718
650.576
622.224
576.872
513.562
433.579
339.596
237.53
132.684
28.711
-70.783
-162.661
-244.175
-312.501
-365.575
-403.108
-425.863
-434.875
-431.649
-417.918
-395.632
-367.352
-335.726
-302.449
-268.517
-234.701
-201.711
-170.454
-141.763
-115.968
-92.901
-72.536
-55.076
-40.732
-29.454
-20.724
-13.754
-7.76
-2.404
2.445
6.979
11.363
15.619
19.523
22.649
24.464
24.79
23.771
21.592
18.522
14.869
10.985
7.303
4.304
2.271
1.274
1.327
2.357
4.294
7.09
10.633
14.762
19.342
24.265
29.43
34.762
40.149
45.429
50.487
55.243
59.65
63.703
67.401
70.737
73.733
76.432
78.882
81.132
83.225
85.19
87.068
88.906
90.76
92.693
94.754
96.973
99.373
101.966
104.757
107.754
110.948
114.32
117.856
121.541
125.364
129.316
133.385
137.548
141.785
146.073
150.39
154.715
159.025
163.298
167.512
171.646
175.68
179.596
183.377
187
190.445
193.692
196.721
199.515
202.055
204.326
206.314
208.006
209.393
210.468
211.224
211.657
211.764
211.545
211.001
210.136
208.953
207.46
205.666
203.582
201.221
198.595
195.721
192.615
189.295
185.78
182.089
178.242
174.26
170.164
165.975
161.715
157.404
153.065
148.717
144.38
140.074
135.816
131.624
127.514
123.501
119.598
115.818
112.173
108.673
105.328
102.146
99.133
96.295
93.638
91.163
88.873
86.769
84.851
83.117
81.565
80.193
78.998
77.973
77.115
76.418
75.875
75.479
75.224
75.1
75.101
75.219
75.444
75.77
76.188
76.691
77.27
77.919
78.628
79.392
80.202
81.051
81.931
82.836
83.757
84.689
85.625
86.558
87.483
88.392
89.281
90.144
90.974
91.767
92.518
93.219
93.868
94.459
94.987
95.45
95.842
96.161
96.402
96.563
96.64
96.632
96.534
96.344
96.061
95.682
95.206
94.633
93.962
93.193
92.328
91.368
90.316
89.172
87.94
86.623
85.225
83.749
82.201
80.586
78.908
77.173
75.388
73.56
71.696
69.801
67.883
65.948
64.003
62.055
60.11
58.174
56.254
54.354
52.481
50.641
48.837
47.073
45.353
43.678
42.05
40.469
38.931
37.432
35.969
34.536
33.127
31.736
30.356
28.98
27.604
26.224
24.835
23.429
21.997
20.53
19.022
17.466
15.856
14.186
12.45
10.646
8.779
6.85
4.86
2.8
0.654
-1.589
-3.932
-6.377
-8.916
-11.541
-14.24
-16.99
-19.748
-22.477
-25.138
-27.705
-30.167
-32.495
-34.652
-36.592
-38.247
-39.576
-40.558
-41.169
-41.403
-41.28
-40.827
-40.111
-39.23
-38.265
-37.312
-36.466
-35.816
-35.486
-35.588
-36.271
-37.753
-40.144
-43.428
-47.464
-51.887
-56.284
-60.329
-63.585
-65.514
-65.853
-64.603
-62.241
-59.837
-58.429
-58.786
-61.542
-67.12
-75.536
-86.229
-97.595
-107.046
-111.746
-109.028
-96.723
-73.058
-36.663
12.843
74.439
145.748
223.191
302.68
380.317
451.883
512.964
559.734
588.959
598.384
587.412
556.313
505.652
437.093
353.248
257.266
153.391
46.282
-60.226
-162.478
-256.652
-339.549
-408.507
-461.542
-498.433
-520.17
-527.621
-521.969
-505.085
-479.065
-446.565
-410.491
-372.726
-334.436
-297.189
-262.663
-232.259
-207.17
-187.611
-172.984
-162.997
-157.451
-155.565
-156.14
-157.71
-158.691
-158.313
-156.557
-153.353
-148.712
-142.914
-136.401
-129.95
-124.52
-120.508
-117.82
-116.281
-115.578
-115.421
-115.586
-115.654
-115.097
-113.621
-111.125
-107.618
-103.236
-98.066
-92.143
-85.574
-78.502
-71.072
-63.431
-55.693
-47.939
-40.243
-32.67
-25.286
-18.155
-11.315
-4.778
1.455
7.398
13.061
18.446
23.57
28.456
33.137
37.656
42.053
46.368
50.632
54.868
59.091
63.314
67.538
71.757
75.96
80.127
84.239
88.285
92.248
96.111
99.855
103.458
106.896
110.144
113.178
115.975
118.513
120.772
122.733
124.379
125.695
126.67
127.292
127.548
127.425
126.915
126.006
124.693
122.97
120.833
118.281
115.316
111.943
108.168
104.002
99.457
94.546
89.288
83.701
77.807
71.629
65.193
58.527
51.66
44.622
37.445
30.162
22.807
15.413
8.014
0.644
-6.665
-13.878
-20.966
-27.897
-34.64
-41.169
-47.457
-53.476
-59.205
-64.622
-69.707
-74.443
-78.814
-82.809
-86.417
-89.631
-92.446
-94.859
-96.872
-98.487
-99.709
-100.548
-101.012
-101.115
-100.872
-100.298
-99.412
-98.235
-96.787
-95.091
-93.17
-91.049
-88.752
-86.305
-83.731
-81.057
-78.306
-75.505
-72.675
-69.842
-67.027
-64.253
-61.541
-58.91
-56.381
-53.971
-51.695
-49.57
-47.608
-45.82
-44.216
-42.805
-41.592
-40.581
-39.775
-39.174
-38.777
-38.581
-38.581
-38.772
-39.143
-39.688
-40.393
-41.249
-42.241
-43.356
-44.579
-45.896
-47.291
-48.748
-50.251
-51.784
-53.328
-54.867
-56.384
-57.862
-59.283
-60.63
-61.888
-63.039
-64.071
-64.967
-65.716
-66.304
-66.72
-66.955
-66.999
-66.845
-66.485
-65.915
-65.13
-64.128
-62.909
-61.474
-59.824
-57.963
-55.896
-53.63
-51.17
-48.526
-45.705
-42.717
-39.575
-36.289
-32.873
-29.342
-25.712
-21.997
-18.216
-14.387
-10.529
-6.66
-2.798
1.038
4.827
8.552
12.193
15.73
19.145
22.417
25.525
28.449
31.167
33.663
35.917
37.913
39.637
41.077
42.223
43.07
43.611
43.838
43.744
43.326
42.582
41.514
40.125
38.418
36.399
34.083
31.489
28.634
25.531
22.188
18.604
14.784
10.74
6.488
2.044
-2.57
-7.329
-12.194
-17.109
-22.016
-26.866
-31.615
-36.231
-40.669
-44.871
-48.773
-52.302
-55.402
-58.041
-60.19
-61.822
-62.942
-63.566
-63.73
-63.538
-63.096
-62.511
-61.926
-61.467
-61.258
-61.494
-62.412
-64.179
-66.855
-70.313
-74.217
-78.223
-82.023
-85.218
-87.331
-88.003
-87.163
-85.302
-83.466
-82.773
-84.14
-88.271
-95.68
-106.511
-120.26
-135.278
-148.801
-157.589
-158.481
-148.857
-126.487
-89.608
-37.504
29
107.442
193.93
283.871
372.861
456.181
528.782
586.18
624.587
641.328
635.582
607.567
557.764
487.825
400.684
299.978
190.472
77.383
-34.98
-142.484
-240.713
-325.904
-395.13
-446.53
-480.128
-497.174
-498.874
-486.847
-463.591
-432.064
-395.571
-357.081
-318.332
-280.376
-244.427
-211.781
-183.254
-158.888
-137.944
-119.531
-103.289
-89.078
-76.514
-64.734
-52.793
-40.378
-27.805
-15.64
-4.304
5.975
14.97
22.111
26.629
28.176
26.817
22.866
16.756
8.813
-0.693
-11.315
-22.444
-33.583
-44.375
-54.57
-64.038
-72.644
-80.253
-86.804
-92.315
-96.829
-100.404
-103.102
-104.971
-106.068
-106.472
-106.268
-105.559
-104.454
-103.061
-101.491
-99.86
-98.248
-96.709
-95.274
-93.936
-92.675
-91.469
-90.278
-89.055
-87.759
-86.351
-84.797
-83.069
-81.133
-78.951
-76.485
-73.693
-70.55
-67.045
-63.177
-58.96
-54.413
-49.557
-44.427
-39.062
-33.5
-27.777
-21.925
-15.974
-9.955
-3.905
2.138
8.137
14.056
19.862
25.522
31.005
36.28
41.32
46.102
50.604
54.806
58.687
62.226
65.407
68.211
70.627
72.642
74.246
75.432
76.196
76.537
76.459
75.966
75.064
73.764
72.075
70.013
67.592
64.831
61.747
58.362
54.697
50.776
46.623
42.264
37.724
33.031
28.212
23.294
18.303
13.268
8.213
3.165
-1.85
-6.809
-11.688
-16.464
-21.115
-25.621
-29.962
-34.122
-38.084
-41.834
-45.361
-48.653
-51.702
-54.5
-57.042
-59.325
-61.346
-63.104
-64.601
-65.84
-66.823
-67.556
-68.047
-68.304
-68.334
-68.148
-67.757
-67.172
-66.406
-65.471
-64.379
-63.145
-61.781
-60.303
-58.724
-57.058
-55.319
-53.522
-51.679
-49.805
-47.911
-46.011
-44.115
-42.236
-40.383
-38.567
-36.795
-35.076
-33.417
-31.823
-30.301
-28.853
-27.483
-26.194
-24.985
-23.859
-22.814
-21.85
-20.963
-20.152
-19.414
-18.743
-18.136
-17.587
-17.09
-16.64
-16.229
-15.851
-15.5
-15.166
-14.844
-14.524
-14.2
-13.863
-13.505
-13.118
-12.694
-12.225
-11.705
-11.126
-10.484
-9.771
-8.984
-8.118
-7.17
-6.137
-5.016
-3.807
-2.507
-1.119
0.359
1.922
3.569
5.295
7.097
8.968
10.902
12.892
14.93
17.009
19.118
21.249
23.39
25.53
27.656
29.755
31.814
33.814
35.738
37.571
39.294
40.892
42.346
43.642
44.764
45.702
46.444
46.981
47.301
47.393
47.245
46.851
46.203
45.298
44.13
42.697
41.005
39.063
36.88
34.466
31.822
28.942
25.824
22.478
18.912
15.143
11.193
7.087
2.865
-1.413
-5.695
-9.926
-14.066
-18.09
-21.962
-25.64
-29.075
-32.2
-34.969
-37.349
-39.31
-40.845
-41.972
-42.727
-43.188
-43.456
-43.631
-43.826
-44.134
-44.63
-45.395
-46.483
-48.005
-50.145
-53.012
-56.624
-60.895
-65.579
-70.389
-75.061
-79.139
-81.977
-83.093
-82.289
-79.727
-75.899
-71.545
-67.459
-64.564
-64.248
-66.443
-69.161
-70.643
-68.819
-64.797
-63.825
-67.043
-71.942
-69.915
-45.051
11.594
102.326
221.143
349.865
471.694
570.567
634.527
663.153
660.204
634.175
593.854
541.755
477.336
398.197
303.67
197.379
85.248
-26.296
-132.407
-229.802
-315.677
-388.058
-445.364
-486.659
-512.388
-523.206
-519.737
-503.287
-475.877
-439.993
-398.462
-354.039
-308.82
-264.889
-224.634
-189.863
-161.42
-139.305
-122.792
-110.778
-102.282
-96.146
-90.669
-84.308
-76.262
-66.376
-55.025
-42.865
-30.442
-18.314
-7.397
1.357
7.471
10.863
11.811
10.823
8.303
4.597
0.223
-4.22
-8.266
-11.569
-13.973
-15.488
-16.101
-15.796
-14.6
-12.565
-9.78
-6.354
-2.383
2.055
6.885
12.036
17.41
22.876
28.301
33.551
38.535
43.208
47.534
51.493
55.078
58.298
61.19
63.808
66.203
68.417
70.489
72.446
74.333
76.203
78.109
80.108
82.239
84.524
86.982
89.627
92.463
95.49
98.696
102.057
105.557
109.182
112.918
116.751
120.666
124.64
128.651
132.676
136.692
140.677
144.607
148.459
152.209
155.835
159.317
162.635
165.768
168.695
171.393
173.842
176.018
177.905
179.482
180.732
181.639
182.191
182.377
182.187
181.616
180.66
179.315
177.582
175.464
172.964
170.091
166.853
163.262
159.331
155.074
150.509
145.655
140.533
135.163
129.571
123.779
117.814
111.702
105.47
99.146
92.757
86.33
79.895
73.477
67.105
60.805
54.603
48.524
42.591
36.826
31.251
25.884
20.743
15.845
11.202
6.828
2.733
-1.075
-4.589
-7.803
-10.716
-13.325
-15.632
-17.64
-19.351
-20.772
-21.912
-22.777
-23.38
-23.732
-23.845
-23.734
-23.412
-22.897
-22.203
-21.349
-20.35
-19.225
-17.991
-16.666
-15.267
-13.811
-12.316
-10.796
-9.268
-7.747
-6.246
-4.78
-3.361
-1.999
-0.705
0.511
1.642
2.68
3.62
4.456
5.187
5.809
6.321
6.724
7.019
7.208
7.296
7.287
7.187
7.001
6.739
6.408
6.016
5.572
5.087
4.569
4.029
3.477
2.924
2.38
1.854
1.358
0.901
0.493
0.144
-0.138
-0.346
-0.471
-0.506
-0.445
-0.282
-0.014
0.365
0.856
1.463
2.186
3.025
3.978
5.042
6.215
7.491
8.864
10.327
11.871
13.487
15.167
16.899
18.672
20.475
22.294
24.118
25.931
27.719
29.464
31.149
32.755
34.266
35.664
36.932
38.052
39.012
39.8
40.403
40.812
41.013
40.996
40.749
40.266
39.541
38.571
37.352
35.883
34.171
32.226
30.057
27.672
25.071
22.245
19.196
15.932
12.464
8.806
4.977
0.997
-3.095
-7.247
-11.408
-15.527
-19.568
-23.504
-27.291
-30.876
-34.195
-37.177
-39.77
-41.949
-43.689
-44.97
-45.799
-46.195
-46.207
-45.944
-45.509
-45.005
-44.55
-44.257
-44.242
-44.68
-45.787
-47.715
-50.509
-54.06
-58.087
-62.293
-66.391
-69.991
-72.595
-73.807
-73.483
-71.952
-70.054
-68.653
-68.494
-70.294
-74.617
-81.794
-91.661
-102.977
-113.545
-120.929
-122.309
-115.063
-97.102
-66.153
-21.711
35.104
103.591
181.229
266.167
356.643
445.506
525.799
589.807
629.933
646.794
641.695
616.636
575.503
517.137
441.924
352.771
251.832
144.301
35.435
-71.574
-172.948
-265.116
-345.567
-411.813
-461.931
-495.702
-513.428
-515.34
-502.711
-477.622
-442.485
-400.481
-354.945
-308.187
-262.381
-219.942
-182.564
-151.438
-127.045
-108.673
-95.206
-85.854
-79.585
-75.058
-71.063
-66.334
-60.184
-52.793
-44.552
-35.824
-27.094
-18.916
-11.951
-6.982
-4.34
-3.866
-5.241
-8.036
-11.839
-16.259
-20.752
-24.736
-27.849
-29.923
-30.942
-30.975
-30.06
-28.215
-25.526
-22.123
-18.143
-13.713
-8.922
-3.847
1.413
6.727
11.923
16.87
21.491
25.738
29.597
33.058
36.106
38.752
41.039
43.014
44.724
46.213
47.51
48.657
49.704
50.71
51.745
52.86
54.085
55.443
56.947
58.606
60.428
62.408
64.528
66.774
69.136
71.604
74.175
76.838
79.575
82.368
85.2
88.051
90.905
93.745
96.552
99.307
101.995
104.601
107.109
109.505
111.769
113.885
115.833
117.595
119.154
120.494
121.597
122.449
123.039
123.356
123.391
123.138
122.591
121.746
120.602
119.158
117.415
115.376
113.046
110.431
107.54
104.381
100.967
97.309
93.422
89.32
85.021
80.541
75.899
71.114
66.206
61.196
56.104
50.953
45.764
40.56
35.363
30.194
25.076
20.028
15.071
10.223
5.503
0.927
-3.488
-7.73
-11.784
-15.638
-19.282
-22.706
-25.902
-28.864
-31.586
-34.064
-36.296
-38.28
-40.017
-41.508
-42.756
-43.766
-44.541
-45.089
-45.418
-45.536
-45.454
-45.184
-44.736
-44.125
-43.364
-42.468
-41.452
-40.331
-39.12
-37.835
-36.491
-35.104
-33.689
-32.26
-30.831
-29.417
-28.031
-26.686
-25.393
-24.163
-23.008
-21.936
-20.955
-20.075
-19.301
-18.639
-18.094
-17.67
-17.368
-17.19
-17.136
-17.205
-17.393
-17.697
-18.111
-18.631
-19.247
-19.952
-20.737
-21.593
-22.508
-23.473
-24.476
-25.505
-26.55
-27.597
-28.636
-29.655
-30.641
-31.582
-32.469
-33.291
-34.037
-34.698
-35.266
-35.731
-36.088
-36.329
-36.45
-36.444
-36.31
-36.044
-35.645
-35.116
-34.457
-33.673
-32.768
-31.749
-30.624
-29.404
-28.097
-26.715
-25.271
-23.776
-22.246
-20.695
-19.138
-17.591
-16.073
-14.604
-13.203
-11.891
-10.688
-9.612
-8.684
-7.921
-7.339
-6.949
-6.764
-6.795
-7.054
-7.554
-8.303
-9.308
-10.574
-12.102
-13.894
-15.945
-18.248
-20.787
-23.548
-26.519
-29.699
-33.091
-36.696
-40.503
-44.5
-48.669
-52.988
-57.433
-61.963
-66.522
-71.052
-75.502
-79.829
-84.003
-87.983
-91.714
-95.132
-98.158
-100.727
-102.801
-104.36
-105.387
-105.888
-105.878
-105.394
-104.546
-103.449
-102.21
-100.935
-99.719
-98.663
-97.956
-97.855
-98.523
-100.014
-102.254
-104.98
-107.876
-110.626
-112.751
-113.651
-112.968
-110.634
-106.901
-102.613
-98.973
-97.155
-98.368
-102.931
-109.617
-116.868
-123.767
-131.652
-142.657
-156.124
-166.697
-162.506
-132.286
-72.285
14.329
116.25
222.101
327.362
427.704
518.773
595.009
646.415
668.561
663.779
635.767
590.862
531.627
456.476
366.421
263.558
152.336
39.676
-69.487
-171.194
-261.635
-338.393
-399.58
-443.933
-471.952
-485.047
-484.566
-472.334
-450.573
-421.515
-387.674
-351.421
-314.177
-276.786
-240.342
-205.984
-174.687
-147.362
-124.22
-104.951
-89.537
-78.063
-70.14
-64.998
-61.623
-58.74
-55.676
-52.363
-48.624
-44.357
-39.71
-34.965
-30.683
-27.647
-26.168
-26.115
-27.336
-29.523
-32.324
-35.46
-38.465
-40.798
-42.183
-42.515
-41.783
-40.1
-37.544
-34.156
-30.072
-25.456
-20.443
-15.179
-9.76
-4.266
1.172
6.441
11.443
16.098
20.378
24.277
27.787
30.921
33.704
36.166
38.356
40.32
42.094
43.722
45.252
46.733
48.231
49.796
51.465
53.268
55.223
57.34
59.628
62.088
64.706
67.475
70.384
73.424
76.589
79.87
83.251
86.716
90.245
93.819
97.42
101.031
104.631
108.202
111.723
115.178
118.551
121.823
124.973
127.982
130.828
133.49
135.95
138.189
140.186
141.927
143.395
144.578
145.464
146.043
146.308
146.251
145.869
145.158
144.118
142.751
141.059
139.047
136.723
134.095
131.176
127.977
124.512
120.798
116.852
112.691
108.336
103.807
99.126
94.313
89.393
84.388
79.321
74.216
69.094
63.978
58.892
53.856
48.891
44.016
39.25
34.611
30.116
25.778
21.612
17.631
13.845
10.264
6.897
3.75
0.828
-1.864
-4.326
-6.555
-8.553
-10.322
-11.865
-13.187
-14.293
-15.192
-15.891
-16.398
-16.724
-16.88
-16.877
-16.726
-16.44
-16.031
-15.513
-14.898
-14.198
-13.428
-12.6
-11.726
-10.818
-9.888
-8.949
-8.01
-7.083
-6.176
-5.299
-4.461
-3.668
-2.927
-2.243
-1.623
-1.069
-0.585
-0.172
0.168
0.434
0.628
0.752
0.808
0.799
0.729
0.604
0.428
0.209
-0.048
-0.336
-0.648
-0.975
-1.311
-1.646
-1.973
-2.284
-2.569
-2.821
-3.031
-3.19
-3.29
-3.326
-3.29
-3.175
-2.976
-2.688
-2.305
-1.826
-1.247
-0.564
0.222
1.113
2.107
3.202
4.395
5.682
7.058
8.516
10.049
11.648
13.303
15.007
16.748
18.514
20.292
22.071
23.836
25.573
27.265
28.894
30.441
31.889
33.217
34.409
35.446
36.31
36.986
37.462
37.728
37.772
37.582
37.146
36.452
35.493
34.262
32.755
30.969
28.902
26.562
23.96
21.108
18.017
14.688
11.116
7.3
3.246
-1.037
-5.533
-10.22
-15.074
-20.054
-25.106
-30.175
-35.212
-40.172
-45.033
-49.754
-54.29
-58.589
-62.581
-66.209
-69.437
-72.228
-74.565
-76.461
-77.94
-79.054
-79.89
-80.536
-81.081
-81.623
-82.255
-83.088
-84.237
-85.863
-88.184
-91.287
-95.173
-99.741
-104.618
-109.366
-113.613
-116.839
-118.472
-118.377
-116.592
-113.385
-110.001
-107.853
-107.791
-110.921
-117.217
-124.657
-132.702
-141.124
-149.075
-157.981
-164.831
-161.736
-142.544
-100.216
-33.36
49.883
142.598
237.131
325.153
404.826
471.362
518.768
547.536
555.761
543.901
515.835
469.495
405.633
327.632
235.949
135.69
30.878
-77.228
-181.406
-275.76
-354.607
-411.409
-448.234
-468.71
-476.795
-477.837
-471.544
-457.669
-437.314
-410.839
-381.232
-350.628
-319.004
-286.725
-253.792
-220.453
-188.247
-158.423
-131.383
-107.689
-87.977
-72.663
-62.011
-55.678
-52.289
-50.329
-48.94
-47.513
-45.623
-43.06
-39.666
-35.563
-31.439
-28.143
-26.084
-25.383
-25.946
-27.484
-29.72
-32.349
-34.91
-36.899
-38.036
-38.202
-37.393
-35.716
-33.252
-30.08
-26.332
-22.161
-17.691
-13.02
-8.228
-3.394
1.358
5.907
10.175
14.109
17.694
20.927
23.802
26.334
28.56
30.53
32.292
33.887
35.349
36.712
38.024
39.341
40.727
42.232
43.892
45.732
47.768
50.011
52.468
55.136
57.995
61.031
64.23
67.579
71.071
74.692
78.421
82.236
86.112
90.028
93.962
97.889
101.785
105.626
109.388
113.049
116.591
119.991
123.224
126.268
129.097
131.689
134.021
136.072
137.82
139.247
140.338
141.078
141.456
141.463
141.092
140.338
139.199
137.674
135.767
133.48
130.821
127.798
124.423
120.709
116.671
112.326
107.693
102.792
97.645
92.276
86.708
80.967
75.078
69.068
62.964
56.795
50.587
44.368
38.166
32.007
25.917
19.923
14.047
8.312
2.739
-2.652
-7.843
-12.818
-17.561
-22.059
-26.302
-30.278
-33.98
-37.402
-40.539
-43.389
-45.95
-48.224
-50.213
-51.921
-53.353
-54.517
-55.421
-56.074
-56.486
-56.67
-56.639
-56.406
-55.986
-55.393
-54.645
-53.755
-52.741
-51.619
-50.404
-49.113
-47.76
-46.361
-44.93
-43.481
-42.03
-40.587
-39.167
-37.78
-36.437
-35.148
-33.921
-32.764
-31.684
-30.686
-29.775
-28.955
-28.227
-27.593
-27.054
-26.608
-26.254
-25.988
-25.808
-25.707
-25.68
-25.721
-25.823
-25.977
-26.177
-26.414
-26.679
-26.964
-27.258
-27.554
-27.841
-28.109
-28.349
-28.55
-28.703
-28.8
-28.832
-28.792
-28.67
-28.462
-28.16
-27.759
-27.255
-26.643
-25.92
-25.085
-24.136
-23.074
-21.9
-20.617
-19.228
-17.739
-16.155
-14.483
-12.733
-10.91
-9.026
-7.09
-5.114
-3.11
-1.091
0.93
2.937
4.913
6.841
8.702
10.478
12.152
13.705
15.121
16.382
17.474
18.387
19.106
19.62
19.916
19.98
19.801
19.372
18.686
17.738
16.522
15.04
13.301
11.312
9.082
6.614
3.903
0.948
-2.242
-5.659
-9.288
-13.106
-17.089
-21.199
-25.38
-29.582
-33.757
-37.861
-41.873
-45.757
-49.471
-52.972
-56.2
-59.109
-61.673
-63.856
-65.634
-67.032
-68.08
-68.849
-69.454
-69.959
-70.438
-70.997
-71.705
-72.655
-73.957
-75.667
-77.903
-80.853
-84.576
-89.025
-94.058
-99.275
-104.237
-108.579
-111.766
-113.204
-112.612
-110.034
-105.851
-100.879
-96.198
-92.835
-91.628
-93.523
-97.99
-102.644
-106.331
-108.03
-107.545
-107.324
-104.396
-91.255
-61.309
-6.742
71.768
164.035
260.53
350.759
428.482
493.708
544.783
579.415
594.93
587.763
556.669
502.531
427.606
335.598
230.788
118.239
3.482
-108.713
-213.743
-307.088
-385.466
-446.601
-488.921
-513.772
-523.514
-518.659
-501.442
-472.845
-433.154
-388.115
-342.231
-299.91
-266.122
-238.342
-213.882
-190.557
-165.007
-139.559
-116.381
-96.011
-79.94
-67.056
-56.179
-47.491
-40.464
-34.623
-29.863
-25.77
-22.02
-18.677
-15.772
-13.265
-11.368
-10.47
-10.7
-12.034
-14.381
-17.393
-20.694
-24.016
-27.003
-29.259
-30.59
-30.893
-30.131
-28.401
-25.797
-22.396
-18.343
-13.788
-8.847
-3.636
1.743
7.19
12.55
17.699
22.561
27.075
31.224
35.004
38.402
41.436
44.156
46.611
48.85
50.919
52.847
54.674
56.451
58.234
60.09
62.067
64.194
66.498
68.993
71.686
74.584
77.678
80.947
84.372
87.939
91.636
95.451
99.371
103.373
107.434
111.532
115.643
119.745
123.817
127.832
131.769
135.605
139.321
142.896
146.31
149.541
152.565
155.36
157.904
160.175
162.154
163.821
165.16
166.154
166.792
167.063
166.96
166.476
165.606
164.351
162.71
160.687
158.287
155.517
152.387
148.91
145.099
140.969
136.539
131.827
126.852
121.638
116.207
110.583
104.789
98.852
92.797
86.651
80.44
74.189
67.926
61.677
55.466
49.32
43.261
37.312
31.496
25.831
20.336
15.029
9.924
5.035
0.373
-4.052
-8.231
-12.159
-15.83
-19.242
-22.394
-25.287
-27.921
-30.302
-32.434
-34.323
-35.976
-37.402
-38.611
-39.612
-40.417
-41.037
-41.486
-41.776
-41.92
-41.933
-41.828
-41.62
-41.322
-40.948
-40.512
-40.027
-39.504
-38.957
-38.395
-37.83
-37.27
-36.723
-36.198
-35.7
-35.235
-34.807
-34.418
-34.072
-33.768
-33.508
-33.291
-33.114
-32.976
-32.873
-32.801
-32.756
-32.732
-32.724
-32.725
-32.728
-32.727
-32.714
-32.682
-32.621
-32.526
-32.386
-32.195
-31.945
-31.627
-31.234
-30.759
-30.196
-29.539
-28.782
-27.922
-26.954
-25.878
-24.69
-23.391
-21.98
-20.458
-18.828
-17.092
-15.254
-13.318
-11.292
-9.181
-6.992
-4.734
-2.417
-0.05
2.355
4.788
7.238
9.691
12.135
14.555
16.939
19.271
21.536
23.714
25.789
27.742
29.557
31.216
32.703
34.002
35.102
35.992
36.667
37.116
37.332
37.306
37.03
36.502
35.717
34.674
33.372
31.813
30.007
27.968
25.711
23.245
20.575
17.698
14.616
11.338
7.877
4.25
0.481
-3.405
-7.366
-11.344
-15.286
-19.144
-22.882
-26.475
-29.89
-33.088
-36.017
-38.624
-40.866
-42.707
-44.124
-45.118
-45.708
-45.942
-45.892
-45.643
-45.282
-44.912
-44.625
-44.503
-44.627
-45.054
-45.894
-47.344
-49.516
-52.408
-55.888
-59.622
-63.249
-66.511
-69.009
-70.156
-69.592
-67.334
-63.75
-59.708
-56.224
-54.029
-53.932
-57.075
-63.099
-69.752
-74.659
-74.802
-70.456
-66.248
-64.408
-64.421
-58.519
-32.084
25.675
119.992
242.948
374.617
493.416
577.492
617.529
617.604
587.353
542.496
492.134
436.759
374.485
300.342
213.343
117.657
18.337
-79.016
-170.428
-253.894
-327.698
-390.358
-440.614
-477.771
-502.019
-513.955
-514.315
-503.692
-483.026
-453.964
-418.585
-379.012
-336.923
-293.783
-251.22
-211.287
-175.847
-145.81
-121.231
-101.646
-86.581
-75.535
-67.677
-61.571
-55.619
-48.929
-41.277
-32.838
-23.9
-14.691
-5.569
2.697
9.18
13.392
15.288
15.114
13.263
10.047
5.795
1.034
-3.604
-7.635
-10.792
-12.991
-14.272
-14.659
-14.153
-12.799
-10.7
-7.972
-4.716
-1.014
3.091
7.552
12.273
17.131
21.988
26.705
31.192
35.402
39.3
42.872
46.118
49.048
51.697
54.118
56.356
58.45
60.432
62.326
64.171
66.015
67.914
69.923
72.082
74.412
76.929
79.642
82.551
85.652
88.927
92.35
95.899
99.558
103.31
107.14
111.03
114.956
118.895
122.822
126.711
130.54
134.285
137.921
141.427
144.781
147.962
150.955
153.74
156.297
158.608
160.651
162.409
163.864
165.002
165.805
166.263
166.363
166.099
165.463
164.454
163.067
161.303
159.164
156.653
153.777
150.542
146.959
143.037
138.791
134.235
129.385
124.258
118.874
113.253
107.417
101.386
95.185
88.836
82.365
75.794
69.15
62.456
55.739
49.021
42.327
35.682
29.107
22.626
16.259
10.026
3.946
-1.964
-7.687
-13.208
-18.514
-23.592
-28.431
-33.022
-37.357
-41.429
-45.234
-48.769
-52.031
-55.02
-57.738
-60.186
-62.369
-64.292
-65.96
-67.382
-68.565
-69.518
-70.253
-70.781
-71.112
-71.26
-71.237
-71.056
-70.73
-70.273
-69.697
-69.017
-68.246
-67.397
-66.483
-65.517
-64.511
-63.478
-62.428
-61.372
-60.321
-59.283
-58.267
-57.28
-56.329
-55.421
-54.559
-53.749
-52.993
-52.292
-51.649
-51.063
-50.533
-50.058
-49.635
-49.26
-48.931
-48.643
-48.392
-48.173
-47.98
-47.809
-47.652
-47.504
-47.358
-47.208
-47.044
-46.862
-46.653
-46.411
-46.129
-45.802
-45.424
-44.988
-44.49
-43.925
-43.29
-42.58
-41.792
-40.924
-39.976
-38.948
-37.841
-36.657
-35.4
-34.073
-32.681
-31.229
-29.724
-28.17
-26.576
-24.947
-23.293
-21.623
-19.947
-18.277
-16.624
-15.003
-13.427
-11.911
-10.47
-9.121
-7.881
-6.765
-5.787
-4.956
-4.286
-3.787
-3.472
-3.348
-3.42
-3.692
-4.167
-4.851
-5.749
-6.86
-8.178
-9.686
-11.371
-13.223
-15.241
-17.431
-19.79
-22.311
-24.987
-27.818
-30.803
-33.935
-37.189
-40.513
-43.846
-47.146
-50.382
-53.547
-56.643
-59.638
-62.474
-65.079
-67.378
-69.343
-70.978
-72.246
-73.079
-73.48
-73.535
-73.508
-73.812
-74.677
-76.12
-78.093
-80.543
-83.46
-86.829
-90.281
-92.987
-94.368
-94.3
-93.009
-90.945
-88.312
-85.13
-81.889
-79.917
-80.492
-84.223
-91.245
-101.207
-113.997
-130.067
-148.126
-164.527
-176.025
-179.949
-177.235
-173.243
-169.412
-164.002
-150.496
-115.916
-53.439
39.144
157.756
286.425
408.945
508.319
570.833
595.715
588.709
560.775
522.995
478.842
426.744
362.554
283.976
192.92
93.989
-6.969
-105.794
-199.797
-286.486
-363.797
-429.637
-482.071
-520.141
-543.769
-553.083
-548.574
-531.398
-503.34
-466.773
-424.441
-378.978
-332.379
-286.63
-243.829
-205.634
-173.251
-147.098
-126.698
-111.27
-100.198
-92.62
-87.333
-83.116
-78.693
-73.357
-67.124
-60.207
-52.844
-45.412
-38.419
-32.461
-28.228
-26.008
-25.635
-26.831
-29.22
-32.375
-35.867
-39.212
-41.902
-43.642
-44.354
-44.026
-42.725
-40.521
-37.462
-33.662
-29.279
-24.445
-19.269
-13.847
-8.257
-2.62
2.9
8.184
13.151
17.757
21.997
25.865
29.352
32.477
35.284
37.823
40.145
42.294
44.303
46.216
48.087
49.975
51.951
54.067
56.355
58.839
61.532
64.441
67.573
70.919
74.459
78.177
82.056
86.084
90.251
94.54
98.928
103.39
107.9
112.433
116.966
121.472
125.927
130.304
134.581
138.734
142.743
146.586
150.237
153.673
156.869
159.804
162.454
164.8
166.821
168.5
169.821
170.773
171.346
171.53
171.321
170.714
169.709
168.306
166.511
164.327
161.765
158.833
155.546
151.919
147.967
143.711
139.169
134.363
129.318
124.055
118.601
112.982
107.222
101.35
95.393
89.377
83.331
77.281
71.253
65.273
59.368
53.56
47.874
42.331
36.951
31.754
26.756
21.974
17.422
13.111
9.054
5.257
1.73
-1.524
-4.5
-7.198
-9.616
-11.756
-13.622
-15.217
-16.547
-17.619
-18.442
-19.024
-19.375
-19.508
-19.432
-19.163
-18.712
-18.095
-17.325
-16.417
-15.386
-14.248
-13.018
-11.711
-10.342
-8.925
-7.476
-6.006
-4.531
-3.062
-1.611
-0.189
1.194
2.528
3.805
5.017
6.159
7.225
8.21
9.111
9.925
10.65
11.285
11.83
12.286
12.654
12.937
13.14
13.265
13.318
13.306
13.235
13.112
12.946
12.743
12.513
12.264
12.005
11.745
11.493
11.258
11.05
10.878
10.75
10.676
10.664
10.721
10.854
11.069
11.373
11.771
12.266
12.863
13.565
14.374
15.293
16.321
17.459
18.705
20.055
21.506
23.053
24.689
26.406
28.197
30.05
31.958
33.909
35.892
37.896
39.907
41.913
43.899
45.849
47.747
49.574
51.311
52.94
54.444
55.803
57.001
58.024
58.857
59.491
59.915
60.117
60.086
59.813
59.288
58.507
57.466
56.163
54.598
52.776
50.703
48.393
45.854
43.091
40.103
36.882
33.427
29.747
25.852
21.751
17.462
13.007
8.424
3.765
-0.919
-5.581
-10.182
-14.684
-19.042
-23.201
-27.101
-30.675
-33.875
-36.674
-39.047
-40.983
-42.483
-43.548
-44.226
-44.623
-44.862
-45.078
-45.399
-45.922
-46.798
-48.239
-50.415
-53.385
-57.025
-61.034
-65.129
-69.076
-72.576
-75.263
-76.846
-77.276
-77.067
-77.105
-78.141
-80.972
-86.371
-94.722
-106.343
-120.197
-132.996
-142.407
-146.89
-145.984
-142.78
-136.404
-121.153
-90.886
-36.056
46.469
148.527
257.897
356.865
430.907
476.446
496.105
498.535
491.645
477.316
453.683
415.574
359.87
287.913
203.184
110.91
15.877
-79.121
-171.515
-257.816
-334.635
-399.027
-448.718
-483.155
-502.969
-508.477
-500.349
-480.572
-451.554
-416.188
-377.605
-337.755
-297.809
-259.395
-224.176
-193.239
-167.394
-146.531
-129.81
-116.872
-107.583
-101.327
-97.169
-94.021
-90.653
-86.549
-81.859
-76.577
-70.71
-64.474
-58.19
-52.45
-48.023
-45.197
-43.823
-43.723
-44.596
-46.115
-48.021
-49.885
-51.21
-51.741
-51.385
-50.136
-48.095
-45.327
-41.863
-37.817
-33.324
-28.5
-23.467
-18.307
-13.092
-7.936
-2.94
1.812
6.249
10.349
14.108
17.52
20.6
23.373
25.867
28.128
30.2
32.115
33.917
35.652
37.368
39.13
40.985
42.97
45.114
47.435
49.942
52.644
55.539
58.614
61.86
65.265
68.817
72.51
76.33
80.261
84.282
88.371
92.505
96.664
100.827
104.971
109.073
113.111
117.064
120.913
124.638
128.214
131.619
134.83
137.823
140.578
143.073
145.286
147.2
148.798
150.066
150.991
151.564
151.775
151.619
151.091
150.189
148.915
147.27
145.26
142.891
140.172
137.116
133.735
130.046
126.064
121.809
117.3
112.559
107.608
102.47
97.171
91.733
86.183
80.548
74.851
69.12
63.381
57.658
51.977
46.362
40.836
35.422
30.139
25.007
20.045
15.27
10.696
6.336
2.204
-1.692
-5.342
-8.741
-11.882
-14.764
-17.384
-19.744
-21.844
-23.69
-25.284
-26.635
-27.749
-28.635
-29.303
-29.764
-30.029
-30.112
-30.026
-29.784
-29.402
-28.894
-28.276
-27.562
-26.769
-25.912
-25.005
-24.063
-23.101
-22.133
-21.172
-20.232
-19.322
-18.456
-17.643
-16.892
-16.211
-15.607
-15.085
-14.651
-14.306
-14.055
-13.897
-13.834
-13.865
-13.988
-14.2
-14.497
-14.875
-15.328
-15.85
-16.434
-17.07
-17.752
-18.469
-19.212
-19.972
-20.739
-21.501
-22.248
-22.969
-23.652
-24.288
-24.865
-25.37
-25.796
-26.131
-26.367
-26.497
-26.512
-26.407
-26.176
-25.813
-25.317
-24.683
-23.909
-22.993
-21.937
-20.741
-19.408
-17.941
-16.346
-14.628
-12.795
-10.855
-8.818
-6.693
-4.49
-2.222
0.1
2.46
4.844
7.237
9.622
11.978
14.285
16.521
18.668
20.706
22.615
24.375
25.965
27.368
28.569
29.553
30.307
30.813
31.057
31.026
30.714
30.116
29.228
28.048
26.571
24.797
22.739
20.408
17.816
14.971
11.871
8.52
4.933
1.128
-2.876
-7.056
-11.393
-15.858
-20.4
-24.969
-29.515
-33.984
-38.355
-42.595
-46.677
-50.588
-54.282
-57.709
-60.837
-63.612
-66.002
-68.04
-69.724
-71.029
-72.053
-72.915
-73.837
-75.219
-77.243
-79.878
-83.132
-86.985
-91.343
-96.114
-100.76
-104.245
-105.959
-105.733
-103.552
-99.675
-94.29
-87.504
-80.295
-74.559
-71.752
-72.633
-77.624
-86.593
-99.145
-115.11
-132.274
-145.729
-152.396
-150.64
-140.671
-127.282
-110.644
-85.077
-44.573
21.362
116.326
231.166
352.543
459.717
535.466
575.666
583.752
571.269
549.145
520.729
484.098
433.333
365.12
280.93
184.826
83.082
-19.364
-119.547
-214.145
-299.991
-374.329
-434.547
-479.057
-507.775
-521.061
-519.377
-504.206
-477.741
-442.495
-401.509
-357.67
-312.938
-269.212
-228.59
-192.569
-162.243
-138.038
-119.386
-105.484
-95.797
-89.494
-85.408
-82.355
-79.024
-74.665
-69.29
-63.086
-56.248
-49.13
-42.197
-36.091
-31.597
-29.078
-28.434
-29.406
-31.615
-34.67
-38.182
-41.645
-44.509
-46.436
-47.301
-47.089
-45.882
-43.741
-40.712
-36.9
-32.456
-27.517
-22.197
-16.599
-10.805
-4.928
0.882
6.493
11.811
16.779
21.373
25.587
29.415
32.867
35.975
38.783
41.338
43.685
45.859
47.9
49.858
51.788
53.757
55.814
57.995
60.325
62.817
65.481
68.322
71.337
74.512
77.832
81.286
84.863
88.557
92.356
96.242
100.195
104.195
108.222
112.257
116.279
120.268
124.203
128.062
131.827
135.481
139.002
142.37
145.561
148.555
151.329
153.862
156.136
158.13
159.828
161.213
162.272
162.995
163.37
163.389
163.045
162.336
161.257
159.81
157.995
155.816
153.28
150.395
147.17
143.618
139.752
135.588
131.143
126.436
121.488
116.319
110.953
105.413
99.723
93.909
87.995
82.008
75.972
69.913
63.856
57.826
51.847
45.941
40.132
34.44
28.886
23.489
18.267
13.236
8.41
3.804
-0.57
-4.703
-8.586
-12.211
-15.574
-18.671
-21.5
-24.06
-26.353
-28.382
-30.151
-31.667
-32.936
-33.968
-34.77
-35.355
-35.732
-35.915
-35.916
-35.748
-35.425
-34.96
-34.369
-33.665
-32.863
-31.978
-31.024
-30.015
-28.965
-27.887
-26.795
-25.702
-24.618
-23.555
-22.522
-21.53
-20.586
-19.699
-18.874
-18.116
-17.431
-16.821
-16.288
-15.835
-15.46
-15.163
-14.943
-14.797
-14.722
-14.713
-14.768
-14.88
-15.044
-15.255
-15.507
-15.792
-16.105
-16.437
-16.781
-17.131
-17.477
-17.813
-18.129
-18.419
-18.674
-18.89
-19.058
-19.172
-19.228
-19.219
-19.142
-18.993
-18.769
-18.466
-18.084
-17.621
-17.078
-16.456
-15.757
-14.984
-14.14
-13.229
-12.255
-11.226
-10.147
-9.024
-7.864
-6.675
-5.467
-4.25
-3.032
-1.825
-0.641
0.506
1.601
2.63
3.579
4.433
5.178
5.798
6.282
6.619
6.8
6.816
6.659
6.317
5.781
5.042
4.094
2.933
1.554
-0.047
-1.866
-3.895
-6.124
-8.547
-11.16
-13.971
-16.983
-20.19
-23.59
-27.169
-30.907
-34.782
-38.756
-42.774
-46.786
-50.744
-54.608
-58.359
-61.965
-65.389
-68.589
-71.506
-74.095
-76.331
-78.177
-79.612
-80.66
-81.36
-81.792
-82.08
-82.302
-82.54
-82.898
-83.448
-84.298
-85.57
-87.342
-89.742
-92.954
-97.036
-101.957
-107.571
-113.411
-118.939
-123.697
-127.102
-128.577
-127.899
-125.152
-120.747
-115.795
-111.73
-109.558
-110.12
-114.233
-120.912
-128.623
-136.659
-142.018
-143.481
-140.561
-128.431
-105.045
-66.411
-7.391
69.477
162.614
264.826
362.819
448.415
511.287
547.466
562.053
557.368
538.017
505.603
455.46
386.659
300.276
199.235
90.377
-20.364
-128.9
-231.071
-323.072
-401.673
-464.08
-508.719
-535.83
-546.714
-542.845
-526.183
-499.417
-465.422
-427.072
-386.968
-346.764
-307.353
-269.627
-234.518
-202.499
-173.843
-148.733
-126.969
-108.466
-93.45
-81.87
-73.218
-67.031
-62.633
-59.122
-56.106
-53.35
-50.491
-47.448
-44.377
-41.368
-38.763
-37.11
-36.518
-36.909
-38.178
-39.966
-41.926
-43.823
-45.299
-45.964
-45.645
-44.264
-41.826
-38.474
-34.318
-29.46
-24.048
-18.233
-12.155
-5.949
0.266
6.369
12.244
17.805
22.989
27.761
32.112
36.038
39.553
42.697
45.516
48.06
50.378
52.507
54.494
56.393
58.262
60.168
62.163
64.283
66.554
69
71.63
74.457
77.477
80.677
84.043
87.566
91.236
95.047
98.987
103.039
107.184
111.399
115.666
119.964
124.274
128.573
132.837
137.044
141.174
145.208
149.121
152.891
156.49
159.893
163.074
166.01
168.675
171.046
173.1
174.818
176.181
177.175
177.784
177.998
177.806
177.202
176.179
174.737
172.875
170.595
167.902
164.804
161.311
157.435
153.19
148.594
143.664
138.421
132.887
127.088
121.047
114.791
108.349
101.749
95.021
88.195
81.301
74.371
67.434
60.521
53.661
46.884
40.216
33.684
27.313
21.127
15.147
9.393
3.883
-1.367
-6.342
-11.03
-15.421
-19.508
-23.284
-26.746
-29.894
-32.726
-35.246
-37.459
-39.371
-40.989
-42.324
-43.387
-44.19
-44.748
-45.075
-45.187
-45.102
-44.836
-44.409
-43.839
-43.144
-42.344
-41.456
-40.498
-39.49
-38.448
-37.388
-36.327
-35.279
-34.259
-33.279
-32.351
-31.485
-30.689
-29.972
-29.339
-28.796
-28.345
-27.988
-27.726
-27.558
-27.483
-27.497
-27.596
-27.775
-28.027
-28.346
-28.722
-29.149
-29.615
-30.113
-30.631
-31.161
-31.692
-32.213
-32.715
-33.188
-33.621
-34.005
-34.331
-34.588
-34.77
-34.867
-34.874
-34.784
-34.592
-34.293
-33.885
-33.365
-32.732
-31.986
-31.126
-30.154
-29.073
-27.886
-26.599
-25.216
-23.744
-22.191
-20.564
-18.872
-17.126
-15.336
-13.51
-11.659
-9.795
-7.928
-6.07
-4.234
-2.431
-0.676
1.016
2.63
4.151
5.564
6.854
8.007
9.01
9.853
10.527
11.024
11.337
11.458
11.379
11.094
10.601
9.895
8.978
7.848
6.507
4.963
3.228
1.313
-0.773
-3.03
-5.462
-8.067
-10.838
-13.767
-16.842
-20.048
-23.37
-26.775
-30.215
-33.647
-37.027
-40.321
-43.506
-46.543
-49.388
-51.991
-54.293
-56.253
-57.849
-59.058
-59.863
-60.279
-60.325
-60.047
-59.542
-58.905
-58.241
-57.674
-57.303
-57.216
-57.549
-58.486
-60.175
-62.684
-65.921
-69.641
-73.632
-77.716
-81.61
-84.896
-87.164
-88.168
-88.149
-87.78
-87.546
-87.901
-89.522
-93.045
-99.131
-107.277
-114.979
-119.562
-119.741
-117.142
-115.147
-114.213
-109.475
-90.617
-47.575
22.661
114.548
214.774
309.887
391.825
457.384
507.72
543.68
563.532
564.643
544.514
502.323
439.337
358.647
264.257
160.331
51.577
-57.388
-162.629
-260.278
-346.901
-420.16
-478.311
-520.465
-547.178
-559.501
-558.438
-545.332
-521.758
-489.548
-451.05
-408.565
-363.678
-317.819
-272.683
-230.165
-192.11
-159.63
-132.865
-111.48
-95.155
-83.421
-75.418
-69.697
-64.533
-58.816
-52.175
-44.649
-36.426
-27.75
-19.015
-11.053
-4.9
-1.115
0.236
-0.621
-3.277
-7.346
-12.434
-17.912
-23.044
-27.339
-30.536
-32.563
-33.491
-33.348
-32.14
-29.948
-26.908
-23.154
-18.818
-13.99
-8.719
-3.096
2.751
8.662
14.459
20.028
25.305
30.252
34.852
39.093
42.971
46.519
49.791
52.837
55.705
58.43
61.041
63.581
66.101
68.661
71.327
74.14
77.122
80.29
83.649
87.201
90.943
94.857
98.914
103.092
107.37
111.733
116.165
120.645
125.147
129.648
134.121
138.54
142.883
147.124
151.241
155.209
159.008
162.617
166.018
169.193
172.12
174.779
177.15
179.215
180.957
182.359
183.407
184.088
184.394
184.316
183.85
182.992
181.742
180.1
178.069
175.656
172.867
169.711
166.2
162.347
158.166
153.675
148.891
143.834
138.524
132.984
127.237
121.307
115.218
108.996
102.668
96.258
89.793
83.3
76.804
70.331
63.905
57.549
51.288
45.143
39.134
33.281
27.601
22.11
16.824
11.756
6.917
2.317
-2.036
-6.134
-9.972
-13.547
-16.857
-19.902
-22.682
-25.201
-27.462
-29.471
-31.234
-32.759
-34.056
-35.134
-36.004
-36.678
-37.169
-37.49
-37.655
-37.677
-37.571
-37.35
-37.03
-36.623
-36.144
-35.607
-35.024
-34.407
-33.77
-33.124
-32.479
-31.845
-31.233
-30.651
-30.105
-29.604
-29.152
-28.755
-28.417
-28.14
-27.927
-27.779
-27.695
-27.677
-27.72
-27.825
-27.985
-28.198
-28.459
-28.761
-29.098
-29.464
-29.851
-30.252
-30.659
-31.065
-31.461
-31.84
-32.193
-32.513
-32.792
-33.021
-33.194
-33.303
-33.34
-33.299
-33.173
-32.959
-32.65
-32.243
-31.733
-31.118
-30.396
-29.565
-28.626
-27.577
-26.421
-25.158
-23.793
-22.329
-20.773
-19.129
-17.406
-15.61
-13.752
-11.841
-9.887
-7.9
-5.892
-3.873
-1.857
0.145
2.118
4.048
5.92
7.716
9.418
11.009
12.473
13.792
14.951
15.934
16.729
17.327
17.718
17.891
17.837
17.547
17.014
16.233
15.202
13.92
12.385
10.603
8.58
6.329
3.86
1.178
-1.716
-4.826
-8.153
-11.686
-15.414
-19.325
-23.401
-27.62
-31.944
-36.319
-40.694
-45.026
-49.274
-53.405
-57.374
-61.124
-64.592
-67.718
-70.457
-72.781
-74.666
-76.096
-77.072
-77.605
-77.75
-77.615
-77.305
-76.94
-76.644
-76.519
-76.714
-77.44
-78.844
-80.994
-83.825
-87.069
-90.444
-93.705
-96.501
-98.411
-99.123
-98.459
-96.683
-94.629
-93.149
-93.036
-95.089
-99.887
-107.775
-118.714
-131.622
-144.298
-154.228
-158.646
-154.83
-140.534
-113.615
-72.569
-17.543
49.742
126.476
208.693
292.072
372.262
444.139
502.768
544.401
566.291
567.02
546.741
506.201
446.808
371.489
283.817
187.561
87.04
-13.739
-111.493
-202.916
-284.933
-355.33
-412.35
-454.879
-483.089
-497.733
-499.568
-489.8
-470.049
-442.129
-408.337
-371.086
-332.044
-292.448
-253.76
-217.416
-184.646
-156.452
-133.005
-113.84
-98.696
-87.386
-79.308
-73.585
-69.148
-64.797
-59.977
-54.717
-48.994
-42.834
-36.474
-30.282
-24.848
-20.902
-18.716
-18.157
-19.044
-21.077
-23.918
-27.219
-30.484
-33.182
-35.013
-35.879
-35.767
-34.753
-32.889
-30.205
-26.811
-22.856
-18.463
-13.736
-8.748
-3.556
1.737
6.985
12.058
16.866
21.358
25.521
29.345
32.821
35.959
38.792
41.369
43.741
45.95
48.026
50.004
51.927
53.85
55.839
57.943
60.195
62.618
65.225
68.024
71.022
74.211
77.575
81.093
84.75
88.533
92.431
96.429
100.506
104.639
108.802
112.972
117.128
121.246
125.303
129.274
133.136
136.87
140.455
143.871
147.095
150.104
152.876
155.389
157.622
159.557
161.174
162.456
163.39
163.963
164.167
163.993
163.436
162.494
161.165
159.452
157.358
154.89
152.056
148.867
145.335
141.475
137.305
132.841
128.104
123.113
117.893
112.467
106.858
101.092
95.196
89.194
83.115
76.985
70.83
64.678
58.552
52.48
46.486
40.594
34.825
29.2
23.74
18.462
13.382
8.516
3.875
-0.53
-4.689
-8.595
-12.243
-15.628
-18.75
-21.607
-24.201
-26.535
-28.613
-30.441
-32.026
-33.376
-34.5
-35.41
-36.117
-36.632
-36.969
-37.142
-37.164
-37.05
-36.816
-36.475
-36.044
-35.536
-34.966
-34.35
-33.701
-33.032
-32.356
-31.685
-31.03
-30.403
-29.811
-29.264
-28.768
-28.331
-27.956
-27.65
-27.414
-27.252
-27.165
-27.153
-27.216
-27.353
-27.562
-27.839
-28.18
-28.581
-29.037
-29.541
-30.087
-30.667
-31.274
-31.9
-32.536
-33.174
-33.805
-34.421
-35.011
-35.567
-36.08
-36.542
-36.942
-37.273
-37.526
-37.696
-37.774
-37.755
-37.634
-37.405
-37.065
-36.61
-36.038
-35.346
-34.534
-33.6
-32.546
-31.373
-30.084
-28.682
-27.173
-25.56
-23.85
-22.051
-20.171
-18.219
-16.203
-14.133
-12.022
-9.88
-7.721
-5.558
-3.405
-1.278
0.807
2.831
4.778
6.629
8.367
9.974
11.435
12.732
13.856
14.793
15.533
16.065
16.377
16.457
16.298
15.892
15.236
14.324
13.154
11.727
10.054
8.143
6.002
3.635
1.033
-1.803
-4.864
-8.143
-11.625
-15.288
-19.112
-23.058
-27.071
-31.099
-35.09
-39.004
-42.815
-46.484
-49.967
-53.212
-56.151
-58.734
-60.933
-62.715
-64.065
-64.997
-65.535
-65.739
-65.713
-65.545
-65.326
-65.138
-65.039
-65.108
-65.434
-66.162
-67.481
-69.498
-72.254
-75.705
-79.663
-83.882
-88.049
-91.637
-94.046
-94.897
-93.921
-91.154
-87.188
-82.767
-78.817
-76.678
-76.511
-76.957
-77.166
-75.914
-74.523
-78.083
-87.76
-100.635
-108.126
-94.41
-49.152
28.117
130.498
241.974
346.552
436.813
508.678
561.786
600.095
623.26
629.938
620.437
591.596
542.142
473.736
388.099
289.728
184.203
76.198
-29.973
-130.383
-221.27
-299.287
-361.86
-407.533
-436.589
-450.42
-450.458
-438.529
-416.967
-388.17
-354.774
-319.257
-283.065
-246.942
-211.849
-178.74
-148.362
-121.435
-98.053
-77.834
-60.754
-46.93
-36.061
-27.58
-20.708
-14.411
-8.203
-2.095
4.035
10.247
16.394
22.225
27.246
30.794
32.646
32.95
31.879
29.727
26.827
23.508
20.263
17.63
15.914
15.231
15.607
16.977
19.298
22.54
26.586
31.272
36.45
41.99
47.796
53.791
59.859
65.844
71.613
77.069
82.158
86.863
91.173
95.074
98.573
101.699
104.498
107.021
109.313
111.408
113.346
115.174
116.949
118.736
120.586
122.53
124.593
126.785
129.115
131.591
134.206
136.946
139.794
142.736
145.762
148.864
152.027
155.232
158.46
161.686
164.891
168.056
171.161
174.185
177.108
179.91
182.572
185.08
187.414
189.554
191.479
193.168
194.602
195.762
196.629
197.188
197.421
197.318
196.867
196.059
194.889
193.351
191.443
189.165
186.519
183.509
180.141
176.425
172.371
167.992
163.305
158.326
153.074
147.57
141.834
135.891
129.765
123.483
117.069
110.553
103.961
97.324
90.67
84.028
77.428
70.897
64.466
58.161
52.009
46.035
40.264
34.719
29.422
24.391
19.645
15.2
11.071
7.27
3.807
0.69
-2.074
-4.482
-6.533
-8.226
-9.563
-10.55
-11.193
-11.499
-11.479
-11.145
-10.51
-9.59
-8.402
-6.964
-5.297
-3.42
-1.357
0.87
3.237
5.721
8.295
10.936
13.618
16.317
19.007
21.664
24.263
26.782
29.197
31.486
33.629
35.606
37.398
38.988
40.361
41.502
42.398
43.039
43.414
43.516
43.34
42.88
42.135
41.104
39.789
38.193
36.321
34.181
31.781
29.13
26.241
23.126
19.799
16.276
12.571
8.704
4.69
0.549
-3.7
-8.038
-12.444
-16.9
-21.382
-25.873
-30.35
-34.794
-39.187
-43.509
-47.741
-51.866
-55.868
-59.731
-63.441
-66.985
-70.35
-73.526
-76.504
-79.278
-81.842
-84.192
-86.326
-88.243
-89.945
-91.433
-92.713
-93.788
-94.666
-95.354
-95.859
-96.194
-96.369
-96.395
-96.288
-96.061
-95.735
-95.328
-94.86
-94.35
-93.818
-93.285
-92.77
-92.291
-91.862
-91.497
-91.212
-91.022
-90.943
-90.989
-91.172
-91.5
-91.983
-92.63
-93.445
-94.427
-95.571
-96.872
-98.329
-99.95
-101.748
-103.732
-105.9
-108.246
-110.762
-113.436
-116.246
-119.159
-122.121
-125.077
-127.983
-130.801
-133.505
-136.055
-138.404
-140.493
-142.262
-143.667
-144.678
-145.283
-145.48
-145.295
-144.771
-143.98
-143.036
-142.069
-141.21
-140.593
-140.332
-140.519
-141.292
-142.849
-145.318
-148.735
-152.974
-157.716
-162.645
-167.493
-171.874
-175.272
-177.29
-177.741
-176.945
-175.698
-174.696
-174.575
-176.086
-179.939
-186.579
-195.094
-202.815
-206.75
-204.775
-197.931
-188.902
-178.1
-162.919
-134.441
-82.737
-3.864
100.37
216.466
326.095
415.59
474.423
503.418
510.527
500.405
477.781
442.223
388.795
317.225
229.24
128.521
21.993
-84.955
-188.519
-284.645
-370.015
-442.1
-498.733
-538.939
-563.305
-572.934
-569.003
-553.177
-527.507
-494.338
-456.335
-415.812
-374.275
-332.991
-293.399
-257.052
-225.266
-198.563
-176.705
-159.232
-145.797
-135.996
-129.07
-123.674
-118.349
-112.292
-105.321
-97.547
-89.146
-80.276
-71.258
-62.863
-56.022
-51.197
-48.415
-47.44
-47.91
-49.534
-52.007
-54.805
-57.3
-59.076
-59.931
-59.836
-58.878
-57.093
-54.483
-51.112
-47.103
-42.586
-37.678
-32.458
-26.971
-21.291
-15.529
-9.833
-4.338
0.874
5.761
10.312
14.519
18.372
21.879
25.076
28.01
30.732
33.286
35.7
38.008
40.255
42.498
44.801
47.217
49.777
52.502
55.403
58.488
61.763
65.224
68.851
72.625
76.531
80.555
84.687
88.912
93.208
97.552
101.917
106.279
110.618
114.91
119.128
123.251
127.254
131.117
134.821
138.343
141.662
144.755
147.599
150.173
152.456
154.43
156.075
157.375
158.317
158.889
159.083
158.891
158.308
157.331
155.959
154.195
152.042
149.507
146.597
143.324
139.7
135.741
131.464
126.886
122.03
116.915
111.565
106.006
100.26
94.356
88.319
82.176
75.956
69.685
63.392
57.103
50.846
44.646
38.528
32.518
26.638
20.91
15.354
9.989
4.834
-0.097
-4.788
-9.229
-13.406
-17.313
-20.941
-24.285
-27.343
-30.111
-32.591
-34.784
-36.695
-38.327
-39.688
-40.785
-41.629
-42.229
-42.598
-42.747
-42.691
-42.444
-42.02
-41.435
-40.705
-39.846
-38.873
-37.803
-36.652
-35.434
-34.165
-32.861
-31.536
-30.204
-28.878
-27.571
-26.295
-25.06
-23.877
-22.755
-21.702
-20.724
-19.826
-19.015
-18.292
-17.661
-17.123
-16.677
-16.323
-16.06
-15.885
-15.793
-15.78
-15.841
-15.969
-16.157
-16.399
-16.686
-17.01
-17.362
-17.734
-18.117
-18.502
-18.879
-19.239
-19.572
-19.869
-20.12
-20.318
-20.451
-20.513
-20.496
-20.392
-20.196
-19.901
-19.503
-18.997
-18.38
-17.649
-16.801
-15.837
-14.757
-13.563
-12.259
-10.847
-9.327
-7.709
-6.004
-4.21
-2.328
-0.361
1.689
3.806
5.963
8.16
10.399
12.634
14.832
16.958
18.97
20.873
22.696
24.396
25.91
27.342
28.821
30.243
31.602
32.913
33.855
35.255
37.919
40.669
43.14
43.185
38.233
31.115
23.718
18.853
20.391
24.921
29.552
32.307
29.907
24.695
19.051
13.511
9.534
6.291
2.722
-0.944
-4.809
-8.747
-12.493
-16.147
-19.786
-23.355
-26.813
-30.14
-33.292
-36.208
-38.841
-41.144
-43.056
-44.569
-45.713
-46.512
-47.033
-47.373
-47.588
-47.756
-47.967
-48.271
-48.757
-49.521
-50.631
-52.227
-54.492
-57.457
-61.101
-65.316
-69.691
-73.801
-77.294
-79.612
-80.212
-78.977
-75.948
-71.374
-66.383
-62.263
-59.745
-59.859
-62.716
-66.401
-70.29
-74.431
-78.569
-84.522
-89.846
-87.159
-69.189
-28.793
33.828
111.41
195.382
277.98
356.412
428.297
490.218
537.27
562.623
565.107
546.112
508.178
455.312
387.393
305.002
210.822
107.881
1.944
-101.969
-200.409
-289.451
-366.111
-428.182
-473.854
-503.122
-517.279
-517.451
-505.059
-482.144
-450.866
-413.821
-373.742
-332.302
-290.456
-249.457
-210.564
-174.864
-143.373
-116.269
-93.095
-73.751
-58.275
-46.282
-37.114
-29.79
-23.073
-16.378
-9.691
-2.899
4.072
11.095
17.916
23.963
28.423
30.955
31.654
30.669
28.28
24.817
20.605
16.166
12.157
8.982
6.816
5.729
5.653
6.54
8.383
11.088
14.507
18.512
22.984
27.848
33.069
38.565
44.211
49.869
55.39
60.674
65.679
70.372
74.737
78.775
82.497
85.94
89.159
92.203
95.112
97.92
100.65
103.34
106.038
108.795
111.668
114.694
117.892
121.278
124.856
128.627
132.582
136.705
140.966
145.343
149.816
154.366
158.977
163.627
168.29
172.94
177.55
182.092
186.54
190.867
195.047
199.054
202.864
206.454
209.803
212.891
215.695
218.194
220.365
222.19
223.651
224.73
225.412
225.684
225.535
224.957
223.943
222.491
220.598
218.264
215.494
212.29
208.662
204.618
200.17
195.332
190.119
184.549
178.642
172.418
165.9
159.114
152.085
144.839
137.405
129.811
122.086
114.259
106.359
98.416
90.458
82.513
74.608
66.771
59.027
51.402
43.917
36.597
29.461
22.529
15.818
9.346
3.125
-2.832
-8.512
-13.908
-19.011
-23.815
-28.318
-32.515
-36.408
-39.998
-43.289
-46.284
-48.992
-51.42
-53.579
-55.479
-57.132
-58.551
-59.751
-60.744
-61.547
-62.175
-62.642
-62.963
-63.156
-63.234
-63.214
-63.109
-62.935
-62.706
-62.434
-62.134
-61.816
-61.493
-61.176
-60.873
-60.594
-60.348
-60.14
-59.978
-59.865
-59.806
-59.802
-59.855
-59.966
-60.131
-60.349
-60.617
-60.93
-61.282
-61.667
-62.08
-62.511
-62.955
-63.402
-63.845
-64.275
-64.685
-65.064
-65.405
-65.7
-65.939
-66.115
-66.219
-66.243
-66.181
-66.024
-65.768
-65.406
-64.933
-64.344
-63.636
-62.805
-61.849
-60.767
-59.559
-58.224
-56.766
-55.187
-53.491
-51.684
-49.772
-47.761
-45.662
-43.483
-41.233
-38.923
-36.564
-34.168
-31.748
-29.316
-26.886
-24.472
-22.09
-19.756
-17.49
-15.307
-13.226
-11.263
-9.435
-7.758
-6.248
-4.915
-3.77
-2.823
-2.088
-1.578
-1.301
-1.266
-1.479
-1.946
-2.672
-3.659
-4.904
-6.394
-8.123
-10.082
-12.273
-14.7
-17.361
-20.246
-23.346
-26.643
-30.117
-33.744
-37.487
-41.292
-45.11
-48.896
-52.618
-56.251
-59.756
-63.088
-66.196
-69.026
-71.541
-73.717
-75.526
-76.962
-78.043
-78.801
-79.305
-79.624
-79.829
-80.006
-80.235
-80.596
-81.191
-82.1
-83.447
-85.422
-88.09
-91.392
-95.204
-99.225
-103.108
-106.585
-109.238
-110.516
-110.178
-108.334
-105.348
-101.878
-98.808
-96.925
-96.801
-99.283
-103.825
-108.017
-110.871
-111.711
-110.858
-111.346
-110.65
-101.599
-77.463
-30.318
38.995
120.856
206.27
285.447
353.796
412.473
460.464
496.473
518.217
521.784
505.946
471.075
417.886
348.7
266.405
173.964
75.367
-25.21
-124.336
-218.449
-303.849
-377.61
-437.384
-481.462
-509.637
-522.477
-520.467
-504.938
-478.176
-442.732
-401.552
-357.645
-313.184
-270.05
-230.442
-195.992
-167.4
-144.745
-127.377
-114.266
-104.607
-97.512
-91.575
-85.438
-78.34
-70.025
-60.718
-50.904
-40.968
-31.3
-22.64
-15.861
-11.413
-9.352
-9.444
-11.237
-14.339
-18.419
-22.959
-27.291
-30.951
-33.662
-35.31
-35.955
-35.619
-34.28
-31.989
-28.85
-24.981
-20.516
-15.56
-10.175
-4.454
1.488
7.513
13.441
19.145
24.555
29.621
34.325
38.655
42.596
46.162
49.398
52.353
55.073
57.602
59.965
62.204
64.372
66.527
68.735
71.045
73.482
76.067
78.812
81.724
84.807
88.056
91.448
94.968
98.603
102.342
106.177
110.095
114.075
118.099
122.145
126.193
130.225
134.222
138.162
142.026
145.795
149.451
152.978
156.358
159.571
162.595
165.411
167.998
170.338
172.413
174.204
175.695
176.874
177.727
178.245
178.419
178.242
177.708
176.815
175.561
173.946
171.972
169.643
166.965
163.946
160.595
156.925
152.946
148.675
144.126
139.318
134.268
128.996
123.523
117.87
112.061
106.117
100.063
93.922
87.718
81.476
75.218
68.968
62.749
56.583
50.491
44.492
38.606
32.852
27.246
21.804
16.541
11.469
6.601
1.948
-2.481
-6.68
-10.64
-14.358
-17.831
-21.056
-24.033
-26.762
-29.245
-31.487
-33.492
-35.265
-36.815
-38.148
-39.275
-40.205
-40.949
-41.52
-41.927
-42.185
-42.305
-42.299
-42.181
-41.963
-41.657
-41.277
-40.834
-40.34
-39.807
-39.246
-38.668
-38.083
-37.499
-36.925
-36.369
-35.837
-35.336
-34.87
-34.445
-34.063
-33.728
-33.441
-33.202
-33.012
-32.867
-32.767
-32.707
-32.683
-32.69
-32.723
-32.774
-32.838
-32.908
-32.977
-33.037
-33.08
-33.098
-33.084
-33.027
-32.921
-32.755
-32.522
-32.214
-31.824
-31.346
-30.772
-30.098
-29.317
-28.427
-27.422
-26.301
-25.059
-23.696
-22.211
-20.605
-18.88
-17.039
-15.086
-13.028
-10.871
-8.623
-6.295
-3.894
-1.432
1.082
3.633
6.21
8.799
11.384
13.95
16.479
18.951
21.346
23.645
25.828
27.876
29.77
31.492
33.025
34.357
35.474
36.362
37.007
37.395
37.513
37.351
36.902
36.16
35.118
33.774
32.133
30.205
27.997
25.514
22.755
19.713
16.387
12.789
8.931
4.826
0.496
-4.037
-8.731
-13.528
-18.373
-23.216
-28.019
-32.753
-37.375
-41.828
-46.051
-49.978
-53.559
-56.77
-59.583
-61.974
-63.949
-65.528
-66.755
-67.736
-68.57
-69.351
-70.19
-71.165
-72.347
-73.876
-75.937
-78.651
-82.062
-86.044
-90.33
-94.736
-99.123
-103.198
-106.553
-108.78
-109.638
-109.454
-108.926
-108.481
-108.48
-109.398
-111.717
-115.987
-121.672
-126.286
-127.003
-122.349
-113.907
-105.271
-98.577
-91.486
-74.907
-38.369
25.64
118.004
227.841
339.11
434.654
500.886
535.218
543.003
534.326
518.075
496.952
468.093
425.171
364.68
288.163
200.581
108.493
15.828
-78.275
-175.839
-275.705
-372.083
-453.694
-509.051
-533.501
-530.182
-508.728
-479.587
-449.04
-418.283
-384.742
-346.957
-305.582
-263.077
-223.541
-189.366
-161.193
-138.972
-121.647
-108.251
-98.41
-91.368
-85.983
-81.268
-76.191
-70.224
-63.536
-56.379
-48.948
-41.594
-34.772
-29.026
-25.003
-22.959
-22.719
-23.992
-26.405
-29.571
-33.109
-36.545
-39.367
-41.258
-42.103
-41.887
-40.678
-38.529
-35.478
-31.623
-27.11
-22.074
-16.633
-10.895
-4.951
1.08
7.043
12.799
18.252
23.337
28.026
32.309
36.175
39.629
42.699
45.426
47.853
50.023
51.97
53.734
55.365
56.918
58.459
60.041
61.698
63.455
65.328
67.326
69.455
71.714
74.089
76.569
79.143
81.806
84.55
87.37
90.249
93.172
96.12
99.077
102.029
104.958
107.849
110.684
113.448
116.126
118.706
121.173
123.508
125.694
127.714
129.547
131.179
132.593
133.771
134.699
135.364
135.757
135.868
135.689
135.213
134.436
133.355
131.968
130.276
128.28
125.984
123.393
120.516
117.361
113.941
110.266
106.351
102.212
97.865
93.327
88.618
83.755
78.76
73.654
68.457
63.193
57.882
52.548
47.212
41.896
36.622
31.41
26.279
21.249
16.336
11.558
6.929
2.465
-1.821
-5.918
-9.815
-13.502
-16.972
-20.218
-23.236
-26.023
-28.576
-30.897
-32.986
-34.845
-36.478
-37.889
-39.085
-40.073
-40.859
-41.454
-41.866
-42.107
-42.188
-42.121
-41.918
-41.593
-41.156
-40.623
-40.004
-39.313
-38.562
-37.763
-36.928
-36.07
-35.2
-34.328
-33.465
-32.621
-31.805
-31.024
-30.285
-29.595
-28.96
-28.382
-27.867
-27.416
-27.033
-26.718
-26.472
-26.294
-26.183
-26.136
-26.152
-26.225
-26.35
-26.524
-26.739
-26.989
-27.269
-27.571
-27.888
-28.214
-28.539
-28.857
-29.158
-29.435
-29.679
-29.882
-30.034
-30.128
-30.157
-30.114
-29.992
-29.786
-29.489
-29.097
-28.606
-28.012
-27.311
-26.5
-25.577
-24.542
-23.395
-22.138
-20.771
-19.298
-17.724
-16.053
-14.293
-12.449
-10.528
-8.539
-6.492
-4.395
-2.26
-0.099
2.076
4.25
6.407
8.529
10.6
12.602
14.517
16.33
18.021
19.577
20.986
22.236
23.316
24.213
24.912
25.401
25.67
25.711
25.516
25.08
24.398
23.474
22.315
20.931
19.326
17.503
15.449
13.161
10.644
7.902
4.946
1.794
-1.534
-5.006
-8.568
-12.176
-15.782
-19.351
-22.863
-26.284
-29.571
-32.681
-35.544
-38.108
-40.341
-42.204
-43.684
-44.793
-45.556
-46.022
-46.276
-46.397
-46.468
-46.583
-46.812
-47.242
-47.964
-49.118
-50.92
-53.488
-56.838
-60.881
-65.325
-69.819
-74.029
-77.447
-79.468
-79.822
-78.435
-75.537
-72.091
-69.169
-67.79
-69.37
-74.05
-80.288
-86.942
-92.235
-96.525
-103.61
-113.382
-123.261
-125.891
-107.066
-59.298
19.969
127.941
249.706
372.2
482.151
563.974
613.424
630.04
617.755
588.578
548.431
498.671
438.718
364.096
274.5
174.17
68.465
-36.485
-136.15
-227.61
-308.128
-375.471
-428
-464.951
-486.763
-494.192
-488.122
-470.025
-442.069
-406.87
-367.1
-325.182
-282.96
-242.232
-205.072
-173.065
-146.873
-126.421
-111.106
-100.059
-92.51
-87.486
-83.443
-78.93
-73.173
-65.957
-57.507
-48.265
-38.614
-29.01
-20.301
-13.422
-8.834
-6.589
-6.445
-7.969
-10.797
-14.596
-18.839
-22.867
-26.237
-28.698
-30.165
-30.71
-30.359
-29.091
-26.953
-24.042
-20.464
-16.338
-11.752
-6.751
-1.414
4.158
9.836
15.446
20.869
26.039
30.912
35.474
39.715
43.619
47.2
50.503
53.573
56.455
59.188
61.793
64.306
66.777
69.262
71.829
74.523
77.371
80.394
83.602
87.001
90.596
94.379
98.325
102.415
106.633
110.964
115.398
119.916
124.494
129.108
133.732
138.339
142.906
147.407
151.815
156.104
160.248
164.224
168.011
171.583
174.915
177.983
180.76
183.223
185.348
187.112
188.494
189.475
190.038
190.168
189.853
189.084
187.852
186.153
183.985
181.348
178.244
174.68
170.662
166.202
161.313
156.009
150.308
144.23
137.795
131.027
123.952
116.595
108.986
101.152
93.125
84.936
76.616
68.198
59.714
51.197
42.678
34.19
25.764
17.431
9.221
1.162
-6.719
-14.397
-21.846
-29.045
-35.974
-42.615
-48.951
-54.968
-60.653
-65.998
-70.993
-75.633
-79.913
-83.832
-87.39
-90.588
-93.43
-95.922
-98.071
-99.885
-101.376
-102.555
-103.435
-104.03
-104.356
-104.429
-104.266
-103.884
-103.302
-102.538
-101.611
-100.541
-99.345
-98.043
-96.652
-95.192
-93.678
-92.127
-90.555
-88.976
-87.403
-85.85
-84.326
-82.843
-81.41
-80.034
-78.724
-77.483
-76.317
-75.229
-74.221
-73.294
-72.446
-71.676
-70.982
-70.359
-69.803
-69.307
-68.865
-68.469
-68.111
-67.783
-67.475
-67.177
-66.878
-66.57
-66.24
-65.878
-65.474
-65.018
-64.499
-63.909
-63.24
-62.483
-61.632
-60.679
-59.62
-58.451
-57.166
-55.764
-54.242
-52.598
-50.835
-48.953
-46.957
-44.849
-42.635
-40.322
-37.918
-35.433
-32.878
-30.263
-27.601
-24.905
-22.19
-19.471
-16.765
-14.089
-11.459
-8.894
-6.415
-4.045
-1.804
0.284
2.2
3.925
5.44
6.729
7.781
8.583
9.127
9.402
9.402
9.118
8.542
7.668
6.493
5.023
3.268
1.243
-1.034
-3.549
-6.292
-9.256
-12.439
-15.838
-19.445
-23.256
-27.26
-31.435
-35.748
-40.143
-44.56
-48.955
-53.309
-57.609
-61.832
-65.919
-69.792
-73.38
-76.62
-79.488
-81.942
-83.882
-85.271
-86.181
-86.794
-87.371
-88.073
-88.855
-89.647
-90.513
-91.465
-92.438
-93.19
-93.29
-92.557
-91.177
-89.402
-87.313
-84.968
-82.419
-79.921
-78.073
-77.256
-77.64
-79.456
-83.064
-88.821
-96.97
-107.401
-119.421
-132.091
-144.028
-153.288
-157.614
-154.659
-142.411
-119.278
-84.249
-37.043
21.47
89.29
163.473
240.375
316.473
388.082
451.233
502.237
538.049
556.309
555.753
536.146
497.324
439.932
365.87
277.827
179.493
75.373
-30.214
-133.266
-229.343
-314.386
-385.132
-439.13
-475.758
-495.915
-500.909
-492.33
-472.353
-443.436
-408.525
-370.705
-331.817
-292.842
-254.714
-218.357
-184.95
-155.596
-130.389
-108.802
-90.768
-76.357
-65.457
-57.728
-51.998
-46.82
-41.558
-36.098
-30.329
-24.251
-17.869
-11.294
-5.233
-0.574
2.301
3.376
2.862
1.124
-1.544
-4.824
-8.192
-11.075
-13.109
-14.128
-14.128
-13.2
-11.397
-8.76
-5.383
-1.406
3.04
7.85
12.93
18.207
23.577
28.892
34.021
38.875
43.396
47.565
51.383
54.849
57.976
60.805
63.379
65.747
67.954
70.031
72.019
73.966
75.929
77.971
80.147
82.489
85.023
87.764
90.717
93.886
97.265
100.835
104.578
108.479
112.523
116.699
120.991
125.376
129.831
134.328
138.842
143.351
147.827
152.245
156.579
160.804
164.897
168.836
172.599
176.161
179.496
182.58
185.388
187.901
190.094
191.949
193.447
194.573
195.312
195.655
195.592
195.116
194.222
192.908
191.174
189.023
186.459
183.489
180.122
176.372
172.253
167.78
162.972
157.849
152.432
146.745
140.813
134.66
128.314
121.801
115.149
108.387
101.544
94.648
87.727
80.809
73.922
67.092
60.345
53.705
47.196
40.841
34.659
28.672
22.896
17.347
12.041
6.99
2.205
-2.305
-6.533
-10.474
-14.125
-17.484
-20.552
-23.331
-25.824
-28.037
-29.976
-31.65
-33.067
-34.239
-35.175
-35.89
-36.396
-36.707
-36.836
-36.799
-36.61
-36.284
-35.837
-35.284
-34.639
-33.917
-33.134
-32.304
-31.44
-30.556
-29.665
-28.777
-27.903
-27.053
-26.237
-25.46
-24.731
-24.053
-23.432
-22.87
-22.371
-21.934
-21.561
-21.249
-20.998
-20.805
-20.667
-20.578
-20.535
-20.531
-20.562
-20.62
-20.7
-20.794
-20.896
-20.997
-21.09
-21.167
-21.22
-21.241
-21.221
-21.152
-21.028
-20.842
-20.587
-20.257
-19.849
-19.356
-18.777
-18.109
-17.349
-16.497
-15.551
-14.512
-13.382
-12.163
-10.859
-9.474
-8.012
-6.48
-4.885
-3.235
-1.537
0.2
1.968
3.757
5.554
7.351
9.134
10.891
12.609
14.27
15.86
17.361
18.759
20.037
21.181
22.174
23.005
23.663
24.139
24.425
24.51
24.384
24.038
23.467
22.664
21.626
20.351
18.835
17.085
15.112
12.924
10.532
7.938
5.135
2.125
-1.085
-4.486
-8.066
-11.805
-15.685
-19.669
-23.707
-27.75
-31.753
-35.681
-39.513
-43.215
-46.749
-50.072
-53.127
-55.875
-58.292
-60.346
-62.026
-63.348
-64.342
-65.07
-65.621
-66.073
-66.521
-67.062
-67.766
-68.714
-69.979
-71.673
-73.984
-77.022
-80.784
-85.183
-90.01
-94.997
-99.876
-104.21
-107.38
-108.976
-108.92
-107.429
-104.964
-102.215
-100.067
-99.536
-101.815
-106.563
-111.571
-114.936
-115.667
-115.994
-120.118
-128.092
-134.661
-128.729
-97.916
-36.957
51.981
158.831
269.551
372.108
455.141
511.457
539.244
540.319
521.526
489.538
447.277
394.329
327.534
245.643
150.892
47.976
-56.956
-159.396
-256.202
-344.15
-420.599
-483.102
-529.669
-560.012
-574.836
-574.707
-560.565
-534.147
-497.665
-454.007
-406.295
-356.701
-306.774
-258.457
-213.833
-174.601
-142.005
-116.195
-96.424
-82.205
-73.197
-68.493
-66.734
-66.347
-65.728
-64.115
-61.539
-58.013
-53.607
-48.638
-43.56
-39.076
-36.006
-34.63
-34.78
-36.189
-38.421
-41.046
-43.712
-45.967
-47.349
-47.63
-46.739
-44.703
-41.668
-37.759
-33.087
-27.804
-22.071
-16.041
-9.85
-3.625
2.503
8.414
14.015
19.241
24.058
28.456
32.429
35.988
39.173
42.026
44.598
46.937
49.079
51.073
52.978
54.857
56.782
58.81
60.978
63.316
65.844
68.575
71.517
74.668
78.011
81.534
85.225
89.074
93.074
97.213
101.472
105.829
110.26
114.744
119.259
123.783
128.291
132.76
137.167
141.491
145.711
149.805
153.747
157.513
161.076
164.411
167.494
170.3
172.806
174.989
176.83
178.311
179.418
180.136
180.455
180.363
179.854
178.924
177.569
175.79
173.588
170.968
167.937
164.505
160.684
156.487
151.93
147.032
141.812
136.291
130.493
124.44
118.159
111.676
105.018
98.213
91.289
84.276
77.202
70.096
62.988
55.905
48.875
41.925
35.079
28.361
21.796
15.404
9.206
3.219
-2.538
-8.051
-13.307
-18.293
-23
-27.421
-31.548
-35.379
-38.911
-42.143
-45.076
-47.712
-50.056
-52.113
-53.89
-55.394
-56.637
-57.628
-58.379
-58.904
-59.214
-59.326
-59.253
-59.01
-58.613
-58.078
-57.421
-56.656
-55.799
-54.866
-53.871
-52.829
-51.753
-50.656
-49.551
-48.449
-47.361
-46.295
-45.262
-44.268
-43.32
-42.425
-41.587
-40.81
-40.098
-39.451
-38.872
-38.359
-37.912
-37.529
-37.207
-36.942
-36.73
-36.566
-36.444
-36.36
-36.305
-36.273
-36.257
-36.25
-36.242
-36.227
-36.196
-36.14
-36.052
-35.926
-35.753
-35.527
-35.243
-34.893
-34.474
-33.981
-33.409
-32.755
-32.017
-31.191
-30.278
-29.277
-28.19
-27.018
-25.763
-24.431
-23.026
-21.554
-20.022
-18.436
-16.805
-15.137
-13.442
-11.731
-10.014
-8.304
-6.615
-4.962
-3.363
-1.833
-0.388
0.956
2.184
3.281
4.234
5.033
5.67
6.133
6.411
6.493
6.371
6.037
5.486
4.713
3.716
2.494
1.052
-0.597
-2.445
-4.486
-6.721
-9.158
-11.797
-14.631
-17.649
-20.837
-24.179
-27.649
-31.212
-34.815
-38.407
-41.946
-45.4
-48.743
-51.942
-54.953
-57.723
-60.196
-62.328
-64.087
-65.457
-66.434
-67.031
-67.277
-67.226
-66.965
-66.595
-66.226
-65.96
-65.879
-66.062
-66.624
-67.744
-69.568
-72.135
-75.312
-78.819
-82.374
-85.7
-88.462
-90.208
-90.519
-89.248
-86.819
-84.026
-81.583
-80.343
-81.17
-84.622
-91.302
-100.378
-108.696
-114.275
-116.057
-113.866
-110.504
-103.767
-86.517
-52.783
4.21
83.172
173.359
264.905
347.685
415.757
469.702
508.822
531.988
537.841
523.865
489.672
436.384
366.023
281.91
187.563
86.954
-15.541
-116.326
-212.17
-299.672
-375.984
-438.732
-486.078
-517.759
-534.61
-537.331
-526.902
-505.007
-473.626
-435.399
-393.315
-349.363
-304.848
-261.396
-220.637
-183.978
-152.623
-126.734
-105.653
-89.058
-76.756
-68.131
-62.301
-58.036
-53.91
-49.264
-44.104
-38.396
-32.173
-25.655
-19.192
-13.438
-9.219
-6.88
-6.324
-7.352
-9.63
-12.78
-16.404
-19.989
-22.978
-25.044
-26.083
-26.079
-25.109
-23.247
-20.54
-17.105
-13.097
-8.641
-3.834
1.237
6.503
11.849
17.112
22.17
26.942
31.38
35.475
39.224
42.62
45.685
48.468
51.019
53.389
55.619
57.74
59.792
61.826
63.899
66.08
68.417
70.941
73.674
76.629
79.81
83.219
86.846
90.665
94.657
98.803
103.089
107.502
112.024
116.629
121.293
125.988
130.689
135.371
140.008
144.572
149.038
153.382
157.581
161.614
165.457
169.086
172.478
175.608
178.453
180.993
183.207
185.076
186.584
187.717
188.464
188.817
188.771
188.32
187.463
186.201
184.537
182.476
180.027
177.199
174.003
170.454
166.568
162.363
157.859
153.075
148.035
142.762
137.282
131.619
125.801
119.854
113.806
107.685
101.519
95.335
89.161
83.023
76.946
70.957
65.078
59.33
53.735
48.311
43.074
38.041
33.223
28.633
24.28
20.173
16.316
12.714
9.369
6.281
3.45
0.872
-1.458
-3.545
-5.397
-7.023
-8.433
-9.639
-10.651
-11.484
-12.152
-12.669
-13.05
-13.312
-13.47
-13.541
-13.539
-13.482
-13.383
-13.258
-13.12
-12.984
-12.862
-12.765
-12.704
-12.689
-12.729
-12.83
-13
-13.243
-13.563
-13.963
-14.444
-15.006
-15.648
-16.369
-17.165
-18.033
-18.968
-19.964
-21.014
-22.112
-23.248
-24.414
-25.601
-26.799
-27.998
-29.188
-30.359
-31.5
-32.601
-33.652
-34.642
-35.562
-36.402
-37.153
-37.806
-38.353
-38.788
-39.105
-39.297
-39.36
-39.29
-39.085
-38.743
-38.264
-37.646
-36.891
-36.001
-34.978
-33.827
-32.552
-31.16
-29.656
-28.049
-26.347
-24.56
-22.698
-20.771
-18.79
-16.767
-14.716
-12.65
-10.582
-8.527
-6.502
-4.523
-2.608
-0.776
0.956
2.572
4.053
5.382
6.546
7.532
8.33
8.929
9.317
9.483
9.417
9.111
8.557
7.752
6.691
5.37
3.794
1.974
-0.083
-2.368
-4.878
-7.622
-10.598
-13.798
-17.216
-20.835
-24.636
-28.598
-32.684
-36.839
-41.013
-45.159
-49.238
-53.229
-57.097
-60.797
-64.283
-67.488
-70.365
-72.886
-75.013
-76.731
-78.052
-79
-79.638
-80.057
-80.333
-80.562
-80.835
-81.217
-81.795
-82.645
-83.885
-85.715
-88.258
-91.508
-95.369
-99.599
-103.89
-107.947
-111.317
-113.362
-113.647
-112.107
-109.039
-105.054
-101.006
-97.877
-96.65
-98.487
-103.105
-108.249
-111.87
-112.697
-112.43
-114.896
-119.851
-121.151
-106.852
-64.694
8.913
107.22
215.194
317.409
405.109
475.701
530.905
571.892
596.819
602.712
587.049
549.261
490.698
414.207
323.528
222.584
115.878
8.033
-97.004
-195.386
-283.351
-357.984
-417.118
-459.538
-485.591
-496.504
-493.528
-478.356
-453.265
-420.712
-383.381
-343.778
-303.467
-263.456
-225.015
-189.429
-157.653
-130.373
-107.583
-88.824
-73.947
-62.902
-55.147
-49.766
-45.693
-41.775
-37.477
-32.788
-27.591
-21.816
-15.663
-9.538
-4.089
-0.078
2.203
2.875
2.085
0.097
-2.777
-6.185
-9.603
-12.471
-14.475
-15.511
-15.574
-14.741
-13.059
-10.555
-7.334
-3.535
0.716
5.32
10.219
15.365
20.675
26.017
31.248
36.26
40.996
45.431
49.558
53.369
56.863
60.067
63.028
65.792
68.403
70.893
73.286
75.615
77.926
80.271
82.707
85.277
88.005
90.907
93.992
97.264
100.721
104.352
108.132
112.042
116.063
120.181
124.382
128.646
132.95
137.269
141.575
145.842
150.045
154.158
158.153
162.006
165.691
169.185
172.467
175.516
178.306
180.816
183.023
184.904
186.441
187.614
188.406
188.802
188.789
188.357
187.499
186.21
184.487
182.329
179.74
176.722
173.284
169.435
165.186
160.553
155.551
150.2
144.52
138.533
132.263
125.738
118.983
112.026
104.897
97.625
90.241
82.773
75.254
67.713
60.18
52.684
45.255
37.919
30.706
23.639
16.743
10.041
3.553
-2.7
-8.701
-14.435
-19.888
-25.048
-29.906
-34.453
-38.685
-42.597
-46.189
-49.46
-52.414
-55.055
-57.389
-59.423
-61.169
-62.635
-63.835
-64.783
-65.491
-65.976
-66.254
-66.34
-66.253
-66.009
-65.625
-65.119
-64.509
-63.811
-63.042
-62.219
-61.358
-60.475
-59.583
-58.697
-57.83
-56.993
-56.197
-55.451
-54.765
-54.145
-53.598
-53.127
-52.736
-52.428
-52.203
-52.061
-51.999
-52.015
-52.105
-52.264
-52.486
-52.764
-53.09
-53.458
-53.859
-54.284
-54.724
-55.169
-55.61
-56.037
-56.44
-56.809
-57.134
-57.404
-57.61
-57.743
-57.795
-57.756
-57.62
-57.38
-57.03
-56.563
-55.976
-55.266
-54.429
-53.463
-52.368
-51.145
-49.795
-48.323
-46.731
-45.023
-43.208
-41.29
-39.279
-37.182
-35.009
-32.77
-30.475
-28.136
-25.765
-23.376
-20.982
-18.598
-16.241
-13.93
-11.681
-9.513
-7.443
-5.488
-3.667
-1.995
-0.484
0.853
2.006
2.962
3.707
4.23
4.524
4.579
4.39
3.953
3.262
2.319
1.132
-0.292
-1.947
-3.833
-5.96
-8.331
-10.943
-13.789
-16.857
-20.128
-23.585
-27.193
-30.899
-34.655
-38.409
-42.122
-45.773
-49.326
-52.736
-55.95
-58.898
-61.532
-63.824
-65.744
-67.275
-68.431
-69.238
-69.766
-70.119
-70.391
-70.682
-71.096
-71.727
-72.699
-74.127
-76.154
-78.975
-82.702
-87.34
-92.77
-98.67
-104.627
-110.253
-115.054
-118.439
-120.028
-119.693
-117.784
-115.224
-113.057
-112.23
-113.559
-117.695
-124.937
-134.945
-146.315
-156.608
-162.864
-162.075
-151.671
-129.385
-93.363
-42.885
21.296
96.92
180.236
266.81
352.214
431.488
499.481
551.754
584.553
595.312
583.278
548.582
491.948
415.66
323.128
218.333
106.305
-7.802
-119.625
-224.613
-318.259
-397.208
-459.05
-502.359
-527.443
-535.399
-527.34
-505.529
-473.15
-433.456
-389.791
-345.155
-301.583
-260.84
-224.949
-195.125
-171.506
-153.628
-140.495
-131.027
-124.435
-119.817
-115.714
-110.783
-104.458
-96.71
-87.921
-78.629
-69.173
-59.913
-51.6
-45.09
-40.776
-38.676
-38.501
-39.757
-42.098
-45.223
-48.654
-51.842
-54.375
-56.002
-56.663
-56.427
-55.327
-53.374
-50.615
-47.135
-43.059
-38.508
-33.578
-28.357
-22.926
-17.39
-11.887
-6.532
-1.419
3.388
7.869
12.016
15.819
19.287
22.443
25.316
27.957
30.415
32.723
34.929
37.074
39.212
41.406
43.707
46.149
48.756
51.54
54.509
57.668
61.016
64.537
68.22
72.048
76.008
80.09
84.281
88.559
92.904
97.291
101.694
106.094
110.467
114.791
119.043
123.198
127.235
131.135
134.877
138.435
141.788
144.909
147.777
150.37
152.667
154.647
156.291
157.584
158.513
159.065
159.232
159.007
158.384
157.36
155.937
154.115
151.9
149.298
146.318
142.972
139.273
135.238
130.883
126.226
121.29
116.095
110.665
105.025
99.2
93.216
87.101
80.883
74.588
68.245
61.883
55.528
49.207
42.948
36.774
30.712
24.784
19.012
13.415
8.013
2.823
-2.141
-6.866
-11.339
-15.553
-19.498
-23.17
-26.565
-29.681
-32.517
-35.075
-37.359
-39.372
-41.121
-42.614
-43.86
-44.869
-45.653
-46.223
-46.594
-46.78
-46.794
-46.653
-46.372
-45.965
-45.45
-44.842
-44.156
-43.407
-42.61
-41.78
-40.93
-40.072
-39.218
-38.379
-37.564
-36.782
-36.039
-35.343
-34.698
-34.108
-33.576
-33.103
-32.69
-32.336
-32.04
-31.798
-31.606
-31.46
-31.353
-31.279
-31.23
-31.197
-31.172
-31.147
-31.11
-31.054
-30.969
-30.844
-30.67
-30.437
-30.136
-29.758
-29.294
-28.734
-28.073
-27.302
-26.415
-25.409
-24.277
-23.018
-21.628
-20.105
-18.451
-16.665
-14.749
-12.705
-10.538
-8.251
-5.852
-3.348
-0.748
1.939
4.701
7.528
10.405
13.32
16.258
19.206
22.15
25.074
27.961
30.798
33.567
36.251
38.833
41.292
43.61
45.767
47.746
49.528
51.098
52.44
53.543
54.397
54.995
55.329
55.39
55.172
54.67
53.883
52.811
51.454
49.817
47.907
45.739
43.329
40.692
37.838
34.771
31.489
27.994
24.296
20.405
16.335
12.104
7.736
3.272
-1.235
-5.732
-10.174
-14.52
-18.737
-22.778
-26.589
-30.106
-33.26
-35.998
-38.287
-40.098
-41.419
-42.254
-42.608
-42.539
-42.157
-41.565
-40.876
-40.193
-39.588
-39.212
-39.297
-40.032
-41.525
-43.761
-46.562
-49.725
-53.067
-56.228
-58.709
-60.078
-60.153
-59.144
-57.571
-56.266
-56.179
-58.283
-63.882
-72.772
-82.752
-91.905
-98.1
-102.263
-109.341
-119.996
-131.117
-133.681
-111.58
-56.054
34.669
154.32
284.51
408.478
510.918
580.028
615.538
621.871
607.405
581.259
546.418
501.112
441.286
364.963
273.802
173.66
72.013
-27.791
-123.072
-212.926
-297.425
-370.833
-428.843
-467.899
-484.43
-482.805
-467.193
-441.633
-412.18
-379.262
-343.286
-305.674
-266.239
-227.575
-192.629
-162.416
-137.493
-117.235
-100.472
-86.847
-76.085
-67.412
-59.609
-51.399
-42.155
-31.987
-21.324
-10.476
0.359
10.884
20.413
28.034
33.278
36.129
36.845
35.835
33.4
29.782
25.428
20.953
16.836
13.421
10.873
9.175
8.341
8.405
9.353
11.131
13.659
16.832
20.569
24.813
29.505
34.585
39.961
45.502
51.079
56.561
61.861
66.935
71.75
76.287
80.54
84.516
88.246
91.781
95.161
98.418
101.58
104.667
107.713
110.763
113.863
117.062
120.391
123.864
127.494
131.284
135.231
139.327
143.552
147.875
152.275
156.731
161.223
165.735
170.244
174.726
179.155
183.506
187.754
191.874
195.843
199.637
203.236
206.618
209.765
212.663
215.295
217.645
219.697
221.436
222.848
223.924
224.652
225.026
225.037
224.684
223.965
222.882
221.437
219.636
217.487
214.997
212.178
209.043
205.605
201.881
197.887
193.642
189.164
184.475
179.595
174.544
169.347
164.023
158.597
153.089
147.521
141.915
136.29
130.666
125.062
119.494
113.979
108.529
103.159
97.879
92.7
87.628
82.67
77.831
73.112
68.517
64.043
59.689
55.451
51.325
47.303
43.38
39.547
35.793
32.11
28.486
24.909
21.368
17.849
14.342
10.832
7.308
3.756
0.166
-3.474
-7.174
-10.943
-14.789
-18.721
-22.743
-26.86
-31.076
-35.393
-39.812
-44.332
-48.951
-53.666
-58.473
-63.364
-68.333
-73.372
-78.469
-83.615
-88.798
-94.005
-99.222
-104.435
-109.63
-114.789
-119.897
-124.937
-129.892
-134.744
-139.476
-144.071
-148.512
-152.782
-156.866
-160.749
-164.416
-167.854
-171.051
-173.994
-176.674
-179.079
-181.202
-183.036
-184.574
-185.813
-186.75
-187.382
-187.711
-187.739
-187.466
-186.899
-186.042
-184.901
-183.484
-181.801
-179.862
-177.678
-175.264
-172.634
-169.802
-166.788
-163.609
-160.283
-156.828
-153.265
-149.612
-145.891
-142.123
-138.329
-134.529
-130.746
-127.005
-123.331
-119.748
-116.278
-112.946
-109.77
-106.774
-103.978
-101.397
-99.045
-96.933
-95.074
-93.481
-92.167
-91.139
-90.402
-89.957
-89.804
-89.941
-90.366
-91.069
-92.036
-93.253
-94.705
-96.385
-98.294
-100.429
-102.775
-105.315
-108.025
-110.881
-113.857
-116.918
-120.013
-123.095
-126.116
-129.03
-131.8
-134.394
-136.78
-138.922
-140.786
-142.312
-143.446
-144.172
-144.485
-144.411
-144.005
-143.272
-142.2
-140.923
-139.664
-138.638
-138.087
-138.062
-138.43
-139.315
-140.955
-143.221
-145.7
-147.721
-148.408
-147.46
-145.097
-141.114
-135.25
-127.908
-119.908
-112.713
-108.319
-107.813
-111.438
-119.738
-132.009
-145.688
-158.026
-166.256
-169.828
-170.766
-170.111
-164.948
-146.466
-105.553
-35.799
63.29
180.079
300.304
408.141
486.104
528.691
536.797
516.119
480.149
435.985
384.636
325.074
252.736
166.988
71.585
-28.687
-128.643
-224.716
-314.055
-393.867
-462.014
-516.552
-556.317
-581.446
-592.051
-588.372
-571.819
-544.342
-508.245
-466.382
-421.332
-374.887
-329.02
-285.83
-246.817
-213.186
-185.448
-163.153
-145.633
-132.408
-122.702
-115.465
-109.619
-103.933
-97.7
-90.911
-83.748
-76.427
-69.296
-62.783
-57.42
-53.856
-52.353
-52.748
-54.753
-57.96
-61.915
-66.157
-70.184
-73.468
-75.696
-76.764
-76.64
-75.379
-73.047
-69.702
-65.464
-60.502
-54.959
-48.955
-42.603
-35.999
-29.28
-22.623
-16.16
-9.978
-4.13
1.375
6.526
11.314
15.756
19.901
23.798
27.502
31.059
34.503
37.882
41.252
44.675
48.22
51.939
55.861
60.007
64.386
69.003
73.857
78.938
84.218
89.676
95.294
101.053
106.94
112.934
119.006
125.13
131.276
137.415
143.521
149.565
155.519
161.353
167.042
172.56
177.884
182.987
187.842
192.423
196.703
200.656
204.259
207.488
210.323
212.743
214.734
216.282
217.375
218.005
218.166
217.854
217.068
215.809
214.081
211.89
209.244
206.153
202.633
198.697
194.365
189.656
184.592
179.196
173.495
167.514
161.284
154.832
148.19
141.388
134.459
127.434
120.347
113.227
106.108
99.02
91.994
85.058
78.241
71.568
65.065
58.754
52.659
46.798
41.189
35.85
30.795
26.036
21.585
17.45
13.638
10.155
7.003
4.183
1.696
-0.464
-2.299
-3.817
-5.026
-5.935
-6.557
-6.904
-6.989
-6.828
-6.437
-5.832
-5.03
-4.05
-2.908
-1.623
-0.213
1.305
2.912
4.592
6.327
8.103
9.903
11.712
13.518
15.305
17.062
18.777
20.44
22.041
23.572
25.026
26.398
27.682
28.876
29.979
30.989
31.909
32.739
33.484
34.148
34.734
35.251
35.703
36.1
36.449
36.758
37.037
37.295
37.542
37.787
38.04
38.31
38.605
38.934
39.307
39.73
40.212
40.758
41.377
42.074
42.855
43.724
44.685
45.739
46.888
48.132
49.47
50.899
52.416
54.015
55.69
57.437
59.246
61.108
63.014
64.953
66.913
68.882
70.846
72.787
74.689
76.535
78.309
79.993
81.572
83.03
84.353
85.531
86.553
87.408
88.083
88.567
88.851
88.925
88.784
88.422
87.834
87.02
85.984
84.736
83.283
81.631
79.776
77.712
75.436
72.954
70.277
67.417
64.389
61.214
57.928
54.582
51.224
47.896
44.629
41.449
38.391
35.502
32.838
30.457
28.403
26.709
25.39
24.456
23.892
23.669
23.742
24.019
24.398
24.784
25.084
25.214
25.115
24.65
23.61
21.874
19.413
16.31
12.823
9.199
5.624
2.468
0.249
-0.701
-0.319
1.096
2.867
4.224
4.479
2.843
-1.751
-8.965
-16.798
-23.373
-26.293
-26.029
-26.849
-29.438
-32.077
-28.3
-4.655
46.333
127.184
234.219
351.335
462.748
553.263
610.349
634.197
630.532
608.34
577.169
539.26
492.113
431.929
356.602
268.111
171.325
72.003
-25.67
-118.869
-204.989
-281.71
-346.768
-398.254
-435.372
-458.262
-467.255
-462.904
-446.302
-419.275
-384.198
-343.655
-300.153
-255.759
-212.497
-172.64
-138.08
-109.754
-87.821
-71.85
-60.937
-54.173
-50.46
-48.078
-45.362
-41.389
-35.801
-28.699
-20.5
-11.575
-2.394
6.101
12.888
17.427
19.603
19.639
17.922
14.75
10.421
5.447
0.49
-3.94
-7.559
-10.276
-12.134
-13.16
-13.33
-12.661
-11.251
-9.21
-6.649
-3.66
-0.267
3.505
7.584
11.873
16.236
20.527
24.665
28.608
32.321
35.789
38.998
41.943
44.66
47.206
49.626
51.964
54.247
56.492
58.734
61.017
63.392
65.913
68.615
71.514
74.624
77.952
81.5
85.263
89.22
93.341
97.599
101.972
106.437
110.977
115.564
120.168
124.759
129.307
133.779
138.146
142.376
146.437
150.301
153.936
157.316
160.417
163.212
165.677
167.784
169.51
170.832
171.728
172.18
172.168
171.679
170.699
169.221
167.237
164.745
161.744
158.235
154.225
149.72
144.73
139.27
133.354
127.001
120.231
113.066
105.531
97.652
89.458
80.98
72.249
63.297
54.159
44.868
35.46
25.97
16.434
6.886
-2.639
-12.107
-21.484
-30.737
-39.836
-48.75
-57.452
-65.914
-74.112
-82.024
-89.629
-96.908
-103.847
-110.431
-116.648
-122.49
-127.947
-133.017
-137.695
-141.98
-145.876
-149.384
-152.511
-155.264
-157.651
-159.685
-161.377
-162.741
-163.791
-164.543
-165.014
-165.22
-165.181
-164.914
-164.438
-163.771
-162.934
-161.946
-160.824
-159.586
-158.251
-156.836
-155.355
-153.825
-152.259
-150.672
-149.074
-147.478
-145.893
-144.329
-142.792
-141.29
-139.827
-138.407
-137.032
-135.703
-134.421
-133.185
-131.992
-130.84
-129.725
-128.643
-127.589
-126.559
-125.545
-124.541
-123.54
-122.535
-121.518
-120.481
-119.416
-118.316
-117.172
-115.978
-114.726
-113.411
-112.026
-110.565
-109.025
-107.4
-105.687
-103.883
-101.986
-99.996
-97.913
-95.738
-93.475
-91.125
-88.695
-86.189
-83.615
-80.98
-78.293
-75.561
-72.795
-70.004
-67.201
-64.397
-61.604
-58.836
-56.11
-53.441
-50.848
-48.347
-45.957
-43.694
-41.576
-39.617
-37.832
-36.233
-34.829
-33.633
-32.657
-31.91
-31.403
-31.141
-31.127
-31.365
-31.857
-32.6
-33.588
-34.811
-36.259
-37.929
-39.821
-41.942
-44.291
-46.86
-49.638
-52.613
-55.77
-59.087
-62.529
-66.045
-69.587
-73.113
-76.586
-79.974
-83.232
-86.302
-89.121
-91.625
-93.768
-95.522
-96.858
-97.758
-98.219
-98.248
-97.896
-97.26
-96.435
-95.534
-94.672
-93.946
-93.505
-93.562
-94.266
-95.687
-97.764
-100.233
-102.808
-105.245
-107.194
-108.236
-108.076
-106.568
-104.009
-101.269
-99.243
-98.743
-100.576
-105.31
-113.232
-124.22
-137.123
-149.672
-159.311
-163.28
-158.888
-143.965
-116.537
-75.267
-20.406
46.261
121.976
202.905
284.876
363.792
434.905
493.591
536.304
560.378
564.239
547.792
511.522
456.385
384.723
299.649
204.616
103.789
1.345
-99.205
-194.304
-280.34
-354.447
-414.355
-458.578
-487.111
-500.814
-500.561
-487.706
-464.312
-432.716
-395.642
-355.81
-314.989
-274.346
-235.279
-199.132
-166.903
-139.313
-116.292
-97.233
-81.878
-70.119
-61.447
-55.085
-50.062
-45.303
-40.355
-35.282
-30.058
-24.675
-19.314
-14.302
-10.172
-7.576
-6.74
-7.501
-9.64
-12.841
-16.735
-20.926
-24.936
-28.252
-30.58
-31.837
-32.006
-31.152
-29.337
-26.608
-23.076
-18.893
-14.185
-9.054
-3.592
2.121
7.963
13.764
19.399
24.781
29.856
34.613
39.04
43.127
46.888
50.366
53.603
56.647
59.536
62.293
64.956
67.572
70.194
72.887
75.696
78.649
81.766
85.054
88.519
92.16
95.966
99.913
103.98
108.151
112.408
116.742
121.135
125.564
130.004
134.43
138.82
143.152
147.401
151.543
155.557
159.421
163.116
166.623
169.925
173
175.827
178.386
180.659
182.628
184.275
185.586
186.547
187.146
187.377
187.232
186.707
185.8
184.51
182.841
180.797
178.384
175.61
172.485
169.022
165.236
161.142
156.757
152.101
147.193
142.056
136.711
131.183
125.494
119.671
113.738
107.72
101.642
95.531
89.41
83.306
77.241
71.238
65.322
59.513
53.831
48.295
42.922
37.728
32.727
27.932
23.352
18.998
14.876
10.992
7.351
3.955
0.806
-2.098
-4.757
-7.177
-9.361
-11.315
-13.046
-14.563
-15.874
-16.989
-17.918
-18.673
-19.265
-19.705
-20.007
-20.183
-20.245
-20.208
-20.083
-19.885
-19.625
-19.316
-18.969
-18.596
-18.207
-17.813
-17.421
-17.041
-16.681
-16.346
-16.042
-15.775
-15.548
-15.364
-15.225
-15.132
-15.085
-15.082
-15.122
-15.204
-15.323
-15.476
-15.659
-15.867
-16.095
-16.337
-16.588
-16.841
-17.088
-17.322
-17.536
-17.722
-17.872
-17.978
-18.032
-18.027
-17.954
-17.808
-17.582
-17.269
-16.863
-16.361
-15.756
-15.047
-14.229
-13.302
-12.264
-11.115
-9.857
-8.492
-7.023
-5.454
-3.789
-2.034
-0.197
1.714
3.692
5.728
7.811
9.929
12.071
14.224
16.374
18.507
20.607
22.654
24.631
26.52
28.301
29.956
31.467
32.814
33.984
34.963
35.74
36.302
36.635
36.728
36.57
36.155
35.475
34.527
33.307
31.814
30.053
28.035
25.769
23.259
20.504
17.497
14.239
10.738
7.006
3.059
-1.085
-5.402
-9.854
-14.388
-18.953
-23.505
-28.009
-32.434
-36.741
-40.875
-44.771
-48.363
-51.599
-54.444
-56.878
-58.89
-60.483
-61.682
-62.527
-63.104
-63.51
-63.828
-64.134
-64.518
-65.061
-65.917
-67.32
-69.394
-72.144
-75.493
-79.189
-82.929
-86.453
-89.34
-91.028
-91.225
-89.95
-87.514
-84.618
-82.228
-81.319
-82.693
-87.207
-94.4
-102.149
-109.544
-115.703
-120.138
-124.921
-127.123
-120.325
-100.009
-58.2
6.662
88.523
184.307
283.959
376.464
456.775
515.13
548.861
563.502
560.992
546.569
522.289
482.418
424.851
349.82
259.15
159.077
55.231
-49.148
-150.585
-244.92
-328.379
-397.589
-449.97
-485.082
-503.6
-505.816
-492.977
-467.854
-433.533
-393.542
-351.424
-309.297
-268.818
-232.06
-200.377
-174.299
-153.816
-137.987
-125.587
-116.009
-108.52
-101.992
-95.537
-88.342
-79.992
-70.809
-61.35
-51.957
-42.905
-34.683
-27.718
-22.263
-19.576
-20.291
-22.889
-26.998
-29.235
-25.864
-20.573
-15.051
-13.973
-23.749
-37.878
-51.506
-59.735
-55.195
-43.841
-31.203
-19.973
-15.135
-13.523
-11.621
-9.165
-4.622
0.955
6.072
10.976
15.591
19.919
24.161
28.173
31.82
35.146
38.208
41.018
43.603
46.022
48.309
50.514
52.711
54.939
57.247
59.684
62.273
65.028
67.961
71.074
74.369
77.837
81.457
85.21
89.079
93.05
97.112
101.246
105.429
109.636
113.842
118.024
122.159
126.223
130.19
134.037
137.74
141.279
144.634
147.784
150.706
153.38
155.783
157.896
159.7
161.178
162.315
163.097
163.513
163.556
163.218
162.496
161.387
159.892
158.012
155.753
153.119
150.121
146.768
143.075
139.056
134.728
130.109
125.219
120.078
114.71
109.138
103.386
97.479
91.443
85.304
79.089
72.825
66.538
60.254
53.998
47.795
41.669
35.64
29.732
23.963
18.352
12.915
7.667
2.623
-2.206
-6.809
-11.177
-15.303
-19.183
-22.812
-26.188
-29.312
-32.182
-34.803
-37.177
-39.31
-41.208
-42.877
-44.327
-45.566
-46.606
-47.458
-48.133
-48.644
-49.004
-49.225
-49.322
-49.306
-49.191
-48.989
-48.713
-48.375
-47.987
-47.559
-47.102
-46.627
-46.142
-45.655
-45.174
-44.705
-44.255
-43.827
-43.427
-43.056
-42.717
-42.412
-42.142
-41.905
-41.7
-41.526
-41.38
-41.257
-41.153
-41.064
-40.983
-40.905
-40.824
-40.733
-40.624
-40.492
-40.328
-40.127
-39.88
-39.58
-39.218
-38.789
-38.286
-37.702
-37.033
-36.273
-35.417
-34.463
-33.407
-32.248
-30.984
-29.615
-28.14
-26.561
-24.881
-23.103
-21.232
-19.273
-17.233
-15.119
-12.942
-10.71
-8.435
-6.126
-3.796
-1.456
0.88
3.199
5.485
7.725
9.9
11.992
13.981
15.848
17.575
19.144
20.537
21.738
22.733
23.511
24.062
24.377
24.443
24.249
23.789
23.056
22.047
20.761
19.196
17.355
15.248
12.887
10.285
7.449
4.377
1.065
-2.484
-6.262
-10.251
-14.436
-18.794
-23.298
-27.905
-32.557
-37.198
-41.781
-46.269
-50.63
-54.818
-58.774
-62.436
-65.739
-68.635
-71.092
-73.093
-74.627
-75.709
-76.368
-76.658
-76.674
-76.524
-76.314
-76.157
-76.167
-76.452
-77.173
-78.553
-80.705
-83.609
-87.106
-90.829
-94.413
-97.593
-100.015
-101.178
-100.824
-99.091
-96.519
-94.214
-93.242
-94.141
-97.324
-103.259
-111.862
-122.19
-132.581
-140.333
-142.33
-136.469
-121.133
-94.339
-55.936
-6.916
52.523
119.714
192.82
271.019
348.136
418.324
474.976
510.96
527.036
524.848
506.447
475.212
429.343
368.174
293.538
206.999
113.252
17.289
-77.651
-167.886
-250.223
-322.362
-382.118
-427.989
-459.782
-478.347
-484.848
-480.811
-467.786
-446.956
-419.73
-387.925
-353.099
-316.152
-277.824
-238.82
-200.208
-163.84
-131.362
-103.525
-80.59
-62.76
-50.116
-42.53
-39.321
-38.845
-39.316
-39.648
-39.313
-38.062
-35.843
-32.707
-28.914
-25.223
-22.533
-21.28
-21.532
-23.12
-25.664
-28.76
-32.049
-35.056
-37.293
-38.515
-38.616
-37.601
-35.597
-32.711
-29.034
-24.713
-19.891
-14.676
-9.177
-3.485
2.3
8.026
13.57
18.859
23.838
28.492
32.813
36.79
40.443
43.816
46.955
49.902
52.691
55.343
57.894
60.393
62.892
65.453
68.123
70.928
73.892
77.026
80.335
83.822
87.475
91.269
95.187
99.211
103.328
107.527
111.791
116.097
120.422
124.741
129.03
133.267
137.426
141.484
145.416
149.201
152.819
156.251
159.476
162.472
165.219
167.695
169.88
171.755
173.302
174.502
175.342
175.808
175.892
175.584
174.881
173.777
172.273
170.369
168.07
165.381
162.309
158.866
155.062
150.913
146.436
141.648
136.569
131.222
125.629
119.815
113.805
107.626
101.303
94.866
88.34
81.755
75.138
68.518
61.92
55.372
48.9
42.529
36.283
30.185
24.255
18.511
12.973
7.654
2.571
-2.267
-6.847
-11.163
-15.207
-18.973
-22.461
-25.668
-28.595
-31.245
-33.623
-35.735
-37.587
-39.189
-40.55
-41.682
-42.596
-43.305
-43.823
-44.164
-44.343
-44.374
-44.274
-44.057
-43.738
-43.333
-42.856
-42.321
-41.742
-41.131
-40.501
-39.862
-39.226
-38.601
-37.998
-37.423
-36.884
-36.385
-35.932
-35.528
-35.175
-34.875
-34.626
-34.428
-34.28
-34.177
-34.117
-34.094
-34.103
-34.137
-34.191
-34.257
-34.327
-34.393
-34.448
-34.483
-34.49
-34.461
-34.389
-34.265
-34.081
-33.831
-33.508
-33.105
-32.617
-32.038
-31.363
-30.589
-29.711
-28.729
-27.638
-26.439
-25.131
-23.715
-22.192
-20.567
-18.842
-17.023
-15.116
-13.127
-11.066
-8.941
-6.76
-4.535
-2.276
0.005
2.296
4.583
6.854
9.095
11.288
13.418
15.466
17.417
19.255
20.962
22.522
23.915
25.128
26.148
26.966
27.568
27.941
28.074
27.958
27.589
26.965
26.083
24.94
23.533
21.864
19.946
17.793
15.419
12.828
10.019
6.994
3.767
0.355
-3.226
-6.961
-10.833
-14.818
-18.868
-22.935
-26.972
-30.934
-34.794
-38.532
-42.126
-45.549
-48.754
-51.686
-54.293
-56.546
-58.441
-60.009
-61.258
-62.157
-62.773
-63.282
-63.955
-65.078
-66.77
-68.913
-71.429
-74.475
-78.101
-82.122
-85.996
-88.902
-90.374
-90.545
-89.631
-87.475
-83.954
-79.282
-74.328
-70.559
-69.212
-70.805
-75.469
-83.797
-95.212
-107.418
-118.152
-124.535
-127.045
-130.646
-136.737
-143.43
-142.721
-119.236
-64.585
23.161
138.281
263.039
381.544
479.295
544.882
578.329
583.875
569.137
542.415
505.846
457.521
393.936
313.545
218.743
114.852
8.463
-95.676
-194.265
-284.05
-362.416
-426.981
-475.802
-508.727
-526.776
-530.826
-522.12
-502.542
-474.192
-439.722
-401.96
-362.699
-322.982
-284.125
-247.406
-213.778
-184.084
-158.311
-135.775
-116.253
-99.744
-85.858
-74.028
-63.518
-53.379
-43.309
-33.575
-24.228
-15.292
-6.941
0.62
6.903
11.224
13.37
13.533
11.941
8.926
4.814
-0.095
-5.278
-10.085
-14.103
-17.12
-19.059
-19.975
-19.883
-18.771
-16.714
-13.846
-10.299
-6.207
-1.656
3.308
8.603
14.11
19.674
25.129
30.363
35.317
39.958
44.274
48.256
51.907
55.264
58.386
61.328
64.139
66.856
69.503
72.12
74.757
77.47
80.32
83.348
86.576
90.019
93.683
97.569
101.673
105.975
110.445
115.057
119.789
124.621
129.536
134.51
139.514
144.52
149.499
154.422
159.261
163.988
168.574
172.992
177.216
181.221
184.987
188.49
191.706
194.614
197.189
199.412
201.264
202.727
203.786
204.426
204.639
204.415
203.75
202.641
201.088
199.092
196.66
193.798
190.516
186.825
182.742
178.281
173.464
168.309
162.839
157.08
151.056
144.795
138.326
131.678
124.88
117.964
110.96
103.899
96.812
89.729
82.679
75.691
68.793
62.012
55.372
48.898
42.613
36.535
30.683
25.075
19.723
14.642
9.84
5.326
1.106
-2.816
-6.437
-9.757
-12.78
-15.507
-17.946
-20.102
-21.986
-23.608
-24.98
-26.115
-27.026
-27.73
-28.242
-28.578
-28.754
-28.788
-28.696
-28.496
-28.205
-27.838
-27.412
-26.941
-26.441
-25.925
-25.404
-24.892
-24.398
-23.932
-23.502
-23.114
-22.775
-22.49
-22.262
-22.093
-21.984
-21.934
-21.943
-22.006
-22.12
-22.28
-22.48
-22.713
-22.974
-23.253
-23.543
-23.835
-24.121
-24.391
-24.636
-24.847
-25.014
-25.128
-25.18
-25.163
-25.07
-24.894
-24.629
-24.271
-23.814
-23.257
-22.597
-21.831
-20.959
-19.98
-18.897
-17.71
-16.425
-15.045
-13.577
-12.028
-10.406
-8.721
-6.981
-5.197
-3.38
-1.541
0.307
2.152
3.98
5.777
7.527
9.214
10.818
12.323
13.712
14.969
16.077
17.02
17.784
18.355
18.724
18.884
18.823
18.532
18.002
17.228
16.208
14.943
13.433
11.678
9.681
7.452
5.004
2.354
-0.489
-3.519
-6.738
-10.144
-13.722
-17.455
-21.333
-25.336
-29.448
-33.637
-37.853
-42.047
-46.174
-50.189
-54.069
-57.789
-61.315
-64.617
-67.64
-70.318
-72.619
-74.52
-76.003
-77.098
-77.791
-78.041
-77.976
-77.81
-77.758
-78.082
-78.856
-79.975
-81.546
-83.796
-86.657
-89.799
-92.666
-94.507
-95.073
-94.6
-93.004
-90.026
-85.781
-80.934
-76.766
-74.938
-76.425
-81.245
-89.488
-101.364
-116.475
-133.332
-149.434
-161.548
-166.461
-162.238
-147.291
-119.455
-78.607
-26.144
37.199
108.291
185.193
267.122
347.202
418.673
474.094
505.848
515.358
505.023
477.569
437.045
381.861
311.994
229.961
137.601
40.001
-57.809
-152.783
-241.093
-319.543
-386.276
-439.426
-477.86
-502.055
-513.158
-512.553
-502.312
-484.45
-460.406
-431.9
-400.771
-368.015
-334.119
-299.447
-264.1
-228.64
-194.436
-162.618
-133.704
-108.235
-86.752
-69.694
-57.42
-49.642
-45.084
-42.299
-40.377
-38.713
-36.899
-34.676
-31.821
-28.356
-24.859
-22.126
-20.557
-20.233
-21.028
-22.611
-24.661
-26.908
-28.935
-30.257
-30.616
-29.895
-28.093
-25.347
-21.771
-17.453
-12.532
-7.162
-1.457
4.464
10.501
16.558
22.489
28.179
33.556
38.564
43.191
47.432
51.284
54.774
57.956
60.88
63.594
66.142
68.551
70.864
73.131
75.409
77.76
80.232
82.854
85.65
88.633
91.811
95.186
98.747
102.472
106.341
110.339
114.453
118.67
122.975
127.343
131.752
136.177
140.595
144.981
149.312
153.562
157.706
161.72
165.584
169.275
172.771
176.048
179.082
181.848
184.323
186.485
188.313
189.788
190.892
191.611
191.932
191.847
191.348
190.43
189.09
187.329
185.15
182.556
179.555
176.155
172.369
168.211
163.697
158.843
153.67
148.199
142.452
136.454
130.231
123.807
117.212
110.473
103.619
96.679
89.684
82.664
75.646
68.661
61.736
54.9
48.178
41.595
35.173
28.934
22.897
17.081
11.499
6.167
1.096
-3.704
-8.226
-12.463
-16.412
-20.071
-23.439
-26.518
-29.311
-31.823
-34.06
-36.031
-37.743
-39.209
-40.438
-41.443
-42.24
-42.841
-43.264
-43.523
-43.635
-43.618
-43.488
-43.262
-42.958
-42.59
-42.175
-41.727
-41.261
-40.789
-40.326
-39.88
-39.464
-39.086
-38.754
-38.474
-38.254
-38.095
-38.003
-37.979
-38.024
-38.139
-38.321
-38.57
-38.882
-39.255
-39.682
-40.16
-40.683
-41.242
-41.831
-42.441
-43.064
-43.69
-44.311
-44.915
-45.494
-46.038
-46.537
-46.984
-47.369
-47.685
-47.923
-48.077
-48.142
-48.111
-47.981
-47.746
-47.406
-46.957
-46.399
-45.734
-44.961
-44.083
-43.103
-42.026
-40.858
-39.603
-38.269
-36.863
-35.395
-33.873
-32.31
-30.715
-29.103
-27.487
-25.884
-24.31
-22.783
-21.32
-19.938
-18.654
-17.485
-16.447
-15.553
-14.813
-14.242
-13.851
-13.655
-13.667
-13.896
-14.35
-15.037
-15.96
-17.127
-18.535
-20.175
-22.043
-24.134
-26.447
-28.993
-31.772
-34.779
-38.005
-41.436
-45.051
-48.832
-52.746
-56.743
-60.779
-64.81
-68.802
-72.739
-76.585
-80.299
-83.831
-87.118
-90.117
-92.803
-95.147
-97.135
-98.778
-100.096
-101.14
-101.987
-102.703
-103.365
-104.057
-104.853
-105.856
-107.154
-108.868
-111.182
-114.181
-117.837
-122.014
-126.389
-130.597
-134.361
-137.297
-138.902
-138.939
-137.436
-134.811
-131.992
-129.889
-129.17
-130.436
-134.216
-140.635
-149.155
-158.415
-166.327
-170.311
-167.806
-156.831
-135.33
-102.512
-59.851
-7.939
52.622
121.183
199.229
282.772
362.387
428.383
469.381
482.118
472.188
445.254
408.279
362.937
305.241
234.33
150.796
57.607
-39.052
-135.283
-228.559
-315.278
-392.544
-457.774
-508.474
-543.98
-564.861
-571.259
-563.578
-543.578
-513.648
-476.783
-436.27
-394.23
-352.104
-311.717
-274.921
-242.984
-216.429
-194.792
-177.097
-162.817
-151.559
-142.639
-135.008
-127.464
-119.351
-110.715
-101.907
-93.219
-84.86
-77.072
-70.428
-65.685
-63.167
-62.789
-64.23
-67.04
-70.863
-75.36
-79.992
-84.167
-87.496
-89.767
-90.944
-91.093
-90.23
-88.369
-85.584
-81.994
-77.742
-72.962
-67.748
-62.189
-56.394
-50.504
-44.699
-39.119
-33.847
-28.933
-24.393
-20.238
-16.482
-13.11
-10.079
-7.343
-4.853
-2.565
-0.448
1.542
3.46
5.366
7.33
9.405
11.621
13.999
16.553
19.286
22.205
25.301
28.553
31.943
35.458
39.084
42.813
46.63
50.512
54.439
58.384
62.327
66.247
70.12
73.923
77.636
81.237
84.707
88.028
91.181
94.143
96.894
99.413
101.677
103.669
105.37
106.762
107.829
108.559
108.942
108.968
108.631
107.926
106.85
105.403
103.586
101.402
98.857
95.958
92.714
89.139
85.245
81.048
76.564
71.812
66.812
61.586
56.155
50.544
44.776
38.876
32.87
26.784
20.643
14.475
8.303
2.154
-3.948
-9.98
-15.917
-21.74
-27.427
-32.961
-38.323
-43.497
-48.468
-53.225
-57.755
-62.049
-66.099
-69.898
-73.443
-76.73
-79.757
-82.526
-85.037
-87.295
-89.303
-91.068
-92.596
-93.896
-94.978
-95.852
-96.529
-97.021
-97.341
-97.501
-97.515
-97.396
-97.157
-96.812
-96.373
-95.854
-95.266
-94.622
-93.933
-93.21
-92.463
-91.702
-90.935
-90.169
-89.413
-88.67
-87.948
-87.249
-86.576
-85.933
-85.319
-84.736
-84.184
-83.66
-83.164
-82.691
-82.239
-81.803
-81.38
-80.963
-80.549
-80.131
-79.704
-79.263
-78.801
-78.312
-77.791
-77.233
-76.631
-75.982
-75.282
-74.525
-73.709
-72.831
-71.889
-70.881
-69.807
-68.665
-67.457
-66.183
-64.846
-63.448
-61.992
-60.483
-58.926
-57.326
-55.691
-54.029
-52.346
-50.651
-48.953
-47.262
-45.587
-43.939
-42.328
-40.764
-39.261
-37.832
-36.492
-35.253
-34.131
-33.137
-32.286
-31.588
-31.054
-30.691
-30.503
-30.497
-30.679
-31.058
-31.637
-32.422
-33.414
-34.614
-36.021
-37.635
-39.447
-41.441
-43.606
-45.93
-48.409
-51.047
-53.844
-56.792
-59.883
-63.102
-66.428
-69.841
-73.304
-76.766
-80.18
-83.502
-86.695
-89.741
-92.607
-95.256
-97.644
-99.711
-101.417
-102.734
-103.631
-104.102
-104.165
-103.85
-103.22
-102.365
-101.359
-100.299
-99.295
-98.441
-97.856
-97.65
-97.948
-98.954
-100.791
-103.444
-106.77
-110.433
-113.997
-117.078
-119.233
-119.9
-118.763
-115.848
-111.655
-107.137
-103.357
-101.445
-102.292
-106.521
-114.585
-125.172
-135.887
-145.068
-149.74
-148.722
-142.426
-127.158
-100.15
-57.456
7.377
93.749
197.22
308.506
411.189
492.482
545.111
568.8
571.453
559.792
536.623
500.356
445.573
370.337
276.99
170.196
56.979
-56.768
-167.051
-269.285
-358.969
-433.747
-491.909
-531.552
-553.369
-556.381
-539.367
-507.835
-466.756
-422.212
-381.525
-343.506
-306.471
-269.921
-232.13
-196.4
-165.751
-140.564
-121.38
-106.874
-95.742
-87.486
-80.958
-75.181
-69.266
-62.649
-55.464
-47.827
-39.813
-31.72
-23.983
-17.275
-12.386
-9.596
-8.731
-9.567
-11.788
-15.061
-19.063
-23.245
-26.965
-29.844
-31.714
-32.528
-32.355
-31.212
-29.086
-26.062
-22.273
-17.848
-12.916
-7.538
-1.744
4.392
10.766
17.235
23.644
29.898
35.95
41.765
47.326
52.62
57.637
62.411
66.994
71.431
75.764
80.018
84.211
88.374
92.55
96.784
101.128
105.615
110.256
115.062
120.037
125.179
130.483
135.927
141.482
147.123
152.83
158.581
164.363
170.152
175.923
181.652
187.314
192.886
198.352
203.691
208.883
213.912
218.761
223.418
227.871
232.107
236.107
239.856
243.34
246.547
249.467
252.094
254.419
256.436
258.146
259.547
260.641
261.425
261.894
262.049
261.893
261.439
260.709
259.723
258.497
257.051
255.399
253.553
251.522
249.301
246.873
244.226
241.354
238.256
234.945
231.427
227.703
223.776
219.639
215.291
210.733
205.974
201.04
195.984
190.88
185.816
180.891
176.197
171.834
167.902
164.472
161.604
159.318
157.649
156.715
156.622
157.404
158.996
161.173
163.654
166.226
168.597
170.302
170.961
170.435
168.883
166.847
165.109
164.464
165.851
170.534
178.456
187.146
193.202
192.991
187.167
183.355
190.475
213.705
245.499
263.32
239.125
151.123
1.934
