Name,John Breau
Date of Birth,"Dec 20, 1971"
Recorded Date,2023-05-24 15:03:55 -0500
Classification,Sinus Rhythm
Symptoms,
Software Version,1.90
Device,"Watch6,3"
Sample Rate,512 hertz


Lead,Lead I
Unit,µV

64.945
-89.608
-176.502
-196.582
-173.647
-140.311
-115.419
-104.052
-100.184
-92.299
-76.297
-54.281
-30.953
-12.209
0.116
7.478
11.905
16.102
21.963
30.177
41.433
56.085
73.859
94.144
115.907
137.699
158.165
176.438
191.882
204.172
213.287
219.295
222.439
223.19
222.078
219.503
215.767
211.025
205.318
198.718
191.28
183.042
174.065
164.439
154.278
143.725
132.941
122.071
111.263
100.671
90.409
80.566
71.22
62.47
54.449
47.322
41.253
36.348
32.669
30.237
29.053
29.104
30.344
32.697
36.045
40.238
45.153
50.683
56.715
63.111
69.692
76.235
82.529
88.423
93.795
98.557
102.634
105.96
108.501
110.263
111.281
111.608
111.282
110.33
108.788
106.717
104.199
101.348
98.254
94.969
91.536
87.979
84.317
80.574
76.75
72.823
68.761
64.537
60.121
55.501
50.658
45.56
40.168
34.459
28.429
22.098
15.509
8.689
1.665
-5.508
-12.77
-20.097
-27.456
-34.81
-42.118
-49.29
-56.21
-62.835
-69.157
-75.01
-80.227
-84.93
-89.177
-92.996
-96.78
-99.68
-100.857
-101.648
-102.51
-105.866
-114.607
-125.771
-137.473
-146.729
-149.324
-148.899
-148.323
-149.376
-155.199
-162.618
-168.387
-171.543
-170.322
-165.821
-160.051
-153.941
-148.829
-145.895
-145.002
-144.967
-144.906
-144.208
-144.507
-148.709
-155.865
-160.165
-150.068
-113.142
-44.259
52.447
164.45
277.842
383.772
479.296
565.507
641.932
705.202
750.625
773.262
771.24
745.251
696.444
627.328
541.345
442.142
334.654
224.328
115.49
12.207
-81.508
-162.792
-229.43
-279.807
-314.323
-334.672
-342.368
-339.433
-328.038
-309.709
-286.538
-260.917
-233.887
-205.718
-176.949
-147.869
-119.255
-92.762
-69.055
-47.987
-29.978
-15.504
-4.701
2.278
6.184
8.79
11.056
13.238
15.691
18.474
21.59
25.179
28.731
31.16
31.9
30.803
27.88
23.483
17.888
11.254
4.019
-3.217
-10.032
-16.147
-21.419
-25.865
-29.476
-32.226
-34.161
-35.371
-35.943
-35.963
-35.495
-34.584
-33.287
-31.675
-29.827
-27.814
-25.704
-23.564
-21.46
-19.464
-17.628
-15.978
-14.522
-13.255
-12.164
-11.234
-10.444
-9.759
-9.15
-8.593
-8.063
-7.543
-7.012
-6.444
-5.811
-5.079
-4.225
-3.235
-2.102
-0.823
0.601
2.166
3.864
5.678
7.595
9.604
11.697
13.868
16.108
18.408
20.753
23.132
25.532
27.941
30.349
32.742
35.11
37.443
39.733
41.972
44.154
46.27
48.311
50.269
52.135
53.901
55.559
57.101
58.519
59.808
60.963
61.981
62.859
63.595
64.187
64.636
64.941
65.103
65.123
65.004
64.747
64.355
63.832
63.183
62.413
61.528
60.533
59.436
58.244
56.963
55.6
54.163
52.66
51.096
49.481
47.821
46.124
44.399
42.652
40.892
39.126
37.361
35.603
33.857
32.129
30.424
28.746
27.098
25.486
23.911
22.377
20.886
19.442
18.044
16.695
15.395
14.144
12.94
11.785
10.675
9.61
8.587
7.605
6.662
5.754
4.88
4.036
3.218
2.422
1.646
0.885
0.135
-0.608
-1.346
-2.085
-2.825
-3.571
-4.324
-5.088
-5.864
-6.655
-7.463
-8.289
-9.135
-10.003
-10.893
-11.806
-12.744
-13.705
-14.691
-15.701
-16.736
-17.795
-18.88
-19.989
-21.124
-22.284
-23.468
-24.678
-25.912
-27.169
-28.451
-29.755
-31.083
-32.434
-33.807
-35.205
-36.626
-38.073
-39.545
-41.044
-42.571
-44.126
-45.71
-47.325
-48.971
-50.65
-52.362
-54.11
-55.894
-57.715
-59.573
-61.47
-63.405
-65.377
-67.386
-69.431
-71.51
-73.622
-75.764
-77.935
-80.133
-82.355
-84.598
-86.859
-89.135
-91.422
-93.716
-96.012
-98.305
-100.591
-102.865
-105.122
-107.357
-109.564
-111.74
-113.878
-115.973
-118.02
-120.013
-121.948
-123.819
-125.621
-127.35
-129.002
-130.575
-132.065
-133.472
-134.794
-136.029
-137.178
-138.242
-139.22
-140.114
-140.926
-141.659
-142.315
-142.899
-143.416
-143.871
-144.27
-144.62
-144.927
-145.199
-145.445
-145.672
-145.889
-146.106
-146.333
-146.581
-146.86
-147.184
-147.568
-148.024
-148.568
-149.215
-149.98
-150.875
-151.916
-153.113
-154.475
-156.012
-157.73
-159.637
-161.744
-164.056
-166.579
-169.318
-172.274
-175.448
-178.84
-182.446
-186.252
-190.25
-194.429
-198.785
-203.326
-208.051
-212.955
-218.03
-223.262
-228.631
-234.117
-239.686
-245.288
-250.874
-256.395
-261.808
-267.091
-272.208
-277.117
-281.76
-286.065
-289.968
-293.431
-296.421
-298.92
-300.93
-302.471
-303.593
-304.387
-304.949
-305.376
-305.768
-306.219
-306.843
-307.758
-309.134
-311.202
-314.125
-317.961
-322.6
-327.716
-332.93
-337.882
-342.108
-345.065
-346.315
-345.658
-343.504
-340.892
-338.913
-338.582
-340.669
-345.642
-353.879
-365.262
-378.311
-390.424
-398.574
-399.467
-390.526
-369.816
-335.191
-285.333
-220.857
-143.85
-57.817
32.479
122.767
208.756
285.003
346.477
389.35
410.64
409.132
385.238
339.326
272.739
188.637
90.688
-16.959
-129.574
-243.008
-353.595
-457.365
-551.118
-632.601
-699.954
-752.224
-789.391
-811.917
-820.82
-817.473
-802.978
-778.669
-746.282
-707.657
-664.72
-619.055
-571.874
-524.717
-479.659
-438.588
-402.97
-373.486
-349.976
-332.255
-320.139
-312.81
-308.809
-306.423
-303.928
-300.352
-295.552
-289.485
-282.195
-274.045
-265.615
-257.737
-251.39
-247.033
-244.61
-243.964
-244.778
-246.661
-249.275
-252.155
-254.75
-256.748
-258.004
-258.433
-258.099
-257.067
-255.366
-253.106
-250.406
-247.346
-244.013
-240.468
-236.748
-232.925
-229.065
-225.216
-221.441
-217.791
-214.315
-211.084
-208.133
-205.461
-203.063
-200.911
-198.974
-197.231
-195.64
-194.151
-192.723
-191.315
-189.892
-188.433
-186.906
-185.277
-183.513
-181.575
-179.437
-177.089
-174.523
-171.739
-168.74
-165.533
-162.132
-158.561
-154.84
-150.987
-147.02
-142.953
-138.808
-134.607
-130.375
-126.137
-121.919
-117.744
-113.638
-109.623
-105.725
-101.965
-98.362
-94.935
-91.701
-88.68
-85.887
-83.341
-81.056
-79.044
-77.317
-75.887
-74.761
-73.944
-73.441
-73.253
-73.377
-73.813
-74.556
-75.598
-76.931
-78.544
-80.424
-82.56
-84.934
-87.529
-90.328
-93.312
-96.46
-99.751
-103.164
-106.677
-110.268
-113.915
-117.596
-121.291
-124.977
-128.636
-132.247
-135.792
-139.254
-142.616
-145.864
-148.982
-151.96
-154.785
-157.448
-159.94
-162.255
-164.388
-166.335
-168.093
-169.662
-171.043
-172.237
-173.248
-174.08
-174.739
-175.231
-175.564
-175.748
-175.79
-175.7
-175.49
-175.169
-174.748
-174.24
-173.654
-173.002
-172.294
-171.541
-170.752
-169.937
-169.104
-168.262
-167.418
-166.579
-165.75
-164.937
-164.145
-163.378
-162.638
-161.927
-161.248
-160.6
-159.984
-159.399
-158.845
-158.318
-157.817
-157.338
-156.88
-156.439
-156.011
-155.592
-155.178
-154.767
-154.353
-153.934
-153.506
-153.066
-152.612
-152.141
-151.651
-151.143
-150.615
-150.068
-149.502
-148.919
-148.32
-147.707
-147.084
-146.453
-145.817
-145.181
-144.548
-143.922
-143.308
-142.711
-142.135
-141.584
-141.063
-140.576
-140.127
-139.719
-139.356
-139.04
-138.775
-138.56
-138.399
-138.292
-138.239
-138.239
-138.291
-138.391
-138.538
-138.725
-138.949
-139.202
-139.48
-139.773
-140.075
-140.376
-140.669
-140.944
-141.191
-141.401
-141.564
-141.669
-141.706
-141.664
-141.535
-141.309
-140.976
-140.528
-139.958
-139.257
-138.42
-137.439
-136.31
-135.029
-133.591
-131.994
-130.236
-128.317
-126.238
-124.002
-121.612
-119.073
-116.392
-113.577
-110.634
-107.575
-104.409
-101.149
-97.807
-94.396
-90.93
-87.426
-83.9
-80.372
-76.861
-73.387
-69.968
-66.625
-63.381
-60.257
-57.277
-54.457
-51.814
-49.364
-47.124
-45.111
-43.342
-41.825
-40.569
-39.581
-38.868
-38.441
-38.306
-38.461
-38.895
-39.595
-40.553
-41.768
-43.248
-44.994
-46.997
-49.245
-51.727
-54.437
-57.364
-60.481
-63.737
-67.072
-70.422
-73.741
-77.008
-80.208
-83.318
-86.283
-89.011
-91.408
-93.418
-95.018
-96.206
-96.96
-97.207
-96.952
-96.375
-95.807
-95.608
-95.982
-96.886
-98.198
-100.025
-102.545
-105.678
-108.966
-111.658
-113.131
-113.379
-112.835
-111.589
-109.487
-106.63
-103.589
-101.639
-102.326
-106.309
-113.401
-123.556
-136.692
-152.377
-169.715
-186.549
-199.702
-206.541
-204.945
-192.761
-168.368
-130.419
-77.881
-11.365
66.905
154.272
247.199
341.499
433.334
518.274
591.363
648.596
686.865
703.691
698.368
671.268
622.758
554.561
469.777
371.865
265.075
154.175
42.959
-65.117
-166.148
-256.928
-335
-398.348
-446.261
-479.236
-497.778
-502.644
-495.222
-477.156
-450.615
-418.244
-382.272
-344.213
-305.535
-267.804
-232.682
-201.651
-175.304
-153.361
-135.288
-120.732
-109.288
-100.262
-92.408
-84.289
-75.151
-64.943
-53.96
-42.54
-30.959
-19.533
-8.951
-0.123
6.488
10.85
13.199
13.938
13.369
11.724
9.405
6.949
4.737
3.008
1.875
1.325
1.409
2.192
3.67
5.784
8.444
11.557
15.052
18.88
22.984
27.297
31.746
36.243
40.728
45.141
49.421
53.51
57.329
60.82
63.96
66.746
69.2
71.349
73.22
74.847
76.274
77.541
78.689
79.754
80.761
81.74
82.724
83.75
84.864
86.101
87.482
89.02
90.723
92.593
94.63
96.83
99.175
101.652
104.25
106.958
109.77
112.673
115.653
118.692
121.77
124.87
127.974
131.062
134.116
137.117
140.046
142.888
145.627
148.247
150.73
153.06
155.218
157.188
158.955
160.503
161.817
162.886
163.696
164.24
164.51
164.5
164.204
163.621
162.748
161.587
160.139
158.407
156.397
154.114
151.567
148.765
145.718
142.439
138.94
135.234
131.336
127.261
123.025
118.644
114.135
109.514
104.798
100.006
95.154
90.261
85.342
80.417
75.501
70.61
65.762
60.97
56.249
51.612
47.072
42.641
38.329
34.149
30.107
26.214
22.477
18.903
15.496
12.263
9.207
6.332
3.64
1.133
-1.189
-3.323
-5.27
-7.032
-8.608
-10.001
-11.213
-12.246
-13.104
-13.791
-14.31
-14.666
-14.864
-14.907
-14.801
-14.551
-14.162
-13.639
-12.987
-12.212
-11.319
-10.314
-9.202
-7.989
-6.68
-5.281
-3.797
-2.235
-0.6
1.102
2.865
4.683
6.55
8.458
10.402
12.375
14.371
16.382
18.403
20.426
22.444
24.451
26.44
28.403
30.335
32.227
34.074
35.868
37.603
39.273
40.87
42.39
43.825
45.169
46.419
47.568
48.611
49.545
50.365
51.069
51.653
52.115
52.455
52.671
52.763
52.731
52.576
52.3
51.905
51.394
50.77
50.037
49.202
48.268
47.243
46.133
44.945
43.688
42.369
40.997
39.581
38.131
36.656
35.166
33.671
32.183
30.71
29.264
27.855
26.492
25.185
23.943
22.778
21.699
20.715
19.832
19.055
18.394
17.862
17.453
17.164
16.994
16.934
16.996
17.201
17.533
17.977
18.567
19.327
20.275
21.439
22.787
24.256
25.87
27.675
29.517
31.212
32.854
34.419
35.862
37.536
38.43
37.558
36.288
35.021
36.284
43.104
52.094
60.993
66.444
63.84
57.23
50.046
44.633
44.877
47.981
51.112
53.636
53.827
52.683
51.496
50.027
48.445
46.673
44.451
41.947
39.303
36.479
33.473
30.322
27.045
23.659
20.203
16.692
13.138
9.601
6.125
2.747
-0.485
-3.533
-6.342
-8.851
-11.013
-12.761
-14.043
-14.856
-15.202
-15.118
-14.691
-13.928
-12.857
-11.654
-10.448
-9.417
-8.791
-8.567
-8.79
-9.779
-11.698
-14.433
-17.807
-21.185
-23.831
-25.632
-26.327
-25.332
-22.489
-17.912
-12.006
-6.44
-3.181
-2.971
-6.654
-14.134
-23.307
-33.702
-44.989
-56.372
-69.146
-79.539
-79.233
-60.279
-13.283
62.576
158.415
264.96
371.092
470.551
563.931
649.471
724.384
784.829
825.152
842.334
835.97
806.543
755.126
683.476
594.137
490.552
376.845
257.503
136.733
18.441
-92.927
-193.194
-279.118
-348.324
-399.608
-433.083
-449.415
-449.502
-435.383
-409.961
-376.308
-337.59
-296.582
-255.244
-215.367
-179.031
-147.695
-121.811
-101.183
-85.05
-72.498
-62.919
-55.561
-49.049
-41.988
-33.669
-23.972
-13.266
-2.152
8.947
19.628
29.107
36.451
41.146
43.101
42.548
39.96
35.76
30.293
24.054
17.666
11.598
6.175
1.606
-2.043
-4.722
-6.366
-6.979
-6.635
-5.402
-3.37
-0.636
2.725
6.612
10.909
15.514
20.31
25.178
30.013
34.7
39.132
43.239
46.975
50.311
53.251
55.805
57.995
59.859
61.446
62.798
63.959
64.969
65.861
66.678
67.461
68.255
69.104
70.039
71.08
72.243
73.533
74.951
76.494
78.152
79.91
81.753
83.672
85.654
87.694
89.778
91.893
94.023
96.151
98.261
100.339
102.368
104.333
106.22
108.012
109.697
111.263
112.696
113.983
115.109
116.061
116.825
117.389
117.744
117.878
117.783
117.452
116.88
116.065
115.003
113.693
112.137
110.336
108.293
106.013
103.502
100.769
97.821
94.668
91.324
87.799
84.108
80.266
76.287
72.189
67.987
63.7
59.345
54.939
50.501
46.048
41.599
37.171
32.779
28.442
24.173
19.988
15.9
11.922
8.066
4.342
0.76
-2.672
-5.945
-9.055
-11.994
-14.76
-17.35
-19.761
-21.994
-24.049
-25.928
-27.634
-29.17
-30.541
-31.752
-32.811
-33.722
-34.495
-35.137
-35.657
-36.065
-36.369
-36.58
-36.707
-36.759
-36.747
-36.679
-36.565
-36.412
-36.23
-36.025
-35.807
-35.581
-35.354
-35.133
-34.922
-34.728
-34.553
-34.401
-34.276
-34.178
-34.11
-34.072
-34.065
-34.088
-34.142
-34.225
-34.336
-34.474
-34.636
-34.821
-35.027
-35.25
-35.489
-35.739
-36
-36.268
-36.542
-36.819
-37.098
-37.378
-37.657
-37.934
-38.209
-38.482
-38.752
-39.019
-39.285
-39.549
-39.814
-40.081
-40.353
-40.63
-40.917
-41.216
-41.529
-41.86
-42.21
-42.583
-42.98
-43.404
-43.857
-44.341
-44.857
-45.406
-45.99
-46.609
-47.263
-47.952
-48.674
-49.428
-50.213
-51.025
-51.862
-52.72
-53.595
-54.481
-55.375
-56.271
-57.162
-58.042
-58.905
-59.742
-60.548
-61.313
-62.03
-62.69
-63.287
-63.813
-64.258
-64.617
-64.882
-65.046
-65.102
-65.046
-64.872
-64.575
-64.151
-63.597
-62.91
-62.088
-61.13
-60.035
-58.803
-57.435
-55.934
-54.302
-52.544
-50.664
-48.668
-46.564
-44.358
-42.061
-39.682
-37.231
-34.719
-32.159
-29.563
-26.944
-24.317
-21.696
-19.096
-16.536
-14.033
-11.605
-9.27
-7.046
-4.95
-2.999
-1.21
0.408
1.841
3.08
4.113
4.928
5.513
5.862
5.966
5.82
5.422
4.769
3.865
2.72
1.345
-0.249
-2.06
-4.093
-6.351
-8.828
-11.516
-14.403
-17.47
-20.696
-24.045
-27.467
-30.908
-34.315
-37.64
-40.852
-43.911
-46.768
-49.362
-51.616
-53.462
-54.847
-55.732
-56.09
-55.909
-55.203
-54.016
-52.421
-50.516
-48.416
-46.232
-44.094
-42.145
-40.514
-39.402
-39.068
-39.68
-41.295
-43.795
-46.828
-50
-52.957
-55.213
-56.19
-55.52
-53.109
-49.423
-45.544
-42.646
-41.733
-43.653
-49.02
-57.899
-69.729
-82.924
-94.631
-101.325
-99.419
-85.701
-58.341
-17.247
37.37
105.334
187.897
286.845
399.992
519.624
631.92
721.601
779.281
804.639
805.288
789.905
763.067
723.33
665.393
586.7
488.787
376.265
256.156
134.059
13.878
-99.736
-202.48
-290.63
-360.986
-412.319
-445.098
-460.1
-458.401
-442.43
-415.391
-380.942
-342.881
-303.702
-264.945
-228.231
-195.331
-167.44
-144.809
-126.717
-111.906
-99.687
-89.711
-81.369
-73.532
-64.864
-54.706
-43.225
-31.021
-18.62
-6.355
5.457
16.157
24.784
30.792
34.132
35.058
34.017
31.369
27.37
22.425
17.109
11.875
7.049
2.825
-0.74
-3.559
-5.526
-6.609
-6.828
-6.244
-4.937
-2.976
-0.423
2.644
6.142
9.987
14.088
18.355
22.696
27.016
31.222
35.217
38.931
42.315
45.346
48.028
50.38
52.423
54.193
55.731
57.075
58.26
59.32
60.279
61.169
62.025
62.884
63.79
64.773
65.855
67.047
68.353
69.772
71.298
72.921
74.621
76.382
78.191
80.034
81.906
83.793
85.682
87.557
89.401
91.198
92.935
94.597
96.171
97.642
99
100.234
101.336
102.297
103.108
103.758
104.238
104.539
104.652
104.572
104.291
103.804
103.107
102.198
101.078
99.747
98.207
96.46
94.51
92.363
90.025
87.502
84.802
81.932
78.902
75.72
72.398
68.946
65.373
61.692
57.913
54.048
50.107
46.103
42.045
37.945
33.814
29.662
25.5
21.337
17.184
13.051
8.945
4.876
0.851
-3.123
-7.039
-10.891
-14.674
-18.382
-22.013
-25.561
-29.022
-32.394
-35.673
-38.858
-41.945
-44.932
-47.819
-50.603
-53.284
-55.86
-58.33
-60.693
-62.948
-65.096
-67.134
-69.063
-70.883
-72.595
-74.197
-75.691
-77.077
-78.356
-79.529
-80.597
-81.559
-82.418
-83.175
-83.829
-84.384
-84.839
-85.198
-85.461
-85.631
-85.71
-85.7
-85.604
-85.424
-85.163
-84.824
-84.41
-83.924
-83.371
-82.754
-82.077
-81.345
-80.563
-79.735
-78.867
-77.961
-77.024
-76.061
-75.075
-74.072
-73.056
-72.033
-71.008
-69.985
-68.969
-67.966
-66.979
-66.012
-65.07
-64.157
-63.276
-62.431
-61.625
-60.862
-60.144
-59.475
-58.857
-58.293
-57.785
-57.333
-56.94
-56.606
-56.331
-56.115
-55.959
-55.86
-55.819
-55.834
-55.904
-56.025
-56.197
-56.415
-56.677
-56.979
-57.318
-57.688
-58.086
-58.507
-58.947
-59.401
-59.865
-60.333
-60.799
-61.26
-61.708
-62.139
-62.545
-62.92
-63.259
-63.554
-63.801
-63.991
-64.121
-64.183
-64.173
-64.084
-63.91
-63.648
-63.292
-62.838
-62.282
-61.623
-60.856
-59.982
-58.998
-57.905
-56.702
-55.391
-53.972
-52.447
-50.817
-49.086
-47.256
-45.332
-43.318
-41.22
-39.044
-36.799
-34.491
-32.129
-29.724
-27.285
-24.824
-22.352
-19.883
-17.429
-15.006
-12.629
-10.314
-8.079
-5.94
-3.913
-2.016
-0.264
1.327
2.745
3.977
5.011
5.835
6.44
6.813
6.946
6.828
6.451
5.807
4.889
3.697
2.233
0.503
-1.487
-3.732
-6.23
-8.975
-11.958
-15.168
-18.594
-22.218
-26.02
-29.962
-33.991
-38.057
-42.109
-46.102
-50.003
-53.775
-57.371
-60.749
-63.859
-66.657
-69.114
-71.194
-72.858
-74.075
-74.855
-75.259
-75.388
-75.348
-75.205
-75.003
-74.808
-74.716
-74.791
-75.093
-75.681
-76.585
-77.935
-79.97
-82.759
-86.231
-90.327
-94.743
-98.86
-102.206
-104.215
-103.881
-101.775
-98.718
-93.761
-87.672
-79.484
-67.613
-56.682
-49.049
-46.198
-51.005
-57.758
-63.365
-69.423
-72.208
-71.649
-62.694
-30.655
30.695
125.186
251.278
391.949
532.55
657.215
747.105
797.291
807.615
783.139
737.972
678.928
607.689
524.796
426.746
315.057
196.258
76.646
-36.718
-138.408
-225.584
-296.254
-349.409
-385.684
-406.821
-414.867
-412.558
-402.787
-387.966
-370.276
-351.212
-331.21
-310.26
-288.133
-264.232
-238.254
-210.248
-180.645
-150.682
-121.731
-94.892
-71.281
-51.803
-36.823
-26.417
-19.974
-16.036
-13.475
-11.553
-9.578
-7.203
-4.312
-0.851
2.736
5.546
7.081
7.195
5.879
3.398
0.028
-3.988
-8.197
-12.004
-15.006
-17.002
-17.927
-17.875
-16.928
-15.125
-12.567
-9.388
-5.72
-1.68
2.646
7.211
11.949
16.753
21.513
26.112
30.443
34.45
38.099
41.37
44.262
46.791
48.979
50.862
52.487
53.892
55.113
56.183
57.131
57.996
58.823
59.659
60.554
61.541
62.642
63.874
65.247
66.764
68.425
70.223
72.144
74.177
76.315
78.549
80.873
83.277
85.747
88.27
90.828
93.405
95.985
98.554
101.093
103.586
106.016
108.368
110.628
112.778
114.803
116.684
118.402
119.941
121.283
122.412
123.312
123.969
124.369
124.502
124.359
123.931
123.211
122.196
120.882
119.267
117.351
115.136
112.626
109.826
106.743
103.386
99.764
95.889
91.776
87.44
82.895
78.161
73.255
68.196
63.007
57.706
52.317
46.861
41.361
35.84
30.32
24.824
19.374
13.992
8.699
3.514
-1.544
-6.456
-11.207
-15.782
-20.165
-24.344
-28.307
-32.045
-35.549
-38.812
-41.828
-44.594
-47.107
-49.367
-51.374
-53.13
-54.64
-55.909
-56.943
-57.749
-58.337
-58.717
-58.9
-58.898
-58.723
-58.39
-57.911
-57.303
-56.578
-55.752
-54.839
-53.853
-52.808
-51.718
-50.595
-49.452
-48.301
-47.152
-46.017
-44.904
-43.822
-42.779
-41.783
-40.839
-39.952
-39.127
-38.368
-37.675
-37.052
-36.498
-36.014
-35.599
-35.251
-34.968
-34.747
-34.585
-34.477
-34.42
-34.409
-34.439
-34.505
-34.602
-34.725
-34.87
-35.032
-35.207
-35.392
-35.582
-35.776
-35.969
-36.161
-36.35
-36.533
-36.71
-36.88
-37.043
-37.199
-37.349
-37.492
-37.63
-37.765
-37.898
-38.031
-38.166
-38.306
-38.452
-38.607
-38.773
-38.953
-39.149
-39.362
-39.596
-39.85
-40.128
-40.429
-40.754
-41.104
-41.479
-41.876
-42.295
-42.734
-43.189
-43.659
-44.14
-44.628
-45.12
-45.611
-46.097
-46.574
-47.036
-47.478
-47.894
-48.279
-48.626
-48.93
-49.184
-49.382
-49.518
-49.586
-49.58
-49.494
-49.324
-49.063
-48.707
-48.251
-47.691
-47.024
-46.245
-45.352
-44.343
-43.217
-41.974
-40.614
-39.138
-37.548
-35.845
-34.033
-32.115
-30.095
-27.976
-25.765
-23.466
-21.086
-18.633
-16.115
-13.54
-10.917
-8.258
-5.572
-2.871
-0.166
2.53
5.206
7.847
10.441
12.974
15.431
17.799
20.062
22.204
24.208
26.059
27.741
29.238
30.536
31.619
32.476
33.096
33.471
33.594
33.457
33.052
32.372
31.411
30.167
28.638
26.823
24.725
22.35
19.712
16.825
13.703
10.357
6.79
3.006
-0.986
-5.177
-9.553
-14.089
-18.758
-23.524
-28.332
-33.132
-37.871
-42.5
-46.982
-51.279
-55.348
-59.14
-62.596
-65.65
-68.25
-70.347
-71.908
-72.942
-73.472
-73.553
-73.269
-72.693
-71.915
-71.047
-70.178
-69.411
-68.847
-68.574
-68.766
-69.674
-71.43
-74.077
-77.51
-81.364
-85.253
-88.799
-91.414
-92.461
-91.627
-88.795
-84.224
-78.967
-74.25
-71.231
-71.417
-74.751
-79.105
-82.875
-84.231
-84.574
-89.645
-100.212
-112.706
-115.658
-89.044
-23.233
81.673
214.482
349.471
469.611
565.685
632.949
679.556
709.21
720.924
715.982
689.946
640.513
569.974
480.567
377.486
266.524
152.229
38.605
-71.144
-173.563
-265.208
-343.513
-406.666
-453.847
-485.375
-501.476
-502.373
-489.419
-464.792
-431.049
-390.927
-346.961
-301.362
-256.472
-214.98
-179.25
-149.388
-124.698
-105.86
-92.284
-85.417
-86.833
-91.521
-95.595
-94.891
-84.778
-69.209
-51.909
-35.566
-24.374
-16.771
-11.24
-7.813
-5.066
-3.723
-4.505
-6.759
-10.255
-14.352
-18.165
-21.391
-23.843
-25.349
-25.937
-25.649
-24.497
-22.539
-19.867
-16.559
-12.707
-8.421
-3.788
1.105
6.169
11.304
16.391
21.311
25.951
30.237
34.131
37.613
40.677
43.326
45.581
47.475
49.064
50.401
51.53
52.496
53.336
54.096
54.828
55.586
56.421
57.374
58.47
59.727
61.163
62.787
64.604
66.613
68.798
71.149
73.658
76.318
79.124
82.067
85.13
88.29
91.541
94.875
98.28
101.748
105.249
108.746
112.232
115.705
119.11
122.397
125.524
128.435
131.134
133.654
135.943
137.924
139.722
141.49
143.107
144.569
145.894
146.699
147.975
150.684
153.432
155.793
155.211
148.632
139.438
129.887
123.339
124.412
129.037
133.768
136.248
132.578
125.569
118.075
110.744
105.322
100.825
95.983
91.063
85.921
80.665
75.579
70.513
65.351
60.16
54.971
49.787
44.631
39.531
34.508
29.604
24.863
20.286
15.875
11.644
7.602
3.757
0.118
-3.313
-6.536
-9.546
-12.34
-14.919
-17.282
-19.433
-21.375
-23.112
-24.651
-25.998
-27.16
-28.147
-28.968
-29.633
-30.153
-30.539
-30.802
-30.954
-31.006
-30.97
-30.858
-30.68
-30.447
-30.171
-29.86
-29.525
-29.173
-28.814
-28.453
-28.098
-27.754
-27.427
-27.121
-26.84
-26.588
-26.369
-26.183
-26.034
-25.923
-25.85
-25.816
-25.819
-25.86
-25.937
-26.047
-26.188
-26.359
-26.555
-26.775
-27.014
-27.27
-27.539
-27.818
-28.102
-28.39
-28.676
-28.958
-29.234
-29.501
-29.756
-29.998
-30.224
-30.434
-30.626
-30.799
-30.952
-31.084
-31.195
-31.283
-31.35
-31.394
-31.415
-31.416
-31.394
-31.353
-31.292
-31.213
-31.116
-31.005
-30.88
-30.743
-30.595
-30.44
-30.279
-30.115
-29.949
-29.785
-29.624
-29.47
-29.324
-29.188
-29.064
-28.954
-28.86
-28.783
-28.725
-28.687
-28.669
-28.674
-28.701
-28.75
-28.823
-28.919
-29.036
-29.176
-29.336
-29.515
-29.712
-29.924
-30.149
-30.384
-30.626
-30.871
-31.115
-31.354
-31.583
-31.797
-31.99
-32.157
-32.291
-32.389
-32.442
-32.445
-32.392
-32.278
-32.095
-31.838
-31.502
-31.081
-30.57
-29.965
-29.261
-28.456
-27.547
-26.531
-25.407
-24.174
-22.831
-21.38
-19.821
-18.156
-16.389
-14.524
-12.565
-10.519
-8.393
-6.196
-3.937
-1.625
0.729
3.114
5.517
7.927
10.328
12.708
15.052
17.344
19.566
21.698
23.722
25.621
27.375
28.97
30.386
31.609
32.622
33.414
33.974
34.29
34.35
34.143
33.662
32.901
31.861
30.544
28.953
27.094
24.978
22.614
20.015
17.196
14.164
10.925
7.489
3.868
0.081
-3.847
-7.892
-12.022
-16.197
-20.379
-24.523
-28.585
-32.522
-36.283
-39.821
-43.089
-46.045
-48.654
-50.871
-52.643
-53.919
-54.674
-54.921
-54.715
-54.093
-53.058
-51.682
-50.141
-48.754
-47.876
-47.699
-48.256
-49.572
-51.754
-54.818
-58.464
-61.883
-64.054
-64.306
-62.434
-58.53
-52.722
-45.178
-36.549
-28.546
-23.514
-23.373
-29.222
-40.254
-54.214
-69.533
-85.111
-101.536
-120.015
-138.207
-149.654
-143.814
-110.723
-45.682
48.226
160.548
281.534
401.272
511.268
607.505
682.654
733.198
761.811
769.408
760.01
735.519
691.922
627.966
544.267
443.355
331.192
213.269
93.73
-23.608
-134.713
-235.447
-322.206
-392.332
-444.389
-478.301
-494.547
-493.771
-477.868
-449.786
-412.739
-370.107
-324.949
-279.517
-235.945
-196.733
-163.615
-137.121
-117.03
-102.446
-92.254
-85.628
-81.502
-78.101
-73.746
-67.561
-59.353
-49.507
-38.638
-27.192
-15.67
-5.009
3.731
9.96
13.551
14.742
14.01
11.766
8.35
4.265
0.141
-3.565
-6.55
-8.638
-9.837
-10.156
-9.57
-8.13
-5.922
-3.025
0.457
4.424
8.809
13.514
18.445
23.522
28.63
33.661
38.517
43.089
47.311
51.151
54.586
57.611
60.241
62.493
64.408
66.04
67.436
68.641
69.697
70.635
71.502
72.346
73.213
74.153
75.201
76.379
77.708
79.2
80.859
82.69
84.685
86.83
89.115
91.531
94.07
96.724
99.484
102.333
105.256
108.237
111.257
114.301
117.349
120.382
123.382
126.33
129.207
131.998
134.682
137.24
139.652
141.898
143.959
145.815
147.45
148.847
149.991
150.868
151.468
151.782
151.802
151.523
150.939
150.049
148.852
147.351
145.547
143.445
141.053
138.378
135.43
132.22
128.76
125.064
121.148
117.028
112.72
108.244
103.617
98.86
93.994
89.039
84.015
78.945
73.848
68.746
63.659
58.605
53.604
48.673
43.829
39.088
34.464
29.971
25.621
21.424
17.39
13.527
9.843
6.343
3.031
-0.089
-3.015
-5.746
-8.282
-10.623
-12.771
-14.731
-16.504
-18.096
-19.514
-20.762
-21.85
-22.783
-23.572
-24.225
-24.751
-25.159
-25.459
-25.661
-25.774
-25.807
-25.77
-25.672
-25.52
-25.325
-25.092
-24.83
-24.544
-24.24
-23.925
-23.601
-23.274
-22.948
-22.624
-22.307
-21.998
-21.7
-21.414
-21.141
-20.882
-20.636
-20.405
-20.187
-19.981
-19.787
-19.603
-19.427
-19.258
-19.093
-18.932
-18.773
-18.612
-18.448
-18.28
-18.105
-17.922
-17.729
-17.525
-17.309
-17.082
-16.842
-16.59
-16.327
-16.053
-15.77
-15.478
-15.18
-14.876
-14.568
-14.259
-13.95
-13.643
-13.343
-13.05
-12.768
-12.5
-12.249
-12.017
-11.809
-11.626
-11.472
-11.35
-11.263
-11.216
-11.21
-11.251
-11.34
-11.481
-11.677
-11.93
-12.244
-12.62
-13.06
-13.567
-14.141
-14.784
-15.497
-16.281
-17.137
-18.065
-19.065
-20.136
-21.279
-22.491
-23.772
-25.12
-26.533
-28.008
-29.544
-31.137
-32.785
-34.483
-36.228
-38.015
-39.84
-41.696
-43.579
-45.482
-47.398
-49.323
-51.248
-53.168
-55.076
-56.963
-58.823
-60.649
-62.433
-64.166
-65.841
-67.449
-68.983
-70.436
-71.8
-73.068
-74.234
-75.291
-76.234
-77.057
-77.755
-78.322
-78.756
-79.052
-79.207
-79.22
-79.089
-78.815
-78.399
-77.842
-77.147
-76.318
-75.358
-74.274
-73.07
-71.753
-70.333
-68.819
-67.219
-65.545
-63.812
-62.033
-60.227
-58.41
-56.598
-54.812
-53.069
-51.39
-49.791
-48.288
-46.899
-45.638
-44.522
-43.568
-42.793
-42.214
-41.844
-41.697
-41.783
-42.114
-42.696
-43.529
-44.61
-45.939
-47.519
-49.361
-51.475
-53.86
-56.516
-59.437
-62.607
-66.007
-69.606
-73.353
-77.195
-81.083
-84.965
-88.809
-92.575
-96.216
-99.679
-102.893
-105.788
-108.315
-110.427
-112.087
-113.294
-114.059
-114.43
-114.505
-114.372
-114.123
-113.878
-113.73
-113.792
-114.2
-115.06
-116.54
-118.871
-122.164
-126.445
-131.589
-137.227
-142.968
-148.447
-153.112
-156.343
-157.701
-156.975
-154.529
-151.285
-148.125
-145.872
-145.251
-146.824
-150.998
-157.545
-165.042
-171.277
-173.482
-168.444
-153.742
-127.047
-86.898
-34.309
30.479
107.398
196.459
299.539
411.974
522.744
619.593
687.928
723.179
731.141
717.27
689.194
648.478
589.675
511.883
416.132
305.792
188.507
69.942
-46.17
-155.469
-254.539
-340.798
-411.763
-466.262
-504.707
-527.906
-536.848
-533.168
-518.891
-496.323
-468.162
-436.73
-403.459
-369.529
-336.288
-305.225
-277.627
-254.034
-234.186
-217.605
-204.092
-193.427
-184.993
-177.509
-169.42
-159.857
-148.693
-136.141
-122.452
-107.858
-92.715
-77.873
-64.52
-53.369
-44.625
-38.19
-33.74
-31.01
-29.823
-29.814
-30.45
-31.334
-32.204
-32.935
-33.551
-34.024
-34.255
-34.152
-33.631
-32.648
-31.204
-29.308
-26.966
-24.199
-21.026
-17.478
-13.618
-9.51
-5.214
-0.78
3.762
8.367
12.97
17.481
21.804
25.879
29.683
33.208
36.461
39.45
42.181
44.681
46.992
49.149
51.181
53.111
54.951
56.724
58.466
60.217
62.022
63.908
65.891
67.979
70.176
72.48
74.887
77.381
79.937
82.537
85.166
87.809
90.456
93.091
95.692
98.241
100.716
103.097
105.365
107.501
109.488
111.309
112.948
114.392
115.632
116.656
117.453
118.01
118.318
118.367
118.15
117.66
116.891
115.841
114.506
112.89
110.993
108.822
106.381
103.678
100.724
97.527
94.101
90.459
86.614
82.583
78.382
74.029
69.542
64.94
60.243
55.47
50.643
45.78
40.903
36.03
31.181
26.376
21.631
16.966
12.396
7.939
3.608
-0.581
-4.615
-8.483
-12.173
-15.677
-18.986
-22.094
-24.995
-27.686
-30.163
-32.425
-34.472
-36.306
-37.927
-39.339
-40.548
-41.557
-42.374
-43.005
-43.46
-43.745
-43.87
-43.845
-43.68
-43.384
-42.968
-42.441
-41.814
-41.097
-40.299
-39.43
-38.499
-37.516
-36.487
-35.423
-34.329
-33.214
-32.084
-30.945
-29.804
-28.664
-27.531
-26.409
-25.3
-24.207
-23.134
-22.08
-21.047
-20.036
-19.047
-18.08
-17.134
-16.208
-15.302
-14.414
-13.543
-12.688
-11.847
-11.02
-10.205
-9.401
-8.608
-7.825
-7.053
-6.29
-5.538
-4.797
-4.067
-3.348
-2.642
-1.948
-1.268
-0.602
0.048
0.68
1.294
1.886
2.456
3.001
3.519
4.008
4.466
4.89
5.279
5.629
5.94
6.208
6.432
6.61
6.74
6.821
6.852
6.832
6.76
6.637
6.463
6.239
5.965
5.643
5.272
4.855
4.391
3.883
3.332
2.739
2.106
1.435
0.729
-0.009
-0.778
-1.575
-2.396
-3.239
-4.1
-4.977
-5.865
-6.761
-7.661
-8.561
-9.456
-10.341
-11.213
-12.066
-12.897
-13.701
-14.474
-15.213
-15.914
-16.572
-17.184
-17.745
-18.252
-18.701
-19.087
-19.406
-19.655
-19.831
-19.929
-19.948
-19.884
-19.736
-19.5
-19.174
-18.757
-18.246
-17.641
-16.94
-16.144
-15.253
-14.269
-13.193
-12.028
-10.778
-9.444
-8.033
-6.546
-4.989
-3.367
-1.684
0.054
1.839
3.665
5.525
7.41
9.313
11.223
13.132
15.032
16.913
18.764
20.576
22.34
24.045
25.679
27.231
28.688
30.036
31.262
32.352
33.293
34.074
34.681
35.105
35.338
35.375
35.21
34.839
34.256
33.455
32.431
31.183
29.71
28.011
26.088
23.946
21.596
19.051
16.323
13.418
10.338
7.079
3.644
0.041
-3.722
-7.625
-11.644
-15.746
-19.878
-23.986
-28.017
-31.915
-35.642
-39.161
-42.427
-45.391
-47.984
-50.138
-51.801
-52.93
-53.5
-53.522
-53.021
-52.063
-50.75
-49.188
-47.507
-45.84
-44.291
-42.982
-42.04
-41.596
-41.868
-43.117
-45.469
-48.96
-53.505
-58.769
-64.358
-69.841
-74.537
-77.726
-79.026
-78.223
-75.444
-71.583
-67.815
-65.267
-65.247
-67.685
-70.785
-73.428
-75.162
-77.862
-84.769
-94.827
-101.427
-92.531
-56.423
12.15
109.63
224.873
348.164
470.052
582.454
680.401
753.497
797.889
818.078
817.945
807.858
789.184
750.879
685.891
586.792
456.12
310.312
162.836
25.444
-94.739
-198.885
-286.816
-357.593
-410.772
-444.765
-459.876
-457.854
-441.526
-414.914
-382.034
-346.498
-310.765
-276.227
-244.121
-215.833
-192.19
-173.128
-157.758
-144.775
-133.478
-123.58
-114.617
-105.619
-95.422
-83.509
-70.133
-55.938
-41.463
-27.029
-12.962
0.048
11.032
19.41
25.096
28.333
29.547
29.088
27.215
24.321
20.944
17.517
14.342
11.575
9.221
7.312
5.933
5.171
5.075
5.64
6.808
8.494
10.624
13.115
15.878
18.804
21.758
24.632
27.347
29.878
32.246
34.448
36.454
38.203
39.644
40.772
41.632
42.276
42.757
43.132
43.463
43.853
44.436
45.295
46.467
47.939
49.647
51.563
53.69
56.039
58.62
61.423
64.418
67.588
70.929
74.42
78.027
81.679
85.277
88.766
92.124
95.361
98.519
101.619
104.657
107.634
110.552
113.408
116.2
118.907
121.491
123.928
126.207
128.332
130.323
132.181
133.89
135.425
136.752
137.839
138.669
139.218
139.461
139.382
138.971
138.228
137.167
135.796
134.117
132.134
129.847
127.26
124.385
121.232
117.816
114.153
110.26
106.156
101.863
97.404
92.798
88.064
83.218
78.278
73.263
68.191
63.08
57.951
52.819
47.704
42.624
37.596
32.635
27.756
22.972
18.293
13.732
9.298
4.998
0.841
-3.167
-7.02
-10.713
-14.243
-17.606
-20.801
-23.828
-26.686
-29.377
-31.904
-34.268
-36.475
-38.529
-40.435
-42.197
-43.823
-45.317
-46.687
-47.939
-49.08
-50.115
-51.053
-51.899
-52.659
-53.34
-53.947
-54.484
-54.957
-55.37
-55.727
-56.032
-56.289
-56.5
-56.67
-56.801
-56.897
-56.959
-56.99
-56.992
-56.966
-56.913
-56.835
-56.732
-56.604
-56.453
-56.279
-56.081
-55.86
-55.616
-55.349
-55.06
-54.748
-54.415
-54.062
-53.689
-53.299
-52.893
-52.473
-52.043
-51.604
-51.16
-50.713
-50.265
-49.82
-49.38
-48.947
-48.525
-48.115
-47.721
-47.345
-46.988
-46.654
-46.344
-46.061
-45.807
-45.584
-45.393
-45.235
-45.114
-45.029
-44.982
-44.974
-45.004
-45.074
-45.183
-45.33
-45.513
-45.732
-45.984
-46.267
-46.579
-46.916
-47.277
-47.658
-48.056
-48.468
-48.892
-49.324
-49.763
-50.206
-50.649
-51.091
-51.53
-51.962
-52.386
-52.798
-53.198
-53.582
-53.948
-54.294
-54.617
-54.915
-55.186
-55.428
-55.639
-55.818
-55.962
-56.07
-56.14
-56.172
-56.164
-56.115
-56.024
-55.89
-55.712
-55.489
-55.22
-54.904
-54.538
-54.121
-53.652
-53.128
-52.546
-51.905
-51.202
-50.435
-49.602
-48.701
-47.732
-46.694
-45.584
-44.404
-43.154
-41.833
-40.442
-38.982
-37.454
-35.86
-34.203
-32.485
-30.709
-28.879
-27
-25.077
-23.115
-21.12
-19.098
-17.057
-15.004
-12.948
-10.897
-8.863
-6.855
-4.885
-2.968
-1.118
0.65
2.32
3.878
5.308
6.596
7.729
8.697
9.49
10.101
10.521
10.74
10.75
10.542
10.112
9.454
8.565
7.444
6.094
4.525
2.747
0.769
-1.402
-3.77
-6.336
-9.096
-12.043
-15.167
-18.449
-21.865
-25.38
-28.941
-32.496
-35.994
-39.386
-42.641
-45.72
-48.577
-51.161
-53.411
-55.268
-56.691
-57.64
-58.08
-58.024
-57.5
-56.57
-55.337
-53.875
-52.276
-50.66
-49.136
-47.837
-46.907
-46.458
-46.652
-47.745
-49.852
-52.932
-56.816
-61.081
-65.248
-68.925
-71.57
-72.505
-71.397
-68.392
-64.034
-59.298
-55.426
-53.472
-54.219
-58.701
-66.409
-74.644
-81.715
-86.003
-86.593
-85.47
-79.56
-60.953
-22.762
42.448
133.533
239.817
350.871
455.91
548.69
628.186
691.849
737.186
761.306
761.02
736.027
687.224
616.356
527.382
424.609
312.609
196.75
81.219
-30.632
-134.993
-228.52
-308.803
-373.88
-423.008
-456.855
-475.937
-480.772
-472.501
-452.632
-423.286
-387.199
-346.769
-303.625
-259.488
-216.337
-176.339
-141.484
-112.693
-89.809
-72.316
-59.833
-51.83
-47.357
-44.771
-42.15
-38.386
-33.232
-26.852
-19.526
-11.502
-3.149
4.664
10.794
14.614
16.006
15.191
12.625
8.68
3.686
-1.794
-7.089
-11.711
-15.343
-17.874
-19.366
-19.854
-19.362
-17.97
-15.782
-12.919
-9.502
-5.62
-1.35
3.227
8.026
12.93
17.817
22.576
27.097
31.309
35.181
38.69
41.836
44.635
47.105
49.285
51.227
52.975
54.571
56.053
57.453
58.813
60.182
61.606
63.131
64.79
66.6
68.576
70.725
73.047
75.539
78.19
80.982
83.9
86.933
90.068
93.295
96.6
99.964
103.369
106.796
110.224
113.634
117.007
120.322
123.56
126.701
129.727
132.622
135.366
137.942
140.33
142.512
144.47
146.189
147.651
148.844
149.754
150.37
150.684
150.689
150.378
149.749
148.8
147.529
145.938
144.031
141.812
139.287
136.465
133.355
129.968
126.316
122.415
118.278
113.923
109.367
104.628
99.725
94.679
89.509
84.235
78.879
73.46
68
62.518
57.035
51.57
46.141
40.767
35.464
30.25
25.139
20.145
15.281
10.561
5.994
1.592
-2.638
-6.686
-10.546
-14.213
-17.682
-20.949
-24.012
-26.87
-29.522
-31.969
-34.212
-36.254
-38.098
-39.748
-41.21
-42.488
-43.588
-44.518
-45.285
-45.895
-46.357
-46.677
-46.865
-46.928
-46.874
-46.711
-46.447
-46.089
-45.647
-45.127
-44.537
-43.884
-43.175
-42.418
-41.619
-40.783
-39.918
-39.029
-38.122
-37.202
-36.274
-35.344
-34.414
-33.491
-32.577
-31.676
-30.79
-29.924
-29.079
-28.257
-27.461
-26.692
-25.951
-25.24
-24.56
-23.913
-23.298
-22.718
-22.173
-21.663
-21.188
-20.749
-20.346
-19.978
-19.647
-19.351
-19.09
-18.865
-18.675
-18.52
-18.397
-18.308
-18.25
-18.222
-18.224
-18.254
-18.311
-18.394
-18.503
-18.636
-18.794
-18.974
-19.178
-19.405
-19.653
-19.923
-20.214
-20.526
-20.859
-21.212
-21.587
-21.982
-22.399
-22.838
-23.298
-23.78
-24.285
-24.811
-25.36
-25.931
-26.525
-27.14
-27.779
-28.441
-29.126
-29.835
-30.568
-31.325
-32.105
-32.907
-33.732
-34.576
-35.44
-36.32
-37.216
-38.125
-39.044
-39.971
-40.903
-41.837
-42.768
-43.692
-44.605
-45.501
-46.376
-47.224
-48.04
-48.819
-49.557
-50.248
-50.888
-51.471
-51.992
-52.447
-52.831
-53.137
-53.362
-53.501
-53.549
-53.503
-53.359
-53.116
-52.77
-52.32
-51.766
-51.106
-50.34
-49.467
-48.49
-47.41
-46.228
-44.949
-43.578
-42.118
-40.578
-38.963
-37.283
-35.544
-33.756
-31.928
-30.069
-28.19
-26.301
-24.414
-22.54
-20.692
-18.884
-17.132
-15.452
-13.859
-12.371
-11.003
-9.772
-8.694
-7.781
-7.045
-6.496
-6.144
-5.999
-6.072
-6.373
-6.91
-7.689
-8.715
-9.99
-11.515
-13.285
-15.288
-17.514
-19.951
-22.595
-25.453
-28.525
-31.809
-35.3
-38.985
-42.848
-46.868
-51.008
-55.217
-59.441
-63.626
-67.727
-71.712
-75.541
-79.172
-82.546
-85.589
-88.23
-90.413
-92.092
-93.243
-93.864
-93.97
-93.609
-92.864
-91.841
-90.655
-89.411
-88.203
-87.125
-86.284
-85.867
-86.13
-87.251
-89.327
-92.315
-95.983
-100.035
-104.123
-107.68
-110.02
-110.658
-109.31
-106.096
-101.834
-97.612
-94.61
-94.36
-97.149
-101.64
-106.944
-111.562
-116.708
-126.574
-140.165
-153.286
-155.192
-129.523
-70.384
21.434
137.985
262.865
388.429
508.321
613.878
701.194
761.023
788.349
787.618
762.466
719.514
662.499
589.197
500.378
398.182
286.697
173.047
62.264
-42.192
-137.245
-221.069
-292.028
-348.676
-390.828
-419.172
-434.617
-438.37
-431.522
-415.339
-391.668
-362.606
-330.024
-295.268
-259.47
-223.852
-190.049
-159.587
-133.162
-110.787
-92.165
-77.143
-65.567
-56.977
-50.292
-44.156
-37.839
-31.209
-24.417
-17.647
-10.986
-4.602
0.927
4.758
6.471
6.068
3.81
0.14
-4.606
-10.132
-15.95
-21.442
-26.135
-29.751
-32.195
-33.525
-33.79
-33.003
-31.234
-28.595
-25.221
-21.25
-16.798
-11.951
-6.793
-1.434
3.994
9.352
14.501
19.35
23.848
27.971
31.708
35.057
38.031
40.658
42.986
45.064
46.932
48.628
50.18
51.627
53.016
54.399
55.828
57.337
58.948
60.673
62.522
64.498
66.602
68.823
71.145
73.555
76.043
78.601
81.223
83.896
86.608
89.343
92.085
94.819
97.53
100.204
102.825
105.377
107.847
110.222
112.489
114.635
116.645
118.506
120.203
121.721
123.05
124.176
125.088
125.777
126.235
126.455
126.431
126.161
125.64
124.868
123.843
122.567
121.041
119.269
117.255
115.005
112.525
109.825
106.912
103.798
100.494
97.013
93.367
89.571
85.64
81.59
77.438
73.198
68.89
64.528
60.131
55.715
51.296
46.891
42.516
38.185
33.913
29.714
25.601
21.586
17.681
13.897
10.244
6.732
3.369
0.162
-2.88
-5.753
-8.45
-10.968
-13.304
-15.454
-17.418
-19.195
-20.786
-22.191
-23.414
-24.458
-25.326
-26.025
-26.56
-26.938
-27.164
-27.248
-27.196
-27.017
-26.719
-26.311
-25.801
-25.2
-24.514
-23.755
-22.929
-22.047
-21.117
-20.147
-19.146
-18.122
-17.082
-16.035
-14.987
-13.944
-12.915
-11.903
-10.915
-9.956
-9.03
-8.141
-7.293
-6.487
-5.726
-5.011
-4.343
-3.723
-3.151
-2.627
-2.148
-1.716
-1.329
-0.984
-0.681
-0.418
-0.192
-0.002
0.154
0.279
0.374
0.442
0.484
0.502
0.499
0.475
0.433
0.373
0.297
0.207
0.103
-0.014
-0.143
-0.284
-0.437
-0.603
-0.78
-0.971
-1.176
-1.395
-1.631
-1.885
-2.157
-2.45
-2.765
-3.102
-3.464
-3.853
-4.268
-4.712
-5.185
-5.689
-6.224
-6.79
-7.389
-8.019
-8.682
-9.377
-10.104
-10.861
-11.649
-12.467
-13.313
-14.187
-15.086
-16.009
-16.955
-17.92
-18.903
-19.901
-20.91
-21.928
-22.95
-23.975
-24.996
-26.012
-27.017
-28.007
-28.978
-29.926
-30.847
-31.736
-32.588
-33.4
-34.167
-34.884
-35.548
-36.155
-36.699
-37.178
-37.588
-37.924
-38.183
-38.363
-38.458
-38.467
-38.386
-38.213
-37.944
-37.578
-37.112
-36.544
-35.873
-35.098
-34.219
-33.236
-32.149
-30.961
-29.671
-28.282
-26.797
-25.219
-23.55
-21.794
-19.956
-18.041
-16.055
-14.003
-11.892
-9.729
-7.521
-5.277
-3.004
-0.712
1.591
3.895
6.189
8.462
10.705
12.905
15.048
17.121
19.108
20.994
22.766
24.406
25.9
27.234
28.393
29.368
30.149
30.727
31.093
31.238
31.151
30.826
30.257
29.438
28.366
27.04
25.458
23.631
21.566
19.272
16.753
14.005
11.025
7.815
4.383
0.737
-3.103
-7.113
-11.258
-15.486
-19.741
-23.968
-28.114
-32.142
-36.013
-39.678
-43.084
-46.164
-48.849
-51.092
-52.848
-54.088
-54.816
-55.061
-54.887
-54.403
-53.706
-52.905
-52.133
-51.507
-51.15
-51.183
-51.702
-52.869
-54.928
-58.025
-62.165
-67.193
-72.748
-78.465
-83.999
-88.808
-92.2
-93.658
-93.061
-90.806
-87.651
-84.428
-82.033
-81.424
-83.615
-88.377
-93.476
-96.032
-94.224
-89.484
-85.305
-82.812
-76.646
-54.247
-3.19
81.931
195.53
321.17
442.402
548.499
634.901
703.477
755.269
788.264
799.595
786.056
746.762
683.373
599.222
498.808
386.715
267.963
147.641
30.056
-80.657
-180.699
-267.371
-338.696
-393.391
-431.562
-454.043
-461.628
-455.768
-438.67
-412.661
-380.391
-344.688
-307.678
-271.198
-237.487
-208.301
-184.385
-165.961
-152.517
-142.86
-136.063
-131.069
-126.159
-119.923
-111.674
-101.126
-88.638
-75.07
-61.079
-47.46
-35.378
-25.632
-18.633
-14.553
-13.119
-13.862
-16.376
-20.12
-24.449
-28.934
-33.237
-37.077
-40.333
-42.869
-44.577
-45.458
-45.545
-44.863
-43.448
-41.338
-38.584
-35.281
-31.542
-27.471
-23.158
-18.671
-14.094
-9.531
-5.089
-0.879
3.029
6.603
9.818
12.661
15.139
17.269
19.089
20.655
22.016
23.215
24.288
25.262
26.173
27.061
27.968
28.939
30.006
31.188
32.5
33.951
35.546
37.28
39.143
41.112
43.171
45.306
47.501
49.744
52.017
54.301
56.575
58.817
61.005
63.117
65.13
67.023
68.774
70.361
71.766
72.973
73.964
74.721
75.229
75.471
75.433
75.104
74.473
73.529
72.266
70.68
68.767
66.528
63.966
61.086
57.893
54.397
50.608
46.541
42.208
37.629
32.821
27.805
22.601
17.231
11.722
6.102
0.398
-5.363
-11.153
-16.947
-22.713
-28.417
-34.043
-39.572
-44.983
-50.261
-55.375
-60.284
-64.982
-69.463
-73.676
-77.58
-81.14
-84.312
-87.113
-89.585
-91.692
-93.378
-94.775
-96.042
-97.082
-97.908
-98.553
-98.678
-99.218
-101.082
-102.994
-104.573
-103.468
-96.862
-87.902
-78.695
-72.367
-73.208
-77.455
-81.922
-84.433
-81.376
-75.363
-69.041
-63.009
-58.888
-55.763
-52.454
-49.202
-45.87
-42.55
-39.497
-36.564
-33.634
-30.761
-27.962
-25.231
-22.58
-20.024
-17.574
-15.26
-13.112
-11.123
-9.284
-7.601
-6.075
-4.704
-3.49
-2.428
-1.512
-0.741
-0.112
0.379
0.737
0.966
1.074
1.067
0.951
0.733
0.42
0.019
-0.462
-1.016
-1.635
-2.312
-3.04
-3.81
-4.616
-5.448
-6.299
-7.162
-8.027
-8.888
-9.738
-10.57
-11.377
-12.153
-12.894
-13.594
-14.249
-14.856
-15.411
-15.911
-16.355
-16.741
-17.069
-17.338
-17.55
-17.705
-17.807
-17.857
-17.859
-17.815
-17.731
-17.609
-17.454
-17.271
-17.065
-16.842
-16.607
-16.366
-16.127
-15.897
-15.681
-15.486
-15.32
-15.19
-15.101
-15.059
-15.071
-15.141
-15.275
-15.475
-15.746
-16.091
-16.51
-17.006
-17.577
-18.224
-18.943
-19.732
-20.587
-21.502
-22.473
-23.492
-24.552
-25.646
-26.766
-27.901
-29.044
-30.183
-31.31
-32.412
-33.478
-34.497
-35.458
-36.347
-37.154
-37.865
-38.47
-38.956
-39.313
-39.53
-39.597
-39.505
-39.247
-38.813
-38.199
-37.399
-36.41
-35.228
-33.853
-32.286
-30.527
-28.582
-26.454
-24.15
-21.677
-19.045
-16.263
-13.342
-10.294
-7.134
-3.874
-0.531
2.879
6.338
9.828
13.33
16.822
20.283
23.688
27.014
30.237
33.333
36.278
39.048
41.621
43.976
46.097
47.965
49.565
50.877
51.888
52.582
52.949
52.979
52.665
52.001
50.987
49.629
47.935
45.913
43.567
40.893
37.891
34.564
30.922
26.977
22.752
18.274
13.58
8.727
3.772
-1.229
-6.222
-11.167
-16.021
-20.734
-25.248
-29.487
-33.38
-36.87
-39.909
-42.46
-44.519
-46.101
-47.26
-48.091
-48.677
-49.117
-49.525
-49.993
-50.637
-51.593
-52.97
-54.946
-57.77
-61.549
-66.282
-71.859
-77.886
-83.916
-89.555
-94.199
-97.159
-98.069
-96.888
-93.926
-90.114
-86.706
-84.651
-84.787
-88.15
-94.031
-100.985
-108.646
-114.647
-117.778
-117.473
-107.94
-84.318
-42.62
20.999
103.138
198.245
302.185
409.218
513.558
610.006
690.189
746.376
777.568
783.397
765.924
729.392
672.407
595.116
500.441
390.796
272.373
151.675
32.662
-80.52
-184.007
-274.911
-350.5
-408.86
-450.073
-475.243
-485.261
-481.387
-465.492
-439.689
-406.765
-369.722
-330.423
-290.023
-250.114
-212.425
-178.451
-149.48
-125.698
-106.413
-91.376
-80.52
-73.193
-68.345
-64.586
-60.331
-54.915
-48.488
-41.082
-32.788
-23.917
-14.9
-6.584
-0.023
4.327
6.506
6.692
5.258
2.536
-1.179
-5.346
-9.336
-12.733
-15.277
-16.886
-17.63
-17.539
-16.632
-14.99
-12.714
-9.917
-6.716
-3.191
0.588
4.545
8.603
12.652
16.575
20.27
23.628
26.587
29.118
31.2
32.834
34.037
34.828
35.248
35.352
35.185
34.79
34.21
33.481
32.648
31.766
30.887
30.065
29.342
28.743
28.293
28.008
27.898
27.969
28.22
28.642
29.229
29.977
30.883
31.944
33.155
34.504
35.98
37.569
39.259
41.035
42.882
44.784
46.725
48.688
50.658
52.619
54.556
56.451
58.283
60.036
61.688
63.224
64.623
65.87
66.948
67.842
68.539
69.028
69.3
69.346
69.159
68.735
68.071
67.165
66.016
64.627
63
61.14
59.053
56.748
54.234
51.523
48.626
45.557
42.332
38.964
35.471
31.869
28.174
24.405
20.58
16.716
12.832
8.946
5.076
1.239
-2.546
-6.264
-9.9
-13.438
-16.865
-20.169
-23.338
-26.362
-29.231
-31.937
-34.473
-36.834
-39.014
-41.012
-42.824
-44.452
-45.895
-47.155
-48.236
-49.141
-49.876
-50.446
-50.856
-51.114
-51.228
-51.204
-51.052
-50.78
-50.398
-49.915
-49.342
-48.689
-47.964
-47.18
-46.344
-45.467
-44.559
-43.629
-42.684
-41.735
-40.789
-39.854
-38.937
-38.045
-37.183
-36.356
-35.568
-34.824
-34.125
-33.473
-32.87
-32.317
-31.814
-31.362
-30.961
-30.61
-30.309
-30.056
-29.85
-29.69
-29.573
-29.497
-29.46
-29.46
-29.493
-29.558
-29.65
-29.768
-29.908
-30.066
-30.24
-30.425
-30.619
-30.817
-31.016
-31.213
-31.406
-31.592
-31.768
-31.934
-32.088
-32.23
-32.358
-32.472
-32.573
-32.658
-32.73
-32.787
-32.83
-32.859
-32.874
-32.877
-32.868
-32.847
-32.816
-32.774
-32.723
-32.663
-32.596
-32.522
-32.443
-32.359
-32.274
-32.188
-32.104
-32.024
-31.949
-31.883
-31.825
-31.777
-31.741
-31.715
-31.701
-31.698
-31.706
-31.723
-31.748
-31.78
-31.818
-31.859
-31.9
-31.939
-31.974
-31.999
-32.014
-32.013
-31.993
-31.95
-31.881
-31.782
-31.649
-31.477
-31.262
-30.999
-30.683
-30.308
-29.869
-29.36
-28.776
-28.11
-27.357
-26.514
-25.575
-24.537
-23.398
-22.153
-20.801
-19.341
-17.771
-16.093
-14.305
-12.41
-10.411
-8.309
-6.11
-3.818
-1.437
1.025
3.563
6.168
8.833
11.55
14.308
17.099
19.91
22.73
25.547
28.345
31.11
33.827
36.477
39.043
41.508
43.852
46.058
48.107
49.982
51.668
53.149
54.412
55.444
56.233
56.767
57.035
57.029
56.738
56.155
55.275
54.095
52.618
50.849
48.794
46.457
43.84
40.949
37.789
34.369
30.7
26.797
22.681
18.389
13.972
9.48
4.97
0.49
-3.914
-8.198
-12.314
-16.214
-19.841
-23.146
-26.089
-28.628
-30.728
-32.363
-33.536
-34.301
-34.756
-35.006
-35.148
-35.256
-35.401
-35.7
-36.272
-37.228
-38.67
-40.661
-43.301
-46.791
-51.24
-56.585
-62.591
-68.771
-74.582
-79.59
-83.279
-84.976
-84.263
-81.156
-76.068
-69.928
-63.869
-58.844
-55.776
-55.691
-57.952
-60.025
-59.473
-54.123
-45.396
-37.319
-30.389
-20.377
4.695
58.416
146.563
266.028
399.87
526.826
631.898
704.422
746.192
765.317
765.201
749.694
717.687
663.327
587.051
491.55
379.545
258.457
132.734
4.489
-118.269
-229.355
-322.633
-391.247
-437.404
-464.94
-477.96
-482.123
-477.615
-464.586
-444.488
-418.01
-388.199
-357.11
-324.782
-291.556
-257.108
-221.462
-185.884
-151.31
-118.442
-88.29
-61.64
-39.206
-21.733
-9.146
-0.581
4.967
8.674
11.463
13.806
16.19
19.023
22.294
25.725
28.785
30.733
31.233
30.321
28.099
24.835
20.839
16.414
12.019
8.209
5.335
3.552
2.895
3.259
4.555
6.722
9.642
13.168
17.158
21.492
26.079
30.849
35.728
40.619
45.422
50.031
54.347
58.308
61.882
65.063
67.86
70.292
72.381
74.161
75.68
76.981
78.103
79.079
79.936
80.707
81.436
82.168
82.949
83.813
84.781
85.863
87.067
88.394
89.843
91.408
93.072
94.823
96.653
98.554
100.521
102.547
104.619
106.723
108.845
110.973
113.094
115.196
117.266
119.292
121.264
123.171
125.004
126.755
128.411
129.96
131.39
132.687
133.842
134.84
135.672
136.325
136.791
137.06
137.127
136.984
136.625
136.046
135.243
134.213
132.956
131.47
129.756
127.816
125.652
123.27
120.674
117.87
114.866
111.669
108.289
104.735
101.018
97.149
93.139
89.002
84.751
80.399
75.962
71.454
66.891
62.288
57.662
53.028
48.402
43.8
39.237
34.73
30.291
25.938
21.682
17.538
13.518
9.634
5.898
2.32
-1.091
-4.326
-7.378
-10.241
-12.91
-15.379
-17.646
-19.71
-21.568
-23.221
-24.671
-25.921
-26.972
-27.832
-28.504
-28.996
-29.315
-29.469
-29.468
-29.321
-29.039
-28.632
-28.112
-27.491
-26.78
-25.99
-25.135
-24.226
-23.274
-22.29
-21.287
-20.273
-19.259
-18.255
-17.27
-16.311
-15.386
-14.502
-13.665
-12.88
-12.15
-11.48
-10.873
-10.329
-9.849
-9.435
-9.086
-8.8
-8.577
-8.412
-8.305
-8.25
-8.244
-8.283
-8.362
-8.476
-8.62
-8.789
-8.978
-9.183
-9.398
-9.619
-9.843
-10.065
-10.282
-10.492
-10.691
-10.878
-11.052
-11.211
-11.355
-11.486
-11.602
-11.707
-11.801
-11.887
-11.967
-12.044
-12.121
-12.201
-12.288
-12.386
-12.499
-12.631
-12.786
-12.969
-13.183
-13.434
-13.725
-14.059
-14.44
-14.871
-15.353
-15.888
-16.479
-17.125
-17.827
-18.584
-19.395
-20.258
-21.171
-22.129
-23.13
-24.169
-25.24
-26.338
-27.458
-28.593
-29.737
-30.882
-32.023
-33.151
-34.259
-35.339
-36.385
-37.387
-38.338
-39.231
-40.056
-40.808
-41.478
-42.059
-42.545
-42.929
-43.206
-43.369
-43.415
-43.338
-43.136
-42.805
-42.343
-41.75
-41.025
-40.168
-39.181
-38.066
-36.825
-35.461
-33.979
-32.381
-30.673
-28.862
-26.952
-24.95
-22.864
-20.701
-18.471
-16.18
-13.84
-11.461
-9.051
-6.624
-4.189
-1.76
0.651
3.032
5.368
7.644
9.843
11.951
13.951
15.826
17.562
19.143
20.555
21.786
22.827
23.667
24.297
24.706
24.883
24.819
24.506
23.938
23.11
22.018
20.662
19.049
17.184
15.076
12.727
10.132
7.287
4.193
0.856
-2.713
-6.497
-10.471
-14.602
-18.84
-23.134
-27.435
-31.697
-35.887
-39.974
-43.918
-47.668
-51.159
-54.323
-57.11
-59.477
-61.394
-62.861
-63.896
-64.557
-64.938
-65.121
-65.198
-65.26
-65.398
-65.727
-66.363
-67.411
-69.03
-71.436
-74.778
-79.107
-84.26
-89.803
-95.284
-100.275
-104.246
-106.64
-107.029
-105.259
-101.855
-98.022
-94.93
-93.524
-94.757
-99.199
-106.973
-117.899
-129.351
-137.521
-140.156
-134.166
-118.998
-95.099
-57.716
-4.17
67.51
158.705
261.499
367.648
470.11
560.374
635.841
694.521
733.431
751.727
747.712
720.795
672.034
602.943
516.328
415.73
304.951
188.374
70.332
-45.351
-154.683
-253.868
-339.759
-409.819
-462.585
-498.032
-517.046
-520.692
-510.528
-488.761
-457.909
-420.882
-380.505
-338.647
-296.553
-255.716
-217.694
-183.703
-154.65
-130.547
-110.765
-95.064
-83.358
-75.058
-69.196
-64.555
-59.827
-54.481
-48.658
-42.382
-35.685
-28.791
-22.065
-16.186
-11.988
-9.801
-9.498
-10.842
-13.49
-17.109
-21.382
-25.836
-29.903
-33.207
-35.55
-36.872
-37.24
-36.707
-35.313
-33.145
-30.328
-26.982
-23.22
-19.139
-14.803
-10.282
-5.667
-1.053
3.463
7.783
11.822
15.528
18.874
21.85
24.47
26.751
28.721
30.419
31.894
33.188
34.342
35.39
36.36
37.29
38.221
39.194
40.253
41.426
42.732
44.184
45.786
47.539
49.441
51.48
53.64
55.907
58.267
60.709
63.224
65.798
68.414
71.054
73.698
76.327
78.923
81.467
83.94
86.324
88.601
90.754
92.77
94.633
96.328
97.838
99.149
100.245
101.114
101.744
102.123
102.24
102.088
101.661
100.954
99.965
98.692
97.136
95.297
93.18
90.79
88.133
85.216
82.049
78.643
75.01
71.162
67.115
62.882
58.481
53.927
49.238
44.431
39.523
34.532
29.476
24.372
19.239
14.092
8.949
3.826
-1.26
-6.294
-11.262
-16.149
-20.943
-25.632
-30.203
-34.646
-38.952
-43.111
-47.116
-50.96
-54.635
-58.138
-61.464
-64.61
-67.572
-70.35
-72.941
-75.347
-77.566
-79.601
-81.452
-83.122
-84.613
-85.929
-87.073
-88.049
-88.862
-89.516
-90.016
-90.369
-90.578
-90.651
-90.593
-90.41
-90.11
-89.697
-89.18
-88.564
-87.857
-87.066
-86.197
-85.256
-84.252
-83.189
-82.075
-80.915
-79.716
-78.485
-77.226
-75.948
-74.654
-73.352
-72.046
-70.743
-69.447
-68.164
-66.897
-65.652
-64.431
-63.24
-62.081
-60.958
-59.873
-58.828
-57.827
-56.87
-55.959
-55.094
-54.276
-53.504
-52.78
-52.102
-51.47
-50.883
-50.34
-49.842
-49.385
-48.969
-48.593
-48.255
-47.952
-47.683
-47.445
-47.236
-47.055
-46.899
-46.766
-46.656
-46.565
-46.492
-46.438
-46.4
-46.378
-46.371
-46.377
-46.398
-46.437
-46.492
-46.568
-46.664
-46.778
-46.916
-47.084
-47.273
-47.479
-47.695
-47.913
-48.143
-48.402
-48.678
-48.955
-49.268
-49.643
-50.098
-50.664
-51.315
-51.997
-52.737
-53.585
-54.401
-55.023
-55.541
-55.943
-56.193
-56.631
-56.32
-54.348
-52.003
-49.67
-49.72
-54.991
-62.326
-69.619
-73.737
-70.379
-63.336
-55.823
-50.039
-49.627
-51.974
-54.435
-56.42
-56.316
-55.057
-53.842
-52.445
-51.018
-49.482
-47.598
-45.526
-43.401
-41.184
-38.873
-36.492
-34.045
-31.533
-28.961
-26.318
-23.589
-20.797
-17.967
-15.109
-12.238
-9.37
-6.516
-3.696
-0.928
1.771
4.387
6.9
9.295
11.554
13.658
15.592
17.341
18.888
20.225
21.341
22.226
22.872
23.271
23.413
23.292
22.905
22.248
21.321
20.125
18.664
16.951
14.999
12.821
10.426
7.814
4.989
1.958
-1.267
-4.674
-8.238
-11.935
-15.728
-19.565
-23.393
-27.16
-30.817
-34.328
-37.654
-40.75
-43.561
-46.024
-48.076
-49.672
-50.774
-51.353
-51.419
-51.001
-50.159
-48.991
-47.582
-46.035
-44.462
-42.965
-41.66
-40.661
-40.079
-40.097
-40.95
-42.753
-45.533
-49.183
-53.374
-57.775
-62.037
-65.574
-67.755
-68.233
-66.854
-63.818
-59.96
-56.162
-53.281
-52.629
-54.306
-56.679
-58.527
-57.986
-55.804
-56.854
-62.11
-69.771
-71.978
-52.393
-0.767
87.471
209.07
346.766
482.905
600.295
684.665
734.029
752.898
750.492
735.984
712.204
676.903
624.44
552.049
461.559
357.484
246.826
135.118
25.76
-77.764
-172.395
-255.53
-324.576
-377.916
-415.585
-438.132
-446.35
-441.856
-426.544
-402.611
-372.864
-339.999
-305.782
-271.734
-239.369
-209.657
-183.396
-160.925
-141.715
-124.935
-110.099
-96.63
-83.706
-70.809
-57.43
-43.32
-28.874
-14.685
-1.197
11.023
21.308
29.289
34.645
37.263
37.439
35.537
31.955
27.223
21.882
16.345
11.015
6.19
2.034
-1.274
-3.638
-5.049
-5.521
-5.103
-3.854
-1.824
0.914
4.258
8.1
12.317
16.802
21.464
26.188
30.86
35.373
39.61
43.501
47.015
50.129
52.847
55.187
57.17
58.839
60.251
61.454
62.495
63.42
64.26
65.06
65.866
66.723
67.682
68.777
70.029
71.455
73.063
74.853
76.825
78.968
81.263
83.695
86.253
88.922
91.692
94.551
97.48
100.461
103.474
106.5
109.521
112.518
115.472
118.363
121.174
123.888
126.491
128.965
131.295
133.461
135.449
137.241
138.823
140.181
141.302
142.175
142.791
143.14
143.219
143.022
142.547
141.792
140.757
139.445
137.86
136.005
133.888
131.517
128.9
126.046
122.968
119.677
116.186
112.508
108.657
104.646
100.492
96.212
91.823
87.344
82.79
78.17
73.501
68.802
64.08
59.346
54.607
49.857
45.123
40.45
35.85
31.337
26.952
22.701
18.607
14.736
11.05
7.44
3.892
0.406
-3.15
-6.842
-10.555
-14.381
-18.254
-21.531
-25.04
-29.733
-34.333
-38.805
-40.236
-33.979
-23.501
-12.56
-7.098
-16.717
-37.338
-60.398
-78.282
-79.688
-66.77
-49.415
-33.864
-27.839
-31.406
-37.904
-44.211
-47.852
-48.257
-47.912
-47.662
-47.318
-47
-46.376
-45.361
-44.264
-43.187
-42.09
-41.007
-39.986
-39.007
-38.055
-37.111
-36.126
-35.094
-34.045
-32.99
-31.928
-30.868
-29.814
-28.773
-27.758
-26.774
-25.824
-24.908
-24.033
-23.199
-22.413
-21.678
-20.996
-20.369
-19.802
-19.295
-18.851
-18.47
-18.154
-17.904
-17.718
-17.597
-17.541
-17.547
-17.616
-17.746
-17.934
-18.181
-18.483
-18.837
-19.243
-19.695
-20.192
-20.73
-21.306
-21.916
-22.557
-23.226
-23.92
-24.635
-25.369
-26.118
-26.878
-27.647
-28.42
-29.195
-29.967
-30.733
-31.489
-32.233
-32.96
-33.668
-34.353
-35.012
-35.642
-36.238
-36.798
-37.317
-37.792
-38.218
-38.593
-38.912
-39.173
-39.372
-39.506
-39.573
-39.57
-39.493
-39.342
-39.112
-38.802
-38.41
-37.933
-37.37
-36.721
-35.984
-35.159
-34.247
-33.249
-32.164
-30.996
-29.744
-28.411
-27.001
-25.515
-23.958
-22.334
-20.649
-18.909
-17.12
-15.29
-13.426
-11.536
-9.63
-7.716
-5.804
-3.903
-2.024
-0.178
1.624
3.372
5.053
6.653
8.159
9.557
10.833
11.975
12.968
13.8
14.458
14.934
15.217
15.3
15.174
14.833
14.267
13.47
12.435
11.159
9.639
7.874
5.866
3.623
1.155
-1.528
-4.417
-7.511
-10.807
-14.296
-17.971
-21.817
-25.817
-29.946
-34.168
-38.432
-42.69
-46.891
-50.992
-54.959
-58.754
-62.338
-65.665
-68.676
-71.322
-73.558
-75.347
-76.655
-77.468
-77.804
-77.72
-77.317
-76.688
-75.904
-75.041
-74.18
-73.436
-72.94
-72.811
-73.156
-74.108
-75.857
-78.53
-82.129
-86.44
-91.025
-95.426
-99.2
-101.848
-102.817
-101.746
-98.615
-94.023
-89.019
-84.47
-81.275
-80.381
-82.339
-87.469
-94.505
-99.861
-100.94
-96.124
-85.323
-70.881
-50.908
-19.565
29.959
103.971
201.794
314.786
429.303
532.514
615.339
673.535
710.16
727.943
728.175
712.758
679.177
625.684
553.637
464.766
363.402
254.468
141.894
29.13
-80.756
-183.838
-276.185
-354.643
-416.738
-461.566
-489.569
-501.087
-496.915
-479.474
-451.683
-416.701
-377.954
-337.775
-297.527
-258.821
-223.251
-191.464
-163.791
-140.212
-119.982
-102.757
-88.601
-77.208
-67.959
-60.385
-53.884
-47.829
-42.2
-36.995
-32.022
-27.297
-23.006
-19.326
-16.627
-15.431
-15.807
-17.574
-20.583
-24.518
-29.03
-33.841
-38.514
-42.501
-45.503
-47.395
-48.123
-47.786
-46.452
-44.143
-40.973
-37.096
-32.647
-27.769
-22.565
-17.09
-11.447
-5.76
-0.154
5.23
10.299
15.018
19.353
23.295
26.85
30.025
32.852
35.383
37.662
39.73
41.624
43.372
45.012
46.593
48.165
49.782
51.483
53.291
55.224
57.292
59.5
61.851
64.336
66.941
69.654
72.467
75.371
78.362
81.431
84.563
87.745
90.961
94.197
97.438
100.669
103.876
107.044
110.158
113.204
116.172
119.047
121.813
124.455
126.954
129.296
131.464
133.444
135.218
136.774
138.098
139.179
140.008
140.575
140.872
140.894
140.635
140.092
139.264
138.148
136.748
135.064
133.102
130.866
128.364
125.604
122.595
119.349
115.877
112.193
108.31
104.244
100.011
95.627
91.109
86.476
81.746
76.937
72.07
67.162
62.233
57.303
52.389
47.509
42.682
37.925
33.252
28.681
24.225
19.897
15.711
11.678
7.808
4.11
0.593
-2.738
-5.875
-8.815
-11.555
-14.092
-16.425
-18.555
-20.483
-22.211
-23.743
-25.083
-26.237
-27.212
-28.014
-28.653
-29.138
-29.477
-29.682
-29.761
-29.728
-29.591
-29.363
-29.054
-28.677
-28.241
-27.758
-27.237
-26.689
-26.123
-25.548
-24.973
-24.405
-23.851
-23.318
-22.812
-22.34
-21.905
-21.512
-21.165
-20.868
-20.621
-20.428
-20.29
-20.205
-20.175
-20.198
-20.273
-20.397
-20.569
-20.785
-21.043
-21.34
-21.67
-22.032
-22.42
-22.83
-23.26
-23.704
-24.16
-24.624
-25.093
-25.564
-26.035
-26.504
-26.969
-27.428
-27.88
-28.322
-28.754
-29.174
-29.581
-29.976
-30.359
-30.728
-31.086
-31.432
-31.769
-32.098
-32.42
-32.738
-33.053
-33.367
-33.683
-34.004
-34.333
-34.671
-35.022
-35.389
-35.774
-36.179
-36.607
-37.059
-37.536
-38.039
-38.569
-39.125
-39.709
-40.319
-40.956
-41.618
-42.306
-43.018
-43.752
-44.506
-45.279
-46.067
-46.866
-47.673
-48.484
-49.294
-50.099
-50.894
-51.673
-52.432
-53.164
-53.863
-54.523
-55.138
-55.7
-56.202
-56.64
-57.004
-57.29
-57.491
-57.602
-57.618
-57.534
-57.346
-57.049
-56.641
-56.117
-55.475
-54.713
-53.83
-52.824
-51.696
-50.446
-49.078
-47.594
-45.998
-44.295
-42.49
-40.589
-38.601
-36.532
-34.393
-32.193
-29.944
-27.657
-25.344
-23.02
-20.699
-18.396
-16.129
-13.918
-11.778
-9.731
-7.794
-5.987
-4.328
-2.834
-1.519
-0.397
0.521
1.222
1.69
1.913
1.884
1.593
1.034
0.205
-0.897
-2.269
-3.9
-5.78
-7.902
-10.262
-12.868
-15.723
-18.823
-22.161
-25.725
-29.492
-33.443
-37.541
-41.734
-45.971
-50.2
-54.374
-58.466
-62.434
-66.228
-69.784
-73.02
-75.859
-78.249
-80.148
-81.533
-82.404
-82.776
-82.691
-82.225
-81.477
-80.544
-79.512
-78.464
-77.502
-76.752
-76.424
-76.795
-78.022
-80.149
-83.107
-86.608
-90.275
-93.714
-96.328
-97.434
-96.723
-94.148
-89.955
-85.17
-81.182
-79.306
-80.972
-86.102
-92.625
-98.954
-104.292
-110.712
-122.139
-137.889
-151.713
-150.812
-120.396
-53.487
48.239
174.143
308.158
436.209
546.397
630.965
687.623
718.09
728.236
723.414
705.783
674.177
624.288
554.191
465.875
363.503
253.348
140.861
29.562
-77.155
-176.121
-264.458
-339.401
-399.068
-443.002
-471.68
-485.942
-486.997
-476.081
-454.841
-425.619
-390.875
-352.683
-312.548
-271.81
-232.034
-195.252
-163.231
-136.726
-115.725
-99.893
-88.916
-82.328
-79.145
-77.591
-75.711
-72.373
-67.198
-60.222
-51.676
-41.842
-31.216
-20.841
-11.941
-5.182
-0.751
1.491
1.902
0.757
-1.661
-4.824
-8.131
-11.189
-13.769
-15.804
-17.327
-18.28
-18.606
-18.323
-17.482
-16.159
-14.419
-12.289
-9.795
-6.98
-3.905
-0.648
2.723
6.168
9.642
13.097
16.482
19.717
22.752
25.57
28.165
30.55
32.748
34.772
36.652
38.433
40.15
41.841
43.535
45.248
47.002
48.822
50.737
52.784
54.989
57.362
59.907
62.626
65.511
68.558
71.749
75.06
78.469
81.956
85.502
89.094
92.711
96.332
99.933
103.488
106.975
110.369
113.648
116.787
119.765
122.56
125.154
127.532
129.677
131.573
133.206
134.562
135.63
136.398
136.859
137.005
136.832
136.336
135.518
134.38
132.927
131.162
129.095
126.734
124.089
121.174
118.001
114.585
110.941
107.087
103.041
98.821
94.448
89.942
85.324
80.617
75.842
71.022
66.179
61.334
56.507
51.719
46.989
42.336
37.777
33.328
29.005
24.821
20.789
16.92
13.224
9.709
6.381
3.246
0.308
-2.43
-4.967
-7.301
-9.434
-11.367
-13.101
-14.639
-15.987
-17.149
-18.131
-18.941
-19.586
-20.076
-20.419
-20.627
-20.709
-20.676
-20.54
-20.31
-19.998
-19.615
-19.171
-18.677
-18.143
-17.578
-16.992
-16.393
-15.789
-15.187
-14.593
-14.013
-13.452
-12.916
-12.407
-11.929
-11.487
-11.083
-10.719
-10.399
-10.122
-9.892
-9.707
-9.568
-9.475
-9.426
-9.419
-9.452
-9.524
-9.63
-9.768
-9.935
-10.128
-10.341
-10.573
-10.818
-11.073
-11.334
-11.599
-11.864
-12.126
-12.383
-12.634
-12.877
-13.112
-13.336
-13.55
-13.753
-13.945
-14.125
-14.293
-14.449
-14.593
-14.726
-14.848
-14.959
-15.062
-15.157
-15.246
-15.33
-15.411
-15.491
-15.572
-15.656
-15.746
-15.844
-15.953
-16.075
-16.212
-16.367
-16.542
-16.738
-16.956
-17.198
-17.462
-17.749
-18.059
-18.39
-18.741
-19.112
-19.501
-19.906
-20.325
-20.757
-21.199
-21.647
-22.101
-22.555
-23.008
-23.456
-23.896
-24.323
-24.735
-25.127
-25.497
-25.839
-26.15
-26.425
-26.661
-26.851
-26.992
-27.079
-27.11
-27.08
-26.986
-26.825
-26.597
-26.298
-25.927
-25.484
-24.968
-24.377
-23.712
-22.973
-22.161
-21.276
-20.322
-19.3
-18.213
-17.065
-15.86
-14.602
-13.295
-11.945
-10.555
-9.133
-7.685
-6.218
-4.741
-3.261
-1.79
-0.34
1.077
2.448
3.76
5.002
6.16
7.22
8.17
8.996
9.685
10.225
10.604
10.808
10.825
10.644
10.258
9.662
8.856
7.836
6.6
5.148
3.482
1.611
-0.459
-2.727
-5.186
-7.832
-10.655
-13.642
-16.775
-20.035
-23.402
-26.847
-30.345
-33.863
-37.364
-40.809
-44.163
-47.402
-50.503
-53.456
-56.239
-58.815
-61.141
-63.174
-64.89
-66.323
-67.5
-68.413
-69.118
-69.753
-70.543
-71.873
-74.071
-77.17
-81.16
-86.073
-91.759
-97.991
-104.278
-109.562
-112.853
-113.767
-112.138
-107.971
-101.625
-93.442
-84.3
-76.085
-70.562
-69.044
-72.687
-81.983
-97.009
-116.327
-136.098
-152.424
-162.925
-169.469
-176.8
-185.211
-188.571
-173.527
-125.147
-37.932
83.713
225.884
370.363
502.828
611.2
688.226
732.306
744.942
732.645
702.059
656.254
595.495
517.673
422.664
313.894
197.238
79.682
-33.543
-138.649
-232.522
-313.114
-378.622
-427.906
-461.488
-480.483
-486.107
-480.071
-464.098
-440.175
-410.807
-378.212
-343.839
-308.847
-274.43
-241.875
-212.429
-186.639
-164.286
-144.934
-128.265
-114.052
-101.8
-90.489
-79.093
-67.166
-54.789
-42.349
-30.268
-18.806
-8.352
0.344
6.628
10.242
11.245
10.014
7.034
2.693
-2.575
-8.178
-13.587
-18.402
-22.318
-25.23
-27.119
-27.958
-27.773
-26.632
-24.6
-21.769
-18.251
-14.143
-9.554
-4.609
0.592
5.922
11.241
16.415
21.313
25.84
29.95
33.619
36.836
39.607
41.949
43.898
45.51
46.84
47.934
48.838
49.592
50.243
50.848
51.461
52.138
52.92
53.831
54.893
56.119
57.517
59.09
60.832
62.727
64.766
66.94
69.243
71.666
74.199
76.828
79.537
82.309
85.128
87.977
90.839
93.695
96.529
99.322
102.058
104.722
107.296
109.763
112.103
114.297
116.327
118.177
119.827
121.262
122.467
123.429
124.135
124.575
124.741
124.626
124.222
123.528
122.539
121.256
119.679
117.813
115.66
113.228
110.525
107.56
104.345
100.892
97.215
93.33
89.253
85
80.588
76.037
71.364
66.588
61.728
56.803
51.833
46.836
41.831
36.837
31.87
26.949
22.089
17.307
12.616
8.031
3.564
-0.773
-4.969
-9.015
-12.902
-16.623
-20.172
-23.545
-26.738
-29.749
-32.576
-35.22
-37.681
-39.962
-42.065
-43.994
-45.752
-47.344
-48.775
-50.052
-51.179
-52.165
-53.014
-53.735
-54.335
-54.821
-55.2
-55.48
-55.668
-55.772
-55.798
-55.755
-55.648
-55.484
-55.271
-55.013
-54.716
-54.386
-54.026
-53.642
-53.238
-52.815
-52.377
-51.927
-51.466
-50.997
-50.52
-50.036
-49.548
-49.055
-48.558
-48.059
-47.558
-47.055
-46.55
-46.046
-45.541
-45.037
-44.535
-44.034
-43.536
-43.042
-42.552
-42.068
-41.59
-41.119
-40.657
-40.204
-39.763
-39.335
-38.922
-38.525
-38.147
-37.791
-37.458
-37.152
-36.876
-36.633
-36.424
-36.254
-36.126
-36.041
-36.003
-36.014
-36.076
-36.191
-36.36
-36.586
-36.868
-37.208
-37.606
-38.062
-38.576
-39.147
-39.773
-40.452
-41.184
-41.966
-42.794
-43.667
-44.58
-45.529
-46.511
-47.521
-48.553
-49.601
-50.661
-51.724
-52.784
-53.834
-54.866
-55.873
-56.845
-57.775
-58.655
-59.476
-60.232
-60.913
-61.511
-62.021
-62.433
-62.741
-62.939
-63.02
-62.979
-62.81
-62.509
-62.073
-61.498
-60.782
-59.924
-58.922
-57.776
-56.487
-55.056
-53.486
-51.779
-49.939
-47.971
-45.882
-43.679
-41.368
-38.96
-36.463
-33.889
-31.248
-28.554
-25.817
-23.049
-20.266
-17.48
-14.705
-11.957
-9.25
-6.6
-4.024
-1.541
0.832
3.077
5.176
7.115
8.879
10.454
11.827
12.985
13.919
14.618
15.073
15.273
15.209
14.876
14.27
13.394
12.252
10.851
9.202
7.315
5.197
2.858
0.303
-2.461
-5.422
-8.567
-11.883
-15.341
-18.911
-22.552
-26.212
-29.849
-33.421
-36.889
-40.22
-43.371
-46.286
-48.917
-51.212
-53.138
-54.683
-55.822
-56.514
-56.74
-56.513
-55.894
-55.006
-53.917
-52.629
-51.213
-49.84
-48.836
-48.582
-49.278
-50.913
-53.47
-57.027
-61.543
-66.656
-71.424
-74.652
-75.552
-73.88
-69.742
-63.199
-54.379
-44.151
-34.531
-28.05
-26.702
-30.5
-37.724
-47.096
-58.137
-72.482
-92.033
-114.413
-132.896
-135.834
-111.195
-53.694
33.587
139.116
249.671
356.135
454.414
545.215
627.758
698.053
751.251
781.968
787.412
768.055
725.142
660.669
577.882
480.461
372.527
258.969
144.32
32.28
-73.43
-169.387
-253.079
-322.538
-376.574
-415.263
-439.275
-449.261
-446.306
-432.184
-409.058
-379.432
-345.824
-310.188
-274.092
-239.461
-208.401
-182.12
-160.991
-144.762
-132.598
-123.731
-117.518
-112.649
-107.259
-100.163
-90.864
-79.358
-66.253
-52.136
-37.466
-23.145
-10.393
0.008
7.695
12.656
15.29
15.985
15.038
12.899
10.118
7.115
4.195
1.536
-0.828
-2.847
-4.427
-5.486
-5.983
-5.902
-5.259
-4.093
-2.43
-0.316
2.188
5.018
8.11
11.393
14.801
18.284
21.784
25.241
28.592
31.746
34.64
37.246
39.557
41.59
43.367
44.912
46.256
47.443
48.515
49.511
50.459
51.381
52.302
53.255
54.275
55.409
56.687
58.13
59.746
61.539
63.508
65.65
67.953
70.396
72.958
75.625
78.381
81.216
84.114
87.054
90.017
92.979
95.918
98.815
101.647
104.394
107.036
109.552
111.927
114.144
116.189
118.045
119.695
121.126
122.322
123.273
123.966
124.392
124.544
124.416
124.004
123.309
122.331
121.073
119.538
117.733
115.666
113.345
110.783
107.989
104.978
101.764
98.363
94.789
91.062
87.197
83.215
79.132
74.97
70.745
66.479
62.19
57.896
53.617
49.37
45.174
41.044
36.996
33.046
29.206
25.49
21.907
18.469
15.182
12.054
9.091
6.297
3.676
1.229
-1.043
-3.139
-5.061
-6.811
-8.392
-9.806
-11.059
-12.156
-13.101
-13.902
-14.565
-15.097
-15.506
-15.8
-15.988
-16.078
-16.079
-16
-15.85
-15.637
-15.369
-15.055
-14.701
-14.315
-13.903
-13.471
-13.023
-12.566
-12.102
-11.635
-11.169
-10.707
-10.249
-9.798
-9.355
-8.921
-8.497
-8.083
-7.68
-7.287
-6.905
-6.533
-6.171
-5.817
-5.47
-5.129
-4.792
-4.457
-4.123
-3.786
-3.446
-3.1
-2.746
-2.384
-2.01
-1.626
-1.229
-0.819
-0.395
0.042
0.491
0.954
1.427
1.911
2.403
2.903
3.409
3.918
4.43
4.942
5.452
5.959
6.461
6.955
7.438
7.909
8.365
8.802
9.219
9.611
9.976
10.311
10.613
10.88
11.107
11.293
11.436
11.533
11.582
11.583
11.533
11.433
11.281
11.079
10.826
10.525
10.176
9.782
9.344
8.865
8.348
7.796
7.213
6.603
5.969
5.317
4.653
3.982
3.309
2.642
1.986
1.35
0.74
0.164
-0.372
-0.859
-1.29
-1.658
-1.956
-2.175
-2.31
-2.353
-2.299
-2.141
-1.873
-1.492
-0.994
-0.374
0.37
1.24
2.237
3.363
4.617
5.998
7.505
9.136
10.887
12.754
14.732
16.815
18.996
21.268
23.621
26.047
28.535
31.075
33.657
36.267
38.895
41.527
44.15
46.751
49.315
51.827
54.271
56.63
58.889
61.03
63.038
64.896
66.588
68.101
69.422
70.54
71.446
72.13
72.581
72.791
72.752
72.459
71.908
71.096
70.02
68.684
67.095
65.261
63.192
60.893
58.366
55.609
52.631
49.442
46.053
42.486
38.762
34.914
30.99
27.039
23.113
19.261
15.523
11.94
8.559
5.435
2.634
0.217
-1.77
-3.289
-4.313
-4.839
-4.875
-4.469
-3.705
-2.662
-1.438
-0.144
1.116
2.208
2.982
3.318
3.046
1.958
-0.056
-3.032
-6.867
-11.238
-15.819
-20.308
-24.238
-27.077
-28.444
-28.086
-26.208
-23.565
-20.792
-18.437
-17.152
-17.419
-19.553
-23.61
-28.605
-32.433
-33.056
-28.273
-15.511
7.259
41.992
90.631
152.233
224.312
305.813
393.508
485.657
580.982
670.917
747.838
804.083
831.617
832.188
808.686
763.774
702.33
624.274
530.521
424.565
309.653
191.688
76.014
-33.575
-133.036
-219.537
-291.042
-345.938
-384.205
-406.721
-414.313
-408.241
-390.359
-362.973
-328.947
-291.069
-251.236
-210.951
-171.951
-136.165
-105.211
-79.81
-59.664
-44.053
-32.521
-24.629
-19.551
-15.827
-11.779
-6.457
0.261
8.071
16.665
25.81
35.186
44.032
51.272
56.303
59.031
59.67
58.633
56.251
52.77
48.629
44.457
40.718
37.711
35.609
34.383
34.021
34.553
35.932
38.073
40.886
44.263
48.108
52.36
56.949
61.8
66.841
71.962
77.056
82.026
86.765
91.211
95.325
99.075
102.454
105.472
108.148
110.517
112.625
114.508
116.202
117.736
119.142
120.456
121.715
122.971
124.276
125.664
127.172
128.813
130.568
132.448
134.46
136.55
138.683
140.844
142.974
145.077
147.235
149.432
151.617
153.953
156.572
159.305
162.174
165.248
168.008
171.281
176.118
181.108
185.788
187.932
183.564
175.165
166.234
160.492
164.851
177.998
193.394
206.615
210.691
204.224
193.747
183.022
175.925
175.006
176.432
177.872
178.592
177.11
174.602
172.074
169.172
166.098
162.791
159.008
154.917
150.664
146.225
141.63
136.936
132.143
127.244
122.256
117.169
111.973
106.699
101.368
95.991
90.585
85.167
79.752
74.357
69.001
63.694
58.448
53.276
48.187
43.194
38.306
33.532
28.882
24.362
19.98
15.742
11.655
7.722
3.949
0.337
-3.11
-6.392
-9.508
-12.457
-15.24
-17.859
-20.316
-22.614
-24.758
-26.752
-28.601
-30.312
-31.892
-33.348
-34.688
-35.92
-37.051
-38.092
-39.049
-39.931
-40.747
-41.506
-42.214
-42.882
-43.516
-44.125
-44.717
-45.299
-45.879
-46.463
-47.057
-47.669
-48.303
-48.965
-49.66
-50.393
-51.167
-51.987
-52.854
-53.772
-54.742
-55.764
-56.84
-57.969
-59.149
-60.38
-61.66
-62.985
-64.354
-65.764
-67.211
-68.692
-70.204
-71.742
-73.304
-74.885
-76.482
-78.091
-79.709
-81.333
-82.96
-84.587
-86.21
-87.829
-89.439
-91.04
-92.629
-94.205
-95.766
-97.312
-98.842
-100.356
-101.854
-103.337
-104.806
-106.263
-107.709
-109.147
-110.579
-112.009
-113.44
-114.875
-116.318
-117.772
-119.241
-120.728
-122.237
-123.769
-125.329
-126.918
-128.538
-130.191
-131.878
-133.6
-135.358
-137.153
-138.984
-140.851
-142.753
-144.689
-146.657
-148.655
-150.682
-152.734
-154.809
-156.902
-159.011
-161.131
-163.256
-165.383
-167.505
-169.616
-171.709
-173.78
-175.82
-177.824
-179.785
-181.699
-183.56
-185.362
-187.102
-188.777
-190.382
-191.916
-193.376
-194.761
-196.069
-197.301
-198.457
-199.537
-200.544
-201.479
-202.344
-203.144
-203.881
-204.559
-205.184
-205.76
-206.293
-206.79
-207.259
-207.708
-208.146
-208.582
-209.026
-209.489
-209.98
-210.511
-211.092
-211.733
-212.443
-213.234
-214.115
-215.095
-216.184
-217.387
-218.713
-220.171
-221.771
-223.524
-225.44
-227.529
-229.802
-232.268
-234.932
-237.8
-240.871
-244.142
-247.607
-251.259
-255.091
-259.096
-263.266
-267.587
-272.042
-276.61
-281.265
-285.981
-290.728
-295.481
-300.22
-304.934
-309.623
-314.298
-318.968
-323.649
-328.349
-333.061
-337.782
-342.503
-347.214
-351.926
-356.646
-361.362
-366.071
-370.74
-375.316
-379.766
-384.007
-387.906
-391.43
-394.596
-397.494
-400.397
-403.535
-407.045
-411.175
-416.058
-421.524
-427.281
-432.756
-437.07
-439.602
-439.846
-437.219
-431.631
-423.557
-413.829
-403.894
-395.482
-390.033
-389.106
-394.291
-406.637
-426.723
-454.302
-488.206
-525.906
-563.648
-597.681
-625.153
-647.093
-666.79
-685.108
-698.825
-696.199
-663.255
-593.861
-490.182
-368.323
-249.95
-149.238
-75.243
-25.968
7.086
27.773
38.562
37.254
17.721
-22.942
-85.653
-168.46
-266.244
-374.402
-488.39
-603.745
-716.557
-821.64
-913.878
-989.432
-1045.159
-1079.62
-1092.911
-1085.428
-1058.761
-1016.473
-962.546
-901.157
-836.842
-772.874
-711.931
-656.97
-609.53
-569.536
-536.396
-508.659
-484.253
-461.798
-439.707
-415.814
-389.067
-359.29
-326.653
-292.111
-256.872
-221.783
-187.99
-156.937
-129.386
-105.669
-85.822
-69.373
-55.819
-44.76
-35.635
-27.809
-20.816
-14.295
-8
-1.847
4.284
10.538
17.033
23.889
31.177
38.928
47.142
55.792
64.829
74.179
83.759
93.474
103.221
112.9
122.427
131.729
140.729
149.352
157.508
165.097
172.067
178.402
184.106
189.211
193.752
197.765
201.308
204.445
207.239
209.744
212.008
214.066
215.964
217.75
219.479
221.21
222.982
224.823
226.751
228.779
230.915
233.161
235.513
237.955
240.477
243.073
245.735
248.462
251.243
254.066
256.919
259.786
262.653
265.507
268.334
271.12
273.851
276.515
279.1
281.598
283.998
286.287
288.455
290.489
292.377
294.112
295.681
297.076
298.289
299.312
300.14
300.769
301.196
301.418
301.434
301.245
300.852
300.257
299.463
298.476
297.301
295.945
294.415
292.72
290.87
288.873
286.742
284.488
282.121
279.655
277.101
274.47
271.775
269.028
266.239
263.42
260.582
257.735
254.89
252.058
249.247
246.467
243.728
241.037
238.402
235.829
233.327
230.9
228.553
226.293
224.122
222.044
220.064
218.183
216.404
214.727
213.153
211.684
210.319
209.056
207.896
206.837
205.878
205.018
204.254
203.587
203.013
202.532
202.141
201.839
201.623
201.493
201.444
201.476
201.586
201.77
202.028
202.356
202.751
203.211
203.733
204.313
204.949
205.638
206.375
207.157
207.981
208.843
209.74
210.668
211.623
212.602
213.601
214.616
215.642
216.676
217.712
218.747
219.776
220.793
221.794
222.775
223.73
224.655
225.546
226.398
227.206
227.966
228.675
229.329
229.924
230.457
230.924
231.325
231.656
231.916
232.104
232.218
232.256
232.22
232.107
231.917
231.651
231.309
230.89
230.396
229.827
229.184
228.468
227.681
226.823
225.896
224.901
223.839
222.712
221.52
220.265
218.947
217.568
216.128
214.627
213.067
211.446
209.766
208.025
206.223
204.36
202.435
200.446
198.394
196.277
194.094
191.845
189.529
187.147
184.696
182.179
179.595
176.945
174.229
171.449
168.606
165.704
162.743
159.729
156.663
153.551
150.397
147.206
143.985
140.739
137.476
134.202
130.926
127.657
124.402
121.171
117.975
114.822
111.724
108.689
105.73
102.856
100.078
97.405
94.849
92.418
90.121
87.968
85.965
84.12
82.441
80.931
79.598
78.445
77.476
76.692
76.096
75.689
75.469
75.435
75.583
75.912
76.414
77.084
77.916
78.9
80.026
81.285
82.664
84.149
85.728
87.384
89.101
90.861
92.646
94.437
96.214
97.956
99.642
101.253
102.768
104.166
105.43
106.542
107.484
108.24
108.792
109.126
109.226
109.079
108.669
107.987
107.02
105.764
104.217
102.378
100.248
97.832
95.125
92.131
88.859
85.315
81.51
77.462
73.19
68.73
64.13
59.436
54.696
49.956
45.249
40.618
36.103
31.749
27.609
23.728
20.142
16.894
14.021
11.545
9.474
7.771
6.354
5.141
4.059
3.056
2.085
1.063
-0.108
-1.524
-3.278
-5.428
-8.073
-11.407
-15.547
-20.463
-25.977
-31.679
-37.096
-41.836
-45.39
-47.132
-46.659
-43.919
-39.283
-33.54
-27.702
-22.83
-19.951
-20.173
-23.159
-26.746
-28.877
-28.008
-25.349
-24.032
-23.24
-16.904
6.255
57.748
140.549
248.062
366.124
479.889
580.803
665.637
734.627
787.604
821.584
832.761
818.234
777.129
710.655
622.01
515.627
396.356
270.016
142.461
18.736
-96.204
-198.118
-284.153
-352.333
-401.922
-434.112
-450.858
-454.243
-446.875
-431.042
-408.754
-382.361
-353.787
-323.834
-292.904
-261.447
-229.911
-199.382
-171.035
-145.171
-121.813
-101.306
-83.968
-69.902
-58.878
-49.796
-41.31
-32.846
-24.271
-15.51
-6.635
2.294
11.092
19.01
25.145
29.098
30.825
30.505
28.497
25.072
20.504
15.307
10.067
5.205
1.001
-2.408
-4.98
-6.657
-7.391
-7.206
-6.181
-4.406
-1.963
1.076
4.648
8.679
13.077
17.735
22.56
27.457
32.333
37.098
41.657
45.94
49.909
53.55
56.868
59.88
62.606
65.074
67.328
69.403
71.336
73.16
74.901
76.591
78.265
79.959
81.714
83.556
85.5
87.552
89.711
91.971
94.326
96.758
99.246
101.769
104.312
106.858
109.395
111.908
114.376
116.781
119.101
121.318
123.413
125.369
127.169
128.796
130.236
131.476
132.505
133.312
133.885
134.214
134.287
134.095
133.632
132.89
131.863
130.548
128.944
127.049
124.867
122.4
119.652
116.63
113.342
109.797
106.005
101.977
97.727
93.268
88.615
83.784
78.793
73.657
68.396
63.028
57.573
52.048
46.474
40.87
35.254
29.646
24.061
18.519
13.035
7.625
2.304
-2.914
-8.016
-12.989
-17.822
-22.504
-27.028
-31.384
-35.566
-39.567
-43.384
-47.012
-50.449
-53.693
-56.745
-59.605
-62.274
-64.754
-67.051
-69.168
-71.11
-72.883
-74.495
-75.952
-77.262
-78.433
-79.472
-80.388
-81.189
-81.881
-82.473
-82.972
-83.384
-83.717
-83.977
-84.169
-84.301
-84.376
-84.402
-84.381
-84.319
-84.219
-84.085
-83.92
-83.725
-83.503
-83.255
-82.982
-82.684
-82.361
-82.012
-81.635
-81.23
-80.792
-80.321
-79.813
-79.265
-78.675
-78.041
-77.359
-76.628
-75.846
-75.012
-74.124
-73.184
-72.19
-71.142
-70.043
-68.892
-67.691
-66.442
-65.148
-63.81
-62.433
-61.019
-59.573
-58.097
-56.598
-55.08
-53.549
-52.009
-50.469
-48.934
-47.411
-45.909
-44.434
-42.994
-41.598
-40.253
-38.968
-37.748
-36.603
-35.538
-34.56
-33.674
-32.886
-32.201
-31.622
-31.154
-30.799
-30.561
-30.441
-30.44
-30.56
-30.801
-31.164
-31.647
-32.25
-32.97
-33.806
-34.755
-35.812
-36.974
-38.236
-39.591
-41.034
-42.558
-44.156
-45.82
-47.541
-49.312
-51.124
-52.967
-54.833
-56.714
-58.599
-60.48
-62.348
-64.196
-66.015
-67.796
-69.531
-71.214
-72.834
-74.386
-75.861
-77.252
-78.552
-79.754
-80.852
-81.839
-82.711
-83.464
-84.092
-84.592
-84.961
-85.198
-85.3
-85.266
-85.095
-84.788
-84.344
-83.767
-83.057
-82.217
-81.249
-80.158
-78.947
-77.62
-76.181
-74.635
-72.987
-71.242
-69.407
-67.488
-65.492
-63.429
-61.305
-59.131
-56.916
-54.67
-52.403
-50.126
-47.848
-45.581
-43.336
-41.122
-38.95
-36.833
-34.781
-32.808
-30.927
-29.151
-27.494
-25.969
-24.588
-23.365
-22.309
-21.429
-20.732
-20.225
-19.915
-19.81
-19.918
-20.243
-20.789
-21.557
-22.548
-23.76
-25.19
-26.823
-28.649
-30.657
-32.841
-35.205
-37.754
-40.483
-43.39
-46.464
-49.693
-53.061
-56.541
-60.09
-63.663
-67.212
-70.697
-74.088
-77.348
-80.435
-83.29
-85.843
-88.025
-89.781
-91.066
-91.853
-92.133
-91.915
-91.241
-90.175
-88.802
-87.239
-85.608
-84.033
-82.642
-81.553
-80.949
-81.098
-82.216
-84.387
-87.484
-91.195
-95.186
-99.153
-102.67
-105.157
-106.119
-105.408
-103.571
-101.603
-100.446
-101.144
-104.694
-111.798
-123.071
-137.387
-151.19
-162.11
-168.188
-168.277
-164.509
-153.503
-128.225
-84.226
-14.224
81.375
193.686
316.918
439.078
547.801
637.021
697.2
726.033
728.678
707.968
669.794
616.715
546.194
459.286
358.197
247.107
133.207
21.616
-84.055
-180.605
-266.079
-338.777
-397.221
-441.218
-471.518
-488.985
-494.801
-489.973
-475.346
-452.542
-423.643
-390.125
-354.141
-317.968
-282.162
-248.586
-217.165
-185.472
-155.177
-128.568
-109.918
-105.696
-116.17
-135.526
-155.223
-166.034
-161.326
-142.97
-116.498
-86.459
-61.7
-45.316
-36.679
-37.502
-41.942
-46.088
-49.318
-48.448
-45.842
-43.852
-42.199
-42.09
-42.687
-42.817
-42.761
-42.412
-41.8
-41.107
-40.174
-38.874
-37.244
-35.323
-33.126
-30.674
-28.007
-25.176
-22.26
-19.335
-16.419
-13.51
-10.627
-7.801
-5.086
-2.557
-0.248
1.839
3.706
5.37
6.849
8.156
9.323
10.393
11.403
12.386
13.362
14.343
15.351
16.414
17.571
18.865
20.323
21.962
23.795
25.828
28.065
30.504
33.133
35.933
38.886
41.978
45.194
48.524
51.948
55.446
58.995
62.569
66.143
69.694
73.196
76.623
79.952
83.159
86.223
89.123
91.841
94.354
96.644
98.689
100.472
101.976
103.184
104.081
104.654
104.895
104.793
104.345
103.546
102.395
100.894
99.047
96.858
94.335
91.489
88.332
84.877
81.141
77.142
72.897
68.429
63.759
58.91
53.905
48.768
43.525
38.198
32.813
27.393
21.964
16.547
11.166
5.844
0.601
-4.541
-9.563
-14.446
-19.174
-23.732
-28.105
-32.281
-36.249
-40.001
-43.528
-46.826
-49.891
-52.719
-55.311
-57.668
-59.793
-61.689
-63.362
-64.819
-66.067
-67.116
-67.972
-68.648
-69.15
-69.49
-69.682
-69.734
-69.653
-69.459
-69.168
-68.795
-68.357
-67.859
-67.294
-66.691
-66.069
-65.405
-64.679
-63.881
-62.989
-62.04
-61.084
-60.093
-59.015
-57.978
-57.143
-56.426
-55.832
-55.385
-54.74
-54.773
-56.345
-58.217
-60.01
-59.444
-53.77
-45.988
-38.098
-33.096
-35.118
-40.551
-46.302
-50.244
-48.884
-44.711
-40.335
-36.426
-34.479
-33.549
-32.411
-31.169
-29.801
-28.583
-27.673
-26.791
-25.918
-25.171
-24.982
-26.006
-28.134
-30.999
-34.455
-38.16
-41.842
-45.423
-47.766
-47.32
-43.853
-37.163
-28.35
-19.556
-10.742
-2.041
7.157
18.21
28.839
36.011
35.456
22.164
-3.658
-37.526
-70.842
-93.304
-98.842
-88.55
-69.836
-51.134
-38.932
-33.91
-31.96
-30.5
-28.154
-25.548
-24.961
-26.475
-29.104
-32.225
-35.127
-37.66
-39.993
-41.827
-42.903
-43.387
-43.61
-43.847
-44.211
-44.613
-44.908
-45.09
-45.228
-45.344
-45.402
-45.347
-45.146
-44.811
-44.396
-43.939
-43.452
-42.935
-42.379
-41.78
-41.148
-40.491
-39.816
-39.125
-38.412
-37.668
-36.886
-36.064
-35.197
-34.281
-33.307
-32.265
-31.148
-29.955
-28.686
-27.343
-25.925
-24.428
-22.85
-21.192
-19.453
-17.637
-15.746
-13.781
-11.748
-9.65
-7.496
-5.292
-3.048
-0.773
1.522
3.826
6.125
8.403
10.643
12.829
14.943
16.967
18.882
20.669
22.313
23.796
25.103
26.217
27.123
27.803
28.243
28.428
28.345
27.983
27.334
26.391
25.154
23.625
21.807
19.703
17.309
14.623
11.65
8.394
4.867
1.086
-2.925
-7.132
-11.486
-15.936
-20.431
-24.925
-29.375
-33.74
-37.973
-42.022
-45.82
-49.309
-52.434
-55.147
-57.404
-59.18
-60.485
-61.363
-61.898
-62.168
-62.234
-62.165
-62.053
-62.007
-62.146
-62.573
-63.37
-64.668
-66.686
-69.554
-73.254
-77.588
-82.159
-86.588
-90.553
-93.609
-95.157
-94.789
-92.491
-88.741
-84.352
-80.069
-76.617
-74.802
-75.455
-78.257
-80.877
-80.169
-74.382
-65.306
-57.053
-51.952
-45.243
-24.365
23.243
103.953
212.532
332.244
446.77
545.235
623.631
685.109
731.453
761.221
771.699
759.213
722.493
662.709
582.317
485.082
375.043
256.727
135.175
14.869
-100.03
-205.56
-298.449
-376.164
-436.948
-480.283
-506.887
-517.73
-514.02
-497.509
-470.281
-434.78
-393.727
-349.578
-304.07
-259.042
-216.555
-178.353
-145.895
-119.853
-99.977
-85.745
-76.709
-71.993
-70.238
-69.895
-69.28
-67.392
-64.04
-59.273
-53.246
-46.326
-39.092
-32.377
-27.194
-24.072
-22.998
-23.75
-25.961
-29.245
-33.21
-37.327
-40.963
-43.68
-45.296
-45.773
-45.199
-43.662
-41.208
-37.928
-33.971
-29.472
-24.55
-19.311
-13.817
-8.137
-2.382
3.335
8.896
14.181
19.126
23.697
27.87
31.643
35.027
38.032
40.695
43.064
45.181
47.085
48.812
50.388
51.852
53.249
54.627
56.032
57.499
59.046
60.687
62.432
64.284
66.243
68.301
70.443
72.657
74.935
77.267
79.649
82.069
84.513
86.966
89.414
91.838
94.226
96.56
98.824
101.003
103.082
105.047
106.884
108.582
110.126
111.502
112.695
113.694
114.485
115.058
115.403
115.509
115.37
114.98
114.335
113.431
112.269
110.847
109.167
107.232
105.047
102.616
99.947
97.047
93.926
90.596
87.067
83.353
79.468
75.428
71.249
66.947
62.54
58.045
53.479
48.86
44.205
39.532
34.856
30.195
25.564
20.978
16.452
12.001
7.636
3.37
-0.787
-4.823
-8.73
-12.499
-16.124
-19.599
-22.917
-26.075
-29.069
-31.896
-34.555
-37.046
-39.368
-41.524
-43.515
-45.345
-47.018
-48.538
-49.912
-51.144
-52.241
-53.21
-54.057
-54.789
-55.414
-55.939
-56.37
-56.715
-56.981
-57.174
-57.302
-57.371
-57.386
-57.354
-57.28
-57.169
-57.025
-56.854
-56.658
-56.441
-56.206
-55.957
-55.694
-55.42
-55.135
-54.841
-54.538
-54.225
-53.901
-53.566
-53.217
-52.853
-52.471
-52.069
-51.645
-51.196
-50.72
-50.214
-49.675
-49.102
-48.49
-47.838
-47.144
-46.404
-45.618
-44.784
-43.9
-42.965
-41.978
-40.939
-39.848
-38.704
-37.509
-36.263
-34.966
-33.622
-32.23
-30.794
-29.317
-27.801
-26.25
-24.668
-23.06
-21.429
-19.782
-18.122
-16.456
-14.788
-13.123
-11.469
-9.83
-8.213
-6.622
-5.066
-3.548
-2.076
-0.654
0.711
2.015
3.253
4.42
5.513
6.526
7.457
8.303
9.06
9.725
10.298
10.777
11.16
11.447
11.64
11.737
11.742
11.656
11.481
11.221
10.879
10.458
9.964
9.401
8.774
8.091
7.358
6.581
5.768
4.928
4.067
3.195
2.318
1.446
0.586
-0.253
-1.064
-1.839
-2.569
-3.247
-3.866
-4.417
-4.895
-5.292
-5.603
-5.824
-5.949
-5.974
-5.897
-5.713
-5.421
-5.02
-4.508
-3.885
-3.152
-2.311
-1.364
-0.316
0.83
2.066
3.388
4.787
6.257
7.787
9.37
10.995
12.652
14.33
16.017
17.701
19.368
21.005
22.596
24.126
25.58
26.942
28.195
29.324
30.314
31.15
31.82
32.312
32.615
32.718
32.611
32.284
31.727
30.933
29.897
28.614
27.081
25.301
23.278
21.022
18.541
15.84
12.921
9.786
6.443
2.902
-0.823
-4.712
-8.739
-12.865
-17.041
-21.212
-25.329
-29.343
-33.217
-36.913
-40.389
-43.593
-46.464
-48.941
-50.978
-52.538
-53.591
-54.131
-54.183
-53.807
-53.127
-52.271
-51.346
-50.458
-49.68
-49.083
-48.787
-48.884
-49.397
-50.401
-52.005
-54.244
-57.179
-60.743
-64.553
-68.301
-71.87
-74.868
-76.649
-76.788
-74.779
-71.268
-68.793
-68.988
-71.511
-73.411
-68.254
-51.186
-24.377
3.952
20.511
13.653
-14.192
-48.577
-66.643
-44.792
23.574
131.253
260.881
390.462
508.999
610.194
691.864
754.9
794.818
810.764
802.705
770.222
716.642
641.981
547.688
438.038
316.95
191.121
66.658
-52.307
-161.451
-257.231
-337.254
-399.688
-443.992
-471.103
-482.007
-477.756
-460.125
-431.605
-395.087
-353.558
-309.701
-265.455
-222.797
-184.096
-151.179
-124.824
-104.937
-90.75
-81.201
-75.417
-72.303
-70.059
-66.933
-61.948
-54.825
-45.879
-35.734
-24.894
-13.899
-3.713
4.594
10.426
13.639
14.451
13.32
10.648
6.778
2.212
-2.434
-6.721
-10.37
-13.23
-15.277
-16.487
-16.819
-16.297
-15.007
-13.027
-10.442
-7.333
-3.755
0.213
4.48
8.965
13.576
18.221
22.822
27.292
31.536
35.498
39.14
42.44
45.41
48.066
50.428
52.536
54.434
56.162
57.76
59.264
60.7
62.102
63.503
64.939
66.453
68.072
69.814
71.69
73.704
75.853
78.134
80.534
83.034
85.618
88.27
90.976
93.726
96.507
99.301
102.092
104.86
107.587
110.257
112.853
115.356
117.749
120.018
122.147
124.125
125.939
127.573
129.016
130.253
131.272
132.063
132.616
132.92
132.968
132.756
132.279
131.537
130.528
129.254
127.72
125.928
123.886
121.602
119.082
116.335
113.373
110.21
106.857
103.33
99.64
95.798
91.824
87.738
83.545
79.255
74.876
70.416
65.897
61.353
56.784
52.193
47.626
43.122
38.714
34.446
30.305
26.255
22.332
18.598
14.93
11.182
7.455
3.745
0.028
-3.358
-7.306
-12.681
-18.237
-23.595
-26.471
-24.127
-19.59
-14.877
-12.989
-18.054
-26.423
-35.002
-41.675
-42.938
-41.3
-39.299
-37.504
-37.463
-38.282
-38.811
-39.271
-39.522
-39.643
-39.874
-40.067
-40.102
-40.025
-39.849
-39.565
-39.18
-38.707
-38.156
-37.553
-36.929
-36.277
-35.593
-34.885
-34.157
-33.415
-32.664
-31.908
-31.147
-30.389
-29.64
-28.904
-28.187
-27.493
-26.825
-26.189
-25.586
-25.021
-24.495
-24.01
-23.569
-23.172
-22.82
-22.513
-22.252
-22.036
-21.865
-21.738
-21.655
-21.614
-21.615
-21.656
-21.736
-21.852
-22.004
-22.19
-22.407
-22.652
-22.925
-23.222
-23.54
-23.877
-24.229
-24.595
-24.971
-25.354
-25.741
-26.131
-26.521
-26.909
-27.293
-27.674
-28.049
-28.42
-28.784
-29.144
-29.5
-29.851
-30.201
-30.548
-30.896
-31.245
-31.596
-31.952
-32.313
-32.682
-33.059
-33.447
-33.847
-34.26
-34.688
-35.133
-35.594
-36.074
-36.574
-37.094
-37.634
-38.196
-38.779
-39.382
-40.006
-40.648
-41.308
-41.982
-42.668
-43.363
-44.063
-44.763
-45.458
-46.144
-46.815
-47.465
-48.087
-48.677
-49.226
-49.73
-50.181
-50.573
-50.9
-51.155
-51.333
-51.426
-51.43
-51.338
-51.146
-50.847
-50.439
-49.917
-49.276
-48.515
-47.631
-46.621
-45.485
-44.223
-42.834
-41.32
-39.683
-37.927
-36.057
-34.077
-31.993
-29.814
-27.547
-25.201
-22.787
-20.314
-17.795
-15.241
-12.666
-10.082
-7.504
-4.945
-2.42
0.054
2.46
4.78
6.996
9.091
11.044
12.838
14.455
15.879
17.095
18.091
18.855
19.374
19.635
19.629
19.346
18.781
17.927
16.783
15.348
13.626
11.627
9.363
6.843
4.074
1.054
-2.216
-5.729
-9.475
-13.44
-17.604
-21.944
-26.428
-31.008
-35.635
-40.259
-44.834
-49.326
-53.693
-57.888
-61.847
-65.493
-68.75
-71.558
-73.875
-75.671
-76.931
-77.656
-77.87
-77.637
-77.041
-76.173
-75.114
-73.953
-72.806
-71.795
-71.124
-71.05
-71.72
-73.232
-75.576
-78.491
-81.663
-84.775
-87.298
-88.66
-88.591
-86.861
-83.525
-79.56
-76.131
-74.149
-74.847
-78.268
-82.758
-88.422
-95.598
-104.379
-117.074
-130.299
-135.656
-125.546
-90.485
-28.482
53.092
146.822
243.901
338.999
432.652
523.577
608.694
683.393
741.281
777.837
790.681
779.027
743.353
684.68
605.349
508.897
399.495
282.249
162.389
44.56
-66.69
-167.5
-255.062
-327.291
-383.077
-422.608
-446.992
-457.832
-457.046
-446.285
-427.195
-401.604
-371.313
-337.968
-302.642
-266.047
-229.188
-193.517
-160.507
-131.436
-106.92
-86.932
-71.577
-60.937
-54.493
-51.204
-49.642
-48.234
-46.12
-43.116
-39.058
-33.892
-27.833
-21.31
-15.092
-10.122
-6.847
-5.265
-5.235
-6.473
-8.682
-11.559
-14.638
-17.374
-19.406
-20.556
-20.776
-20.146
-18.728
-16.574
-13.778
-10.461
-6.732
-2.686
1.601
6.086
10.713
15.412
20.101
24.698
29.119
33.281
37.134
40.652
43.822
46.658
49.177
51.398
53.357
55.095
56.652
58.062
59.355
60.554
61.694
62.813
63.952
65.157
66.459
67.879
69.434
71.132
72.977
74.97
77.105
79.368
81.748
84.236
86.822
89.502
92.265
95.099
97.986
100.912
103.859
106.811
109.751
112.662
115.526
118.326
121.046
123.672
126.189
128.58
130.826
132.912
134.821
136.536
138.044
139.328
140.375
141.173
141.713
141.987
141.986
141.707
141.144
140.297
139.163
137.745
136.045
134.065
131.812
129.292
126.512
123.482
120.212
116.713
112.998
109.08
104.974
100.695
96.259
91.681
86.979
82.17
77.271
72.301
67.277
62.216
57.138
52.058
46.996
41.966
36.986
32.071
27.236
22.493
17.858
13.341
8.954
4.708
0.612
-3.325
-7.094
-10.689
-14.102
-17.33
-20.366
-23.209
-25.854
-28.299
-30.545
-32.591
-34.437
-36.086
-37.538
-38.798
-39.869
-40.756
-41.464
-41.998
-42.366
-42.573
-42.629
-42.539
-42.313
-41.958
-41.484
-40.899
-40.211
-39.429
-38.563
-37.621
-36.612
-35.545
-34.429
-33.272
-32.083
-30.871
-29.643
-28.409
-27.175
-25.949
-24.738
-23.549
-22.388
-21.263
-20.178
-19.139
-18.151
-17.217
-16.343
-15.531
-14.784
-14.104
-13.493
-12.953
-12.484
-12.088
-11.763
-11.511
-11.33
-11.221
-11.181
-11.21
-11.305
-11.466
-11.689
-11.973
-12.316
-12.714
-13.166
-13.668
-14.22
-14.816
-15.456
-16.137
-16.855
-17.608
-18.394
-19.211
-20.055
-20.926
-21.822
-22.74
-23.679
-24.639
-25.618
-26.614
-27.628
-28.659
-29.705
-30.766
-31.842
-32.933
-34.038
-35.157
-36.29
-37.436
-38.595
-39.766
-40.947
-42.139
-43.34
-44.547
-45.761
-46.978
-48.196
-49.414
-50.628
-51.836
-53.033
-54.217
-55.383
-56.528
-57.647
-58.735
-59.788
-60.802
-61.77
-62.689
-63.553
-64.357
-65.095
-65.762
-66.353
-66.862
-67.284
-67.615
-67.849
-67.984
-68.014
-67.938
-67.751
-67.452
-67.039
-66.512
-65.868
-65.11
-64.236
-63.25
-62.154
-60.952
-59.647
-58.246
-56.752
-55.174
-53.518
-51.793
-50.006
-48.168
-46.287
-44.377
-42.447
-40.51
-38.58
-36.671
-34.798
-32.978
-31.228
-29.564
-28.003
-26.563
-25.261
-24.114
-23.133
-22.334
-21.729
-21.329
-21.147
-21.194
-21.481
-22.017
-22.811
-23.868
-25.191
-26.781
-28.633
-30.74
-33.094
-35.69
-38.529
-41.609
-44.927
-48.474
-52.24
-56.205
-60.343
-64.616
-68.974
-73.365
-77.74
-82.055
-86.273
-90.36
-94.277
-97.975
-101.399
-104.49
-107.196
-109.478
-111.298
-112.643
-113.535
-114.029
-114.217
-114.195
-114.029
-113.785
-113.539
-113.38
-113.423
-113.799
-114.604
-115.98
-118.131
-121.151
-125.013
-129.489
-134.057
-138.139
-141.247
-142.83
-142.31
-139.425
-134.263
-127.489
-120.434
-114.452
-110.574
-109.629
-112.252
-118.452
-127.376
-137.029
-144.26
-145.599
-137.949
-118.674
-85.372
-36.505
27.995
106.593
195.953
291.461
388.3
481.504
565.427
634.689
684.919
712.69
716.259
695.56
651.084
584.275
498.27
397.032
285.048
167.496
49.189
-65.736
-173.039
-268.917
-350.636
-416.262
-464.955
-497.189
-513.993
-516.462
-506.124
-485.139
-456.032
-421.454
-383.748
-344.664
-305.609
-268.351
-234.921
-206.451
-183.154
-164.724
-150.467
-139.752
-132.063
-126.196
-120.248
-113.027
-104.104
-93.478
-81.688
-69.242
-56.442
-44.041
-33.233
-24.741
-18.845
-15.52
-14.315
-14.823
-16.789
-19.759
-23.134
-26.465
-29.416
-31.784
-33.54
-34.62
-34.937
-34.482
-33.285
-31.399
-28.902
-25.854
-22.308
-18.338
-14.023
-9.44
-4.673
0.201
5.098
9.937
14.631
19.092
23.253
27.076
30.537
33.642
36.41
38.865
41.044
42.993
44.752
46.361
47.856
49.267
50.627
51.975
53.35
54.799
56.359
58.053
59.899
61.905
64.074
66.406
68.893
71.519
74.272
77.14
80.112
83.18
86.335
89.56
92.84
96.157
99.492
102.829
106.149
109.434
112.666
115.827
118.901
121.874
124.73
127.452
130.022
132.422
134.635
136.645
138.436
139.992
141.298
142.343
143.115
143.607
143.809
143.717
143.325
142.631
141.634
140.333
138.731
136.831
134.638
132.157
129.398
126.369
123.081
119.547
115.78
111.793
107.603
103.225
98.676
93.973
89.134
84.179
79.125
73.992
68.801
63.571
58.323
53.078
47.854
42.671
37.549
32.505
27.556
22.72
18.011
13.445
9.036
4.796
0.737
-3.131
-6.797
-10.256
-13.499
-16.524
-19.324
-21.899
-24.248
-26.369
-28.264
-29.935
-31.384
-32.617
-33.637
-34.451
-35.067
-35.491
-35.734
-35.805
-35.715
-35.474
-35.095
-34.589
-33.969
-33.247
-32.436
-31.548
-30.596
-29.593
-28.551
-27.482
-26.397
-25.306
-24.219
-23.146
-22.094
-21.071
-20.083
-19.136
-18.235
-17.384
-16.588
-15.849
-15.171
-14.554
-14
-13.508
-13.08
-12.714
-12.408
-12.16
-11.968
-11.828
-11.737
-11.691
-11.686
-11.717
-11.78
-11.869
-11.979
-12.105
-12.242
-12.385
-12.53
-12.672
-12.81
-12.938
-13.056
-13.162
-13.253
-13.33
-13.391
-13.437
-13.467
-13.483
-13.484
-13.472
-13.448
-13.415
-13.373
-13.325
-13.274
-13.221
-13.168
-13.119
-13.075
-13.04
-13.015
-13.005
-13.011
-13.037
-13.085
-13.159
-13.259
-13.389
-13.548
-13.739
-13.96
-14.213
-14.495
-14.805
-15.142
-15.504
-15.887
-16.289
-16.706
-17.134
-17.569
-18.006
-18.441
-18.868
-19.283
-19.68
-20.054
-20.401
-20.715
-20.991
-21.223
-21.408
-21.538
-21.609
-21.616
-21.552
-21.412
-21.191
-20.884
-20.488
-19.999
-19.413
-18.728
-17.942
-17.054
-16.063
-14.968
-13.77
-12.469
-11.068
-9.568
-7.972
-6.285
-4.51
-2.654
-0.72
1.285
3.355
5.483
7.661
9.883
12.139
14.421
16.719
19.021
21.317
23.595
25.839
28.037
30.172
32.23
34.194
36.049
37.778
39.366
40.798
42.062
43.146
44.038
44.727
45.202
45.451
45.464
45.232
44.748
44.004
42.998
41.726
40.195
38.408
36.373
34.09
31.557
28.774
25.743
22.473
18.975
15.265
11.372
7.333
3.202
-0.966
-5.122
-9.219
-13.221
-17.095
-20.799
-24.284
-27.493
-30.372
-32.873
-34.962
-36.604
-37.792
-38.558
-38.968
-39.13
-39.148
-39.1
-39.066
-39.124
-39.348
-39.829
-40.67
-41.956
-43.833
-46.493
-50.006
-54.353
-59.376
-64.678
-69.772
-74.165
-77.219
-78.27
-77.013
-73.421
-67.792
-61.032
-54.328
-48.805
-45.657
-45.155
-45.927
-46.461
-45.883
-45.447
-47.765
-52.674
-54.813
-42.589
-4.067
65.873
162.979
273.887
384.259
484.99
572.576
647.404
708.83
753.826
778.275
778.631
754.147
705.741
635.459
547.336
445.735
335.249
221.267
108.157
-0.427
-100.408
-188.577
-263.18
-323.026
-367.945
-399.136
-417.825
-425.465
-424.271
-416.081
-402.063
-383.455
-361.343
-336.135
-308.131
-277.66
-244.953
-210.805
-176.833
-144.569
-114.974
-88.974
-67.375
-50.594
-38.756
-31.324
-26.754
-23.346
-20.081
-16.264
-11.464
-5.577
1.402
9.153
16.739
23.097
27.638
30.139
30.663
29.467
26.78
22.913
18.386
13.794
9.559
5.916
2.965
0.727
-0.771
-1.507
-1.511
-0.872
0.332
2.044
4.217
6.82
9.805
13.083
16.576
20.211
23.909
27.604
31.226
34.684
37.922
40.918
43.659
46.154
48.422
50.474
52.34
54.059
55.668
57.201
58.693
60.167
61.655
63.191
64.81
66.552
68.442
70.493
72.711
75.094
77.638
80.334
83.165
86.109
89.145
92.254
95.419
98.627
101.858
105.091
108.304
111.474
114.578
117.597
120.509
123.294
125.932
128.406
130.7
132.799
134.69
136.356
137.785
138.961
139.874
140.512
140.866
140.928
140.692
140.153
139.311
138.165
136.718
134.972
132.933
130.607
128.003
125.13
121.999
118.621
115.009
111.178
107.141
102.916
98.518
93.965
89.275
84.465
79.556
74.565
69.51
64.411
59.285
54.15
49.024
43.923
38.864
33.863
28.933
24.09
19.346
14.714
10.205
5.829
1.593
-2.493
-6.423
-10.191
-13.792
-17.222
-20.479
-23.559
-26.46
-29.183
-31.727
-34.093
-36.282
-38.297
-40.141
-41.817
-43.33
-44.683
-45.882
-46.932
-47.838
-48.607
-49.243
-49.754
-50.146
-50.424
-50.596
-50.669
-50.648
-50.54
-50.352
-50.091
-49.761
-49.37
-48.924
-48.427
-47.885
-47.304
-46.69
-46.046
-45.379
-44.692
-43.991
-43.28
-42.562
-41.842
-41.122
-40.406
-39.697
-38.996
-38.306
-37.629
-36.968
-36.323
-35.697
-35.091
-34.506
-33.943
-33.402
-32.885
-32.39
-31.918
-31.469
-31.041
-30.635
-30.249
-29.884
-29.537
-29.209
-28.898
-28.602
-28.321
-28.053
-27.797
-27.551
-27.314
-27.086
-26.864
-26.649
-26.44
-26.237
-26.041
-25.85
-25.666
-25.489
-25.319
-25.156
-25.001
-24.854
-24.717
-24.591
-24.475
-24.373
-24.285
-24.212
-24.157
-24.121
-24.105
-24.11
-24.138
-24.19
-24.267
-24.369
-24.499
-24.657
-24.843
-25.059
-25.303
-25.576
-25.877
-26.204
-26.555
-26.929
-27.32
-27.728
-28.146
-28.573
-29.002
-29.431
-29.854
-30.266
-30.663
-31.037
-31.385
-31.7
-31.977
-32.209
-32.392
-32.519
-32.585
-32.585
-32.515
-32.369
-32.143
-31.833
-31.436
-30.948
-30.366
-29.688
-28.912
-28.037
-27.064
-25.993
-24.826
-23.565
-22.214
-20.779
-19.264
-17.676
-16.02
-14.305
-12.539
-10.731
-8.89
-7.028
-5.154
-3.28
-1.418
0.418
2.217
3.965
5.649
7.254
8.764
10.163
11.431
12.553
13.513
14.295
14.886
15.273
15.448
15.404
15.132
14.629
13.886
12.899
11.663
10.174
8.435
6.452
4.237
1.807
-0.825
-3.647
-6.653
-9.842
-13.216
-16.77
-20.497
-24.394
-28.443
-32.618
-36.877
-41.154
-45.396
-49.568
-53.645
-57.617
-61.442
-65.034
-68.315
-71.205
-73.639
-75.608
-77.052
-77.851
-78.054
-77.826
-77.351
-76.92
-76.618
-76.273
-75.941
-75.807
-75.765
-75.693
-75.46
-74.681
-73.565
-72.766
-72.27
-72.014
-72.394
-73.268
-74.431
-76.397
-78.457
-80.612
-85.545
-93.379
-102.584
-110.656
-110.756
-101.528
-89.742
-83.009
-91.29
-117.186
-148.564
-170.264
-167.22
-129.235
-60.814
27.493
125.957
225.357
323.074
420.116
514.396
602.267
678.106
735.167
769.262
778.326
761.937
721.114
657.601
574.505
475.9
366.264
250.69
134
20.383
-86.119
-182.373
-266.187
-335.784
-390.434
-430.525
-456.624
-469.816
-471.563
-462.5
-444.936
-421.847
-393.829
-362.263
-326.384
-284.616
-241.872
-202.642
-171.603
-153.58
-144.669
-141.008
-139.627
-136.195
-132.055
-127.798
-122.661
-117.735
-111.916
-104.433
-95.988
-86.695
-77.413
-69.618
-63.898
-60.412
-59.181
-59.77
-61.761
-64.905
-68.776
-72.789
-76.518
-79.68
-82.084
-83.71
-84.568
-84.628
-83.92
-82.517
-80.491
-77.923
-74.897
-71.472
-67.713
-63.697
-59.487
-55.155
-50.79
-46.476
-42.296
-38.344
-34.674
-31.323
-28.317
-25.659
-23.335
-21.326
-19.597
-18.102
-16.807
-15.68
-14.688
-13.808
-13.007
-12.248
-11.497
-10.711
-9.859
-8.921
-7.879
-6.722
-5.447
-4.055
-2.551
-0.949
0.741
2.512
4.354
6.264
8.234
10.254
12.312
14.396
16.492
18.588
20.673
22.731
24.75
26.716
28.619
30.448
32.192
33.838
35.373
36.785
38.061
39.189
40.159
40.96
41.582
42.017
42.259
42.302
42.142
41.776
41.202
40.419
39.428
38.23
36.828
35.226
33.426
31.435
29.258
26.902
24.375
21.686
18.845
15.86
12.744
9.508
6.163
2.722
-0.803
-4.398
-8.051
-11.748
-15.477
-19.223
-22.975
-26.718
-30.44
-34.129
-37.771
-41.357
-44.875
-48.315
-51.665
-54.918
-58.063
-61.092
-63.998
-66.771
-69.405
-71.894
-74.232
-76.412
-78.431
-80.283
-81.967
-83.478
-84.814
-85.974
-86.956
-87.76
-88.386
-88.835
-89.107
-89.204
-89.129
-88.883
-88.471
-87.895
-87.16
-86.271
-85.231
-84.047
-82.724
-81.267
-79.684
-77.979
-76.161
-74.236
-72.211
-70.093
-67.891
-65.611
-63.26
-60.846
-58.377
-55.86
-53.302
-50.71
-48.092
-45.455
-42.805
-40.15
-37.497
-34.851
-32.221
-29.611
-27.028
-24.477
-21.966
-19.497
-17.078
-14.712
-12.403
-10.157
-7.976
-5.863
-3.822
-1.855
0.035
1.847
3.579
5.229
6.796
8.279
9.675
10.985
12.206
13.339
14.383
15.337
16.201
16.974
17.656
18.249
18.751
19.164
19.488
19.724
19.873
19.938
19.919
19.818
19.637
19.378
19.044
18.636
18.157
17.609
16.995
16.317
15.579
14.784
13.934
13.035
12.09
11.105
10.083
9.03
7.952
6.855
5.745
4.629
3.514
2.406
1.314
0.244
-0.795
-1.797
-2.754
-3.657
-4.5
-5.275
-5.975
-6.594
-7.124
-7.559
-7.893
-8.119
-8.232
-8.227
-8.097
-7.838
-7.446
-6.918
-6.251
-5.443
-4.494
-3.402
-2.169
-0.796
0.714
2.359
4.133
6.033
8.052
10.184
12.419
14.751
17.169
19.664
22.225
24.839
27.496
30.182
32.886
35.592
38.288
40.959
43.589
46.165
48.668
51.081
53.386
55.566
57.601
59.473
61.166
62.661
63.944
65.002
65.825
66.401
66.722
66.777
66.556
66.053
65.262
64.178
62.8
61.127
59.161
56.912
54.392
51.612
48.581
45.297
41.761
37.982
33.968
29.735
25.304
20.702
15.966
11.152
6.317
1.517
-3.196
-7.783
-12.206
-16.419
-20.369
-23.988
-27.211
-29.988
-32.275
-34.044
-35.295
-36.045
-36.354
-36.322
-36.04
-35.615
-35.159
-34.762
-34.54
-34.622
-35.11
-36.177
-38.054
-40.865
-44.648
-49.314
-54.501
-59.775
-64.72
-68.737
-71.163
-71.545
-69.686
-65.829
-60.849
-56.026
-52.467
-51.091
-52.97
-57.666
-64.158
-72.246
-79.562
-85.071
-88.175
-82.731
-63.778
-25.906
36.541
118.705
213.146
313.78
413.361
511.739
610.732
704.253
782.964
836.051
851.763
829.07
775.673
698.718
607.607
507.669
398.276
281.897
162.036
42.738
-69.33
-169.101
-253.948
-322.003
-372.549
-406.349
-424.876
-430.029
-424.475
-411.154
-392.505
-370.933
-348.956
-327.924
-308.21
-289.912
-272.632
-255.714
-238.877
-221.727
-203.276
-183.195
-161.845
-139.62
-117.178
-95.233
-74.105
-54.161
-36.283
-21.008
-8.457
1.323
8.578
13.578
16.415
17.308
16.752
15.203
13.032
10.455
7.498
4.321
1.041
-2.436
-5.966
-9.331
-12.603
-15.338
-17.671
-21.295
-25.961
-30
-31.14
-23.726
-6.136
15.961
35.611
42.564
30.701
7.21
-17.137
-31.207
-26.211
-6.881
16.2
35.202
43.333
41.637
36.581
31.471
28.694
28.669
29.133
29.403
29.683
29.88
30.353
31.23
32.23
33.29
34.481
35.776
37.163
38.684
40.364
42.225
44.316
46.637
49.144
51.814
54.636
57.59
60.662
63.833
67.07
70.349
73.646
76.938
80.2
83.408
86.535
89.557
92.452
95.199
97.778
100.172
102.359
104.321
106.039
107.495
108.675
109.564
110.149
110.419
110.365
109.982
109.265
108.213
106.826
105.107
103.059
100.692
98.014
95.036
91.772
88.236
84.446
80.418
76.173
71.731
67.112
62.338
57.432
52.417
47.314
42.148
36.941
31.716
26.495
21.3
16.152
11.071
6.077
1.189
-3.576
-8.202
-12.673
-16.976
-21.097
-25.025
-28.751
-32.266
-35.565
-38.642
-41.494
-44.119
-46.518
-48.691
-50.641
-52.372
-53.888
-55.195
-56.299
-57.207
-57.927
-58.467
-58.836
-59.045
-59.101
-59.016
-58.799
-58.46
-58.01
-57.458
-56.814
-56.088
-55.289
-54.427
-53.51
-52.548
-51.548
-50.518
-49.466
-48.398
-47.32
-46.237
-45.153
-44.072
-42.996
-41.928
-40.869
-39.821
-38.784
-37.758
-36.745
-35.743
-34.753
-33.773
-32.803
-31.842
-30.888
-29.941
-28.999
-28.061
-27.125
-26.19
-25.255
-24.318
-23.38
-22.437
-21.488
-20.533
-19.571
-18.599
-17.618
-16.628
-15.627
-14.618
-13.6
-12.576
-11.547
-10.515
-9.484
-8.455
-7.431
-6.416
-5.412
-4.423
-3.452
-2.503
-1.579
-0.683
0.181
1.009
1.799
2.548
3.253
3.91
4.518
5.072
5.572
6.014
6.396
6.716
6.971
7.159
7.281
7.334
7.319
7.236
7.087
6.873
6.596
6.259
5.866
5.42
4.926
4.388
3.812
3.204
2.568
1.912
1.243
0.566
-0.111
-0.781
-1.437
-2.074
-2.683
-3.258
-3.793
-4.28
-4.714
-5.088
-5.394
-5.627
-5.779
-5.847
-5.824
-5.706
-5.49
-5.172
-4.751
-4.225
-3.594
-2.859
-2.018
-1.076
-0.033
1.106
2.337
3.655
5.054
6.528
8.067
9.666
11.313
13
14.719
16.458
18.207
19.957
21.694
23.409
25.087
26.717
28.283
29.769
31.16
32.441
33.595
34.609
35.466
36.153
36.659
36.976
37.092
37
36.689
36.151
35.378
34.365
33.107
31.601
29.844
27.839
25.594
23.116
20.418
17.504
14.372
11.023
7.463
3.7
-0.257
-4.387
-8.673
-13.083
-17.568
-22.078
-26.561
-30.968
-35.265
-39.411
-43.364
-47.073
-50.472
-53.503
-56.121
-58.287
-59.968
-61.159
-61.866
-62.139
-62.073
-61.753
-61.277
-60.756
-60.289
-60.001
-60.014
-60.42
-61.358
-63.019
-65.547
-69.01
-73.313
-78.184
-83.34
-88.51
-93.289
-97.153
-99.58
-100.244
-99.415
-97.732
-95.758
-94.157
-93.564
-94.64
-98.331
-103.918
-108.352
-108.876
-102.861
-91.291
-79.444
-68.948
-58.379
-39.387
2.664
76.817
186.904
324.827
470.741
604.02
703.311
758.153
771.714
753.402
718.933
678.349
632.69
578.99
510.766
425.76
326.885
218.994
108.328
-0.947
-106.082
-203.999
-291.895
-366.995
-427.014
-471.085
-499.253
-511.636
-508.838
-492.587
-465.507
-430.744
-391.47
-350.193
-308.788
-269.439
-234.535
-205.308
-181.908
-163.784
-149.804
-139.033
-130.857
-124.028
-116.717
-107.863
-97.131
-84.681
-71.242
-57.417
-43.574
-30.486
-19.279
-10.637
-4.812
-1.733
-0.932
-1.997
-4.635
-8.387
-12.648
-16.945
-20.947
-24.446
-27.396
-29.729
-31.317
-32.108
-32.108
-31.346
-29.886
-27.786
-25.081
-21.834
-18.139
-14.083
-9.766
-5.287
-0.718
3.858
8.357
12.698
16.787
20.558
23.977
27.033
29.739
32.113
34.179
35.97
37.532
38.911
40.148
41.282
42.337
43.346
44.345
45.375
46.481
47.696
49.04
50.526
52.159
53.94
55.868
57.934
60.12
62.411
64.794
67.258
69.794
72.39
75.03
77.696
80.368
83.029
85.662
88.248
90.766
93.197
95.521
97.726
99.805
101.738
103.505
105.101
106.516
107.746
108.796
109.633
110.222
110.562
110.653
110.46
109.971
109.148
107.942
106.415
104.651
102.641
100.367
97.956
95.54
93.055
90.571
88.004
84.838
82.189
81.046
79.995
78.964
74.495
62.65
48.108
33.54
24.647
28.849
39.004
49.612
55.276
47.91
34.026
19.611
7.45
2.824
2.21
1.76
1.161
-1.302
-4.633
-7.399
-9.99
-12.392
-14.635
-16.944
-19.181
-21.218
-23.089
-24.802
-26.319
-27.618
-28.726
-29.665
-30.457
-31.137
-31.699
-32.138
-32.467
-32.695
-32.828
-32.873
-32.833
-32.71
-32.511
-32.244
-31.914
-31.524
-31.081
-30.587
-30.047
-29.464
-28.842
-28.185
-27.495
-26.775
-26.028
-25.256
-24.461
-23.644
-22.807
-21.95
-21.075
-20.181
-19.271
-18.344
-17.402
-16.444
-15.473
-14.491
-13.498
-12.498
-11.488
-10.473
-9.459
-8.452
-7.456
-6.477
-5.512
-4.566
-3.656
-2.779
-1.922
-1.074
-0.22
0.637
1.465
2.255
3.034
3.781
4.426
4.916
5.189
5.237
5.141
4.93
4.511
3.97
3.636
3.592
3.736
4.111
4.385
5.156
8.482
14.029
19.873
23.008
17.619
3.782
-12.583
-25.675
-27.247
-16.383
-0.952
12.939
18.811
15.229
8.062
1.014
-3.503
-4.619
-4.709
-4.924
-5.162
-5.515
-5.626
-5.382
-5.104
-4.895
-4.7
-4.528
-4.393
-4.286
-4.185
-4.065
-3.88
-3.608
-3.258
-2.827
-2.3
-1.677
-0.985
-0.23
0.604
1.493
2.381
3.222
3.963
4.597
5.198
5.786
6.279
6.757
7.51
8.596
9.927
11.538
13.114
15.231
19.686
26.089
32.782
37.036
33.716
23.134
10.435
0.747
1.353
12.711
27.93
41.677
48.2
46.489
41.693
36.971
34.477
34.863
36.021
36.994
37.846
38.498
39.26
40.201
41.031
41.654
42.11
42.384
42.453
42.32
41.99
41.484
40.846
40.087
39.179
38.111
36.881
35.484
33.918
32.179
30.259
28.155
25.871
23.415
20.795
18.016
15.082
11.988
8.734
5.323
1.758
-1.953
-5.795
-9.749
-13.781
-17.843
-21.888
-25.868
-29.74
-33.473
-37.032
-40.379
-43.472
-46.261
-48.696
-50.74
-52.362
-53.532
-54.247
-54.539
-54.471
-54.155
-53.704
-53.207
-52.763
-52.474
-52.446
-52.815
-53.703
-55.21
-57.47
-60.647
-64.84
-70.048
-76.073
-82.485
-88.787
-94.482
-99.009
-101.763
-102.287
-100.45
-96.666
-91.846
-87.037
-83.177
-81.074
-81.517
-84.929
-90.902
-97.886
-103.433
-104.716
-98.74
-82.635
-53.683
-9.543
49.818
121.591
203.412
292.604
387.115
486.96
585.351
670.939
733.098
760.09
749.956
709.992
646.994
569.555
482.428
384.852
278.875
167.733
55.445
-51.859
-149.894
-236.064
-308.443
-366.288
-409.549
-438.724
-454.657
-458.403
-451.14
-434.564
-410.826
-382.151
-350.703
-318.173
-286.072
-256.176
-230.104
-208.578
-191.599
-178.677
-168.846
-161.344
-155.353
-149.426
-142.24
-133.18
-122.097
-109.34
-95.647
-81.554
-67.663
-54.988
-44.321
-36.049
-30.324
-26.901
-25.347
-25.352
-26.535
-28.395
-30.597
-32.888
-35.052
-37.036
-38.807
-40.287
-41.454
-42.276
-42.672
-42.599
-42.041
-40.998
-39.54
-37.736
-35.637
-33.289
-30.701
-27.911
-25.014
-22.029
-18.906
-15.623
-12.152
-8.542
-4.966
-1.495
1.962
5.306
8.196
10.575
12.562
14.137
15.728
16.632
14.624
10.222
5.491
3.868
11.788
28.847
48.651
64.802
68.193
58.304
43.738
31.136
27.688
34.587
45.37
56.076
63.981
68.267
71.547
74.983
78.467
82.065
85.357
88.224
90.999
93.765
96.443
99.022
101.503
103.858
106.06
108.064
109.8
111.237
112.395
113.274
113.865
114.163
114.16
113.855
113.256
112.365
111.182
109.709
107.951
105.913
103.607
101.042
98.228
95.178
91.904
88.421
84.744
80.889
76.873
72.713
68.427
64.032
59.545
54.985
50.369
45.712
41.032
36.342
31.659
26.995
22.365
17.78
13.253
8.796
4.42
0.135
-4.048
-8.122
-12.077
-15.905
-19.6
-23.156
-26.567
-29.829
-32.938
-35.891
-38.687
-41.324
-43.802
-46.122
-48.284
-50.291
-52.144
-53.847
-55.402
-56.813
-58.084
-59.217
-60.217
-61.086
-61.828
-62.447
-62.947
-63.331
-63.604
-63.769
-63.832
-63.797
-63.669
-63.454
-63.157
-62.783
-62.34
-61.831
-61.263
-60.642
-59.972
-59.259
-58.508
-57.723
-56.909
-56.07
-55.21
-54.332
-53.439
-52.536
-51.625
-50.709
-49.792
-48.876
-47.967
-47.066
-46.177
-45.304
-44.449
-43.617
-42.809
-42.028
-41.276
-40.556
-39.867
-39.211
-38.589
-38.001
-37.448
-36.928
-36.442
-35.99
-35.571
-35.186
-34.834
-34.516
-34.231
-33.981
-33.767
-33.588
-33.446
-33.342
-33.276
-33.249
-33.263
-33.316
-33.41
-33.544
-33.719
-33.935
-34.191
-34.487
-34.825
-35.204
-35.625
-36.088
-36.594
-37.145
-37.741
-38.384
-39.074
-39.812
-40.599
-41.436
-42.322
-43.257
-44.239
-45.268
-46.341
-47.455
-48.607
-49.792
-51.006
-52.244
-53.502
-54.772
-56.05
-57.33
-58.605
-59.868
-61.113
-62.333
-63.521
-64.668
-65.766
-66.807
-67.783
-68.684
-69.501
-70.225
-70.848
-71.36
-71.752
-72.016
-72.145
-72.13
-71.965
-71.645
-71.164
-70.52
-69.711
-68.735
-67.594
-66.287
-64.819
-63.194
-61.415
-59.489
-57.423
-55.224
-52.903
-50.469
-47.934
-45.311
-42.613
-39.858
-37.061
-34.242
-31.42
-28.616
-25.851
-23.148
-20.53
-18.019
-15.635
-13.399
-11.332
-9.453
-7.78
-6.331
-5.123
-4.173
-3.494
-3.1
-3.001
-3.204
-3.711
-4.52
-5.632
-7.044
-8.76
-10.78
-13.1
-15.713
-18.612
-21.782
-25.198
-28.823
-32.602
-36.481
-40.402
-44.312
-48.167
-51.92
-55.52
-58.912
-62.038
-64.842
-67.277
-69.302
-70.878
-71.986
-72.637
-72.9
-72.88
-72.696
-72.451
-72.218
-72.084
-72.148
-72.51
-73.277
-74.546
-76.39
-78.93
-82.349
-86.692
-91.871
-97.645
-103.475
-108.75
-112.941
-115.396
-115.422
-112.762
-107.447
-99.783
-90.938
-82.311
-74.985
-70.256
-68.255
-67.186
-65.452
-62.068
-57.882
-55.35
-53.882
-47.62
-25.233
24.378
104.956
211.105
328.38
441.798
542.248
625.388
691.483
740.653
770.152
776.799
758.228
713.979
645.87
557.604
453.749
339.048
218.767
98.006
-18.854
-127.463
-223.933
-305.601
-370.688
-418.371
-449.163
-464.165
-464.591
-452.379
-430.131
-400.5
-366.128
-329.467
-292.283
-256.12
-222.852
-193.869
-169.578
-149.893
-134.273
-121.824
-111.929
-103.791
-95.933
-87.136
-76.916
-65.187
-52.348
-39.096
-25.879
-13.296
-2.352
6.208
12.047
15.101
15.696
14.327
11.385
7.342
2.804
-1.755
-5.953
-9.49
-12.223
-14.078
-14.991
-14.963
-14.038
-12.247
-9.639
-6.292
-2.282
2.286
7.29
12.629
18.208
23.917
29.633
35.231
40.584
45.612
50.272
54.536
58.387
61.824
64.859
67.528
69.885
71.98
73.857
75.556
77.113
78.573
79.985
81.399
82.867
84.422
86.088
87.883
89.819
91.901
94.129
96.494
98.978
101.569
104.256
107.029
109.879
112.792
115.753
118.746
121.752
124.755
127.737
130.68
133.565
136.375
139.092
141.699
144.18
146.52
148.7
150.703
152.51
154.103
155.468
156.589
157.451
158.042
158.351
158.369
158.09
157.509
156.621
155.426
153.924
152.115
150.003
147.593
144.892
141.907
138.647
135.124
131.349
127.336
123.102
118.66
114.03
109.228
104.275
99.19
93.994
88.706
83.349
77.942
72.509
67.069
61.643
56.252
50.916
45.654
40.484
35.424
30.488
25.694
21.053
16.579
12.283
8.175
4.265
0.559
-2.934
-6.211
-9.267
-12.098
-14.704
-17.083
-19.237
-21.166
-22.875
-24.367
-25.646
-26.72
-27.593
-28.274
-28.77
-29.09
-29.243
-29.239
-29.088
-28.799
-28.384
-27.853
-27.215
-26.482
-25.663
-24.768
-23.806
-22.785
-21.716
-20.604
-19.459
-18.286
-17.092
-15.883
-14.664
-13.44
-12.216
-10.995
-9.78
-8.574
-7.38
-6.198
-5.03
-3.878
-2.742
-1.622
-0.519
0.568
1.639
2.694
3.734
4.76
5.773
6.773
7.762
8.739
9.707
10.667
11.617
12.555
13.482
14.393
15.291
16.175
17.041
17.88
18.701
19.507
20.303
21.094
21.868
22.606
23.318
24.015
24.66
25.224
25.685
26.014
26.235
26.398
26.474
26.406
26.324
26.393
26.515
26.679
26.901
26.832
27.365
29.4
31.703
33.867
33.629
28.325
21.034
13.835
9.746
12.813
19.361
26.391
31.706
31.484
28.15
24.351
20.615
18.822
17.511
13.506
7.323
0.74
-3.223
1.412
14.533
30.163
42.641
43.86
32.761
17.137
3.056
-3.099
0.234
7.292
14.376
19.114
20.61
21.208
22.076
23.109
24.402
25.604
26.601
27.712
29.042
30.532
32.185
34.013
36
38.125
40.354
42.628
44.919
47.245
49.609
51.997
54.404
56.819
59.233
61.646
64.048
66.427
68.77
71.065
73.299
75.46
77.533
79.506
81.365
83.096
84.685
86.123
87.397
88.494
89.407
90.123
90.635
90.937
91.015
90.857
90.466
89.843
88.99
87.914
86.611
85.067
83.303
81.337
79.133
76.665
73.917
70.861
67.533
63.995
60.241
56.252
52.208
48.318
44.54
40.935
37.574
34.16
31.654
30.996
30.969
31.238
29.504
23.004
14.872
7.183
3.001
6.499
13.838
21.743
27.939
28.716
26.536
23.894
21.242
20.041
19.252
17.526
14.92
11.218
6.475
1.02
-4.977
-11.238
-17.252
-22.377
-26.002
-27.775
-27.411
-24.84
-20.748
-16.105
-11.688
-8.598
-6.803
-4.561
-1.991
0.379
1.729
-1.028
-4.8
-1.45
16.953
60.342
129.785
216.659
312.616
407.43
495.619
578.6
655.018
722.153
776.237
811.165
823.327
812.115
777.753
721.312
644.898
551.347
444.32
328.677
209.478
90.817
-23.361
-128.864
-222.095
-300.035
-360.548
-403.335
-429.154
-438.606
-432.644
-413.165
-382.763
-344.76
-302.549
-258.441
-214.169
-171.792
-133.553
-101.197
-75.459
-55.905
-41.523
-31.652
-25.719
-22.735
-21.135
-19.202
-15.959
-11.301
-5.581
0.852
7.717
14.617
20.746
25.053
27.003
26.584
24.104
20.06
14.867
8.896
2.727
-2.946
-7.66
-11.166
-13.402
-14.471
-14.431
-13.308
-11.198
-8.233
-4.555
-0.312
4.382
9.438
14.74
20.155
25.525
30.68
35.501
39.917
43.881
47.38
50.405
52.952
55.045
56.726
58.04
59.035
59.753
60.23
60.514
60.661
60.733
60.798
60.904
61.085
61.364
61.758
62.279
62.938
63.735
64.659
65.705
66.872
68.157
69.564
71.087
72.719
74.452
76.274
78.177
80.153
82.191
84.281
86.413
88.575
90.758
92.952
95.144
97.32
99.463
101.558
103.586
105.532
107.377
109.105
110.698
112.142
113.421
114.523
115.436
116.147
116.646
116.926
116.978
116.797
116.376
115.712
114.803
113.647
112.244
110.595
108.703
106.57
104.203
101.607
98.788
95.756
92.52
89.089
85.475
81.691
77.748
73.661
69.444
65.112
60.68
56.164
51.581
46.946
42.275
37.583
32.885
28.196
23.529
18.898
14.317
9.796
5.347
0.983
-3.288
-7.455
-11.51
-15.443
-19.248
-22.918
-26.446
-29.827
-33.057
-36.132
-39.048
-41.804
-44.398
-46.828
-49.096
-51.203
-53.149
-54.938
-56.574
-58.061
-59.403
-60.606
-61.677
-62.62
-63.444
-64.154
-64.758
-65.263
-65.675
-66.002
-66.251
-66.429
-66.545
-66.604
-66.614
-66.581
-66.514
-66.418
-66.3
-66.166
-66.023
-65.876
-65.732
-65.595
-65.471
-65.365
-65.282
-65.225
-65.197
-65.203
-65.243
-65.321
-65.438
-65.595
-65.793
-66.033
-66.314
-66.637
-67.002
-67.408
-67.854
-68.34
-68.865
-69.428
-70.027
-70.661
-71.329
-72.03
-72.763
-73.525
-74.316
-75.134
-75.978
-76.847
-77.739
-78.653
-79.588
-80.542
-81.516
-82.508
-83.518
-84.545
-85.59
-86.652
-87.732
-88.83
-89.946
-91.08
-92.235
-93.409
-94.604
-95.82
-97.059
-98.32
-99.605
-100.914
-102.248
-103.607
-104.992
-106.403
-107.84
-109.304
-110.794
-112.31
-113.852
-115.418
-117.008
-118.621
-120.254
-121.905
-123.572
-125.252
-126.941
-128.638
-130.337
-132.036
-133.729
-135.414
-137.085
-138.739
-140.369
-141.971
-143.541
-145.072
-146.559
-147.999
-149.387
-150.717
-151.985
-153.187
-154.318
-155.374
-156.352
-157.247
-158.055
-158.775
-159.403
-159.938
-160.381
-160.73
-160.986
-161.153
-161.231
-161.226
-161.14
-160.98
-160.751
-160.459
-160.113
-159.72
-159.291
-158.834
-158.363
-157.891
-157.433
-157.004
-156.619
-156.295
-156.048
-155.894
-155.849
-155.924
-156.132
-156.486
-157
-157.686
-158.56
-159.631
-160.912
-162.41
-164.134
-166.09
-168.278
-170.694
-173.33
-176.184
-179.254
-182.553
-186.087
-189.856
-193.859
-198.087
-202.528
-207.164
-211.963
-216.876
-221.854
-226.845
-231.805
-236.701
-241.496
-246.144
-250.589
-254.754
-258.571
-261.982
-264.945
-267.436
-269.454
-271.015
-272.164
-272.981
-273.571
-274.05
-274.525
-275.088
-275.828
-276.844
-278.322
-280.521
-283.614
-287.686
-292.683
-298.371
-304.493
-310.74
-316.566
-321.281
-324.384
-325.583
-325.002
-323.396
-321.692
-320.936
-322.597
-326.981
-332.757
-338.831
-343.507
-348.118
-357.647
-372.379
-388.763
-395.754
-375.853
-321.368
-233.058
-120.023
1.625
123.818
242.067
350.51
442.303
505.968
533.286
524.774
488.504
435.068
370.913
297.302
211.789
113.345
5.121
-107.466
-218.332
-322.839
-418.292
-502.809
-574.902
-633.33
-677.611
-708.188
-725.886
-731.712
-726.47
-711.176
-687.537
-657.641
-623.504
-586.707
-548.66
-511.012
-475.984
-445.638
-421.039
-402.355
-389.197
-381.128
-377.601
-377.575
-379.233
-380.553
-380.293
-378.017
-373.816
-367.968
-360.759
-352.664
-344.644
-337.892
-333.106
-330.476
-329.856
-330.898
-333.311
-336.834
-341.009
-345.239
-349.111
-352.393
-354.988
-356.92
-358.192
-358.778
-358.716
-358.101
-357.02
-355.551
-353.753
-351.655
-349.298
-346.739
-344.033
-341.245
-338.437
-335.663
-332.986
-330.477
-328.185
-326.141
-324.358
-322.824
-321.519
-320.421
-319.499
-318.714
-318.035
-317.427
-316.863
-316.322
-315.776
-315.197
-314.554
-313.81
-312.937
-311.917
-310.737
-309.397
-307.897
-306.24
-304.439
-302.511
-300.474
-298.344
-296.135
-293.859
-291.531
-289.17
-286.796
-284.429
-282.092
-279.804
-277.586
-275.458
-273.44
-271.551
-269.808
-268.226
-266.819
-265.603
-264.592
-263.802
-263.243
-262.928
-262.866
-263.065
-263.533
-264.273
-265.288
-266.578
-268.14
-269.971
-272.065
-274.413
-277.007
-279.834
-282.881
-286.134
-289.576
-293.189
-296.955
-300.852
-304.861
-308.96
-313.125
-317.333
-321.562
-325.787
-329.984
-334.131
-338.205
-342.182
-346.042
-349.762
-353.323
-356.705
-359.891
-362.863
-365.604
-368.102
-370.343
-372.315
-374.009
-375.417
-376.532
-377.349
-377.865
-378.079
-377.99
-377.6
-376.911
-375.928
-374.657
-373.105
-371.28
-369.192
-366.852
-364.27
-361.461
-358.436
-355.21
-351.797
-348.213
-344.472
-340.59
-336.583
-332.466
-328.255
-323.965
-319.61
-315.207
-310.768
-306.308
-301.84
-297.375
-292.926
-288.503
-284.116
-279.774
-275.486
-271.257
-267.095
-263.005
-258.992
-255.058
-251.207
-247.44
-243.758
-240.16
-236.647
-233.217
-229.866
-226.593
-223.393
-220.263
-217.197
-214.191
-211.238
-208.333
-205.469
-202.64
-199.838
-197.058
-194.292
-191.533
-188.775
-186.013
-183.238
-180.447
-177.634
-174.793
-171.92
-169.011
-166.063
-163.072
-160.035
-156.949
-153.814
-150.627
-147.386
-144.092
-140.742
-137.338
-133.878
-130.365
-126.797
-123.177
-119.506
-115.786
-112.018
-108.207
-104.352
-100.459
-96.529
-92.565
-88.57
-84.548
-80.499
-76.427
-72.334
-68.219
-64.086
-59.933
-55.76
-51.567
-47.353
-43.115
-38.851
-34.56
-30.239
-25.882
-21.487
-17.05
-12.565
-8.029
-3.436
1.218
5.941
10.736
15.608
20.563
25.607
30.748
35.993
41.349
46.821
52.415
58.136
63.99
69.984
76.121
82.405
88.836
95.417
102.156
109.058
116.129
123.369
130.775
138.341
146.067
153.955
162.008
170.226
178.6
187.126
195.799
204.619
213.587
222.692
231.913
241.226
250.604
260.03
269.494
278.988
288.495
297.987
307.401
316.678
325.789
334.721
343.489
352.098
360.489
368.595
376.463
384.214
391.923
399.539
406.798
413.376
419.206
424.526
429.461
433.881
437.915
441.832
446.203
452.279
459.65
467.069
475.146
483.712
494.848
511.009
527.805
541.419
547.05
539.979
525.438
508.145
491.807
481.504
475.341
472.064
472.758
476.134
482.645
492.549
504.161
516.682
529.504
541.414
551.52
559.532
565.487
569.916
573.811
577.766
581.898
586.366
591.195
596.218
601.379
606.561
611.452
615.813
619.546
622.664
625.587
628.955
633.202
638.448
644.531
651.394
659.195
668.092
677.786
687.422
695.899
702.472
707.16
709.822
710.03
707.54
702.34
696.392
693.832
696.904
706.555
722.555
741.99
768.004
807.164
863.385
942.291
1040.994
1151.024
1268.939
1386.567
1496.499
1591.29
1655.42
1680.368
1665.862
1619.194
1556.11
1486.838
1413.28
1329.586
1229.947
1117.056
1001.984
905.349
840.221
803.454
777.737
728.252
626.182
466.171
265.095
