Name,John Breau
Date of Birth,"Dec 20, 1971"
Recorded Date,2023-05-25 13:52:29 -0500
Classification,High Heart Rate
Symptoms,
Software Version,1.90
Device,"Watch6,3"
Sample Rate,512 hertz


Lead,Lead I
Unit,µV

217.43
201.729
186.945
173.697
162.382
153.24
146.333
141.578
138.965
138.496
140.096
143.688
149.188
156.521
165.741
176.925
190.007
204.783
220.834
237.654
254.889
272.27
289.603
306.818
323.771
340.279
356.339
371.976
387.082
401.479
414.741
426.212
435.426
442.151
446.006
446.399
443.05
435.916
424.828
410.118
390.769
363.907
329.879
291.004
251.416
218.983
193.511
167.738
134.427
83.15
13.897
-62.378
-137.09
-201.033
-252.294
-298.154
-342.834
-389.011
-436.945
-482.806
-524.619
-561.99
-594.496
-622.488
-646.035
-664.821
-678.953
-688.667
-694.109
-695.422
-692.762
-686.395
-676.706
-664.114
-649.073
-632.09
-613.775
-594.765
-575.562
-556.436
-537.467
-518.722
-500.332
-482.155
-463.658
-444.625
-425.172
-405.301
-385.518
-364.916
-340.744
-313.763
-286.663
-263.36
-251.346
-249.858
-251.903
-252.234
-241.01
-215.886
-181.32
-136.72
-87.089
-38.516
3.895
30.226
37.261
30.822
21.894
22.65
38.717
66.948
98.58
126.48
147.968
163.884
177.396
190.119
201.865
212.398
221.454
229.18
236.058
242.239
247.665
252.362
256.371
259.692
262.307
264.161
265.21
265.474
265.012
263.856
262.027
259.551
256.45
252.76
248.52
243.76
238.509
232.8
226.665
220.137
213.255
206.048
198.545
190.773
182.755
174.519
166.093
157.508
148.79
139.97
131.076
122.139
113.197
104.277
95.395
86.56
77.772
69.037
60.378
51.812
43.345
34.998
26.799
18.805
11.111
3.787
-3.127
-9.607
-15.65
-21.229
-26.289
-30.794
-34.741
-38.124
-40.946
-43.165
-44.677
-45.465
-45.613
-45.293
-44.792
-44.351
-44.075
-44.137
-44.781
-46.086
-48.026
-50.315
-52.286
-53.403
-53.451
-52.15
-49.231
-44.934
-39.758
-34.704
-31.486
-31.401
-35.1
-43.386
-56.816
-74.589
-95.082
-115.486
-131.378
-139.317
-137.032
-121.349
-90.989
-46.467
12.88
83.903
164.133
252.454
340.252
419.677
480.7
512.353
516.641
497.61
460.381
412.075
350.142
272.458
181.24
78.317
-30.295
-139.355
-247.187
-351.495
-449.292
-537.269
-612.096
-671.459
-714.907
-742.496
-753.718
-748.649
-728.541
-695.405
-652.202
-602.633
-549.346
-494.563
-441.176
-391.286
-346.416
-308.296
-277.307
-252.313
-232.502
-216.644
-202.644
-189.402
-176.016
-160.945
-143.691
-124.684
-104.188
-83.221
-63.374
-45.241
-29.199
-15.81
-4.969
3.571
9.963
14.953
19.517
24.161
29.259
35.06
41.539
48.848
57.165
66.449
76.617
87.562
99.15
111.328
124.064
137.244
150.74
164.383
177.963
191.368
204.535
217.419
229.998
242.198
253.956
265.266
276.158
286.69
296.91
306.831
316.461
325.846
335.029
344.06
352.985
361.777
370.395
378.802
386.963
394.872
402.504
409.798
416.664
423.003
428.759
433.937
438.549
442.614
446.179
449.314
452.146
454.88
457.67
460.632
463.836
467.288
471.023
475.106
479.601
484.588
490.068
495.938
502.068
508.286
514.325
519.862
524.459
527.562
528.709
527.524
523.683
516.957
507.084
493.77
476.736
455.694
430.443
400.901
367.069
329.038
287.062
241.528
192.972
142.099
89.555
35.912
-18.273
-72.494
-126.195
-178.772
-229.597
-278.022
-323.431
-365.251
-403.013
-436.357
-465.073
-489.122
-508.591
-523.701
-534.687
-541.742
-545.06
-544.836
-541.306
-534.715
-525.394
-513.71
-500.043
-484.865
-468.576
-451.503
-433.918
-415.975
-397.778
-379.407
-360.917
-342.379
-323.922
-305.682
-287.818
-270.568
-254.08
-238.475
-223.871
-210.245
-197.595
-185.961
-175.349
-165.807
-157.391
-150.103
-143.952
-138.957
-135.041
-132.09
-129.938
-128.297
-126.936
-125.656
-124.237
-122.567
-120.552
-118.074
-115.075
-111.511
-107.328
-102.518
-97.084
-90.993
-84.278
-77.002
-69.261
-61.241
-53.092
-44.926
-36.87
-28.992
-21.338
-13.962
-6.872
-0.041
6.555
12.963
19.23
25.371
31.414
37.397
43.373
49.438
55.67
62.124
68.872
75.976
83.505
91.554
100.184
109.414
119.257
129.706
140.768
152.48
164.875
177.984
191.812
206.338
221.56
237.46
253.945
270.894
288.124
305.414
322.621
339.606
356.181
372.183
387.398
401.584
414.594
426.21
436.135
444.307
450.805
455.933
460.404
464.856
469.693
475.59
483.286
492.866
504.028
515.766
526.255
534.336
539.66
541.605
539.449
533.641
525.594
518.076
515.325
520.403
534.818
560.414
599.49
652.85
719.824
798.094
882.521
968.278
1052.389
1129.04
1190.855
1233.659
1252.356
1245.951
1217.327
1161.561
1074.459
952.344
792.572
605.388
402.316
194.393
-7.187
-200.006
-380.362
-542.984
-685.744
-804.35
-897.299
-967.228
-1015.809
-1045.973
-1062.583
-1069.696
-1071.459
-1071.988
-1072.956
-1074.512
-1076.873
-1079.599
-1081.585
-1081.901
-1079.169
-1071.889
-1059.88
-1043.777
-1024.406
-1002.871
-980.186
-957.183
-934.894
-914.441
-896.525
-881.483
-869.408
-860.168
-853.619
-849.627
-847.952
-848.227
-850.095
-853.202
-857.2
-861.879
-867.056
-872.495
-877.98
-883.253
-887.964
-891.821
-894.558
-895.866
-895.546
-893.473
-889.553
-883.815
-876.348
-867.24
-856.624
-844.609
-831.264
-816.689
-800.984
-784.253
-766.671
-748.41
-729.649
-710.622
-691.506
-672.416
-653.452
-634.65
-616.008
-597.533
-579.203
-560.981
-542.855
-524.81
-506.837
-488.944
-471.116
-453.326
-435.541
-417.707
-399.789
-381.787
-363.706
-345.573
-327.427
-309.306
-291.263
-273.371
-255.691
-238.281
-221.186
-204.436
-188.086
-172.194
-156.814
-142.007
-127.801
-114.208
-101.278
-89.059
-77.527
-66.663
-56.449
-46.842
-37.878
-29.628
-22.049
-15.063
-8.846
-3.603
0.815
4.418
7.19
9.637
10.51
8.599
5.729
2.485
2.19
8.817
18.07
27.101
31.65
25.842
14.968
3.517
-5.416
-6.755
-4.049
-0.895
1.937
2.268
1.426
1.103
1.014
1.401
2.176
3.027
4.191
5.858
7.981
10.553
13.597
17.106
21.062
25.447
30.214
35.309
40.726
46.456
52.467
58.733
65.222
71.897
78.731
85.691
92.736
99.824
106.917
113.974
120.954
127.82
134.533
141.055
147.352
153.389
159.136
164.56
169.633
174.325
178.612
182.471
185.884
188.836
191.312
193.306
194.812
195.831
196.364
196.418
195.996
195.109
193.765
191.978
189.761
187.13
184.105
180.71
176.974
172.93
168.611
164.057
159.308
154.404
149.387
144.299
139.177
134.061
128.994
124.02
119.186
114.538
110.112
105.954
102.111
98.621
95.52
92.828
90.545
88.687
87.279
86.346
85.918
86.022
86.675
87.927
89.852
92.524
96.02
100.38
105.591
111.664
118.613
126.467
135.279
145.028
155.647
167.096
179.363
192.457
206.357
220.905
235.818
250.797
265.56
279.935
293.781
306.877
319.136
330.619
341.543
352.437
363.783
375.802
388.741
402.758
417.581
432.737
447.459
460.662
471.678
480.13
485.507
487.764
487.767
487.283
489.037
495.678
509.019
530.872
563.205
607.43
664.087
731.875
807.283
887.282
968.168
1043.867
1110.424
1164.661
1205.548
1237.672
1259.522
1262.842
1239.039
1177.932
1081.926
966.336
845.26
732.781
634.806
548.91
476.453
418.438
375.784
351.114
343.436
349.96
368.197
393.923
421.981
449.025
473.036
492.936
509.106
522.125
532.297
540.835
549.79
560.284
572.608
586.666
601.63
616.793
631.825
646.009
658.389
668.44
675.937
680.933
683.846
684.996
684.555
682.812
680.071
676.636
672.858
668.935
664.924
660.883
656.833
652.795
648.815
644.861
640.839
636.659
632.227
627.464
622.322
616.724
610.581
603.796
596.261
587.911
578.719
568.667
557.753
545.983
533.364
519.928
505.736
490.838
475.275
459.085
442.296
424.945
407.08
388.745
369.979
350.818
331.291
311.427
291.255
270.799
250.076
229.099
207.878
186.433
164.783
142.945
120.935
98.76
76.434
53.984
31.416
8.716
-14.127
-37.128
-60.278
-83.527
-106.86
-130.307
-153.825
-177.31
-200.679
-223.838
-246.76
-269.544
-292.202
-314.588
-336.81
-359.289
-382.085
-405.043
-428.193
-451.018
-474.405
-501.078
-530.351
-559.682
-584.809
-597.834
-599.356
-597.193
-599.187
-616.484
-649.538
-687.786
-723.07
-746.514
-756.714
-761.523
-765.691
-772.528
-782.951
-793.699
-803.32
-811.887
-819.263
-825.94
-832.044
-837.115
-841.001
-843.825
-845.615
-846.385
-846.205
-845.067
-842.948
-839.979
-836.276
-831.625
-825.799
-818.969
-811.147
-802.32
-793.027
-781.913
-767.667
-752.243
-736.261
-723.276
-717.537
-714.417
-710.845
-702.234
-682.265
-656.596
-630.03
-605.869
-589.545
-577.238
-565.072
-552.215
-536.319
-518.802
-501.478
-484.043
-466.755
-449.531
-432.042
-414.558
-397.301
-380.24
-363.396
-346.821
-330.54
-314.568
-298.927
-283.61
-268.602
-253.945
-239.677
-225.817
-212.39
-199.421
-186.933
-174.954
-163.511
-152.622
-142.305
-132.575
-123.444
-114.92
-107.005
-99.7
-93.005
-86.922
-81.452
-76.596
-72.35
-68.706
-65.655
-63.181
-61.267
-59.889
-59.016
-58.615
-58.657
-59.122
-60.005
-61.296
-62.968
-64.983
-67.289
-69.822
-72.514
-75.286
-78.036
-80.664
-83.074
-85.175
-86.907
-88.223
-89.081
-89.422
-89.152
-88.188
-86.494
-84.084
-81.013
-77.343
-73.132
-68.454
-63.44
-58.275
-53.144
-48.231
-43.684
-39.596
-36.007
-33.038
-30.87
-29.504
-28.818
-28.401
-27.521
-25.565
-22.1
-16.726
-9.144
0.554
12.242
25.366
38.32
49.699
58.525
63.982
67.853
72.827
79.123
88.488
100.477
114.249
137.229
174.208
229.609
307.572
399.444
497.159
593.769
679.132
750.695
806.313
842.227
858.026
851.823
821.447
766.671
688.983
592.627
483.347
367.066
249.21
134.226
27.289
-65.613
-140.729
-196.744
-234.111
-255.12
-262.457
-258.626
-247.537
-234.344
-222.667
-214.539
-210.932
-211.406
-215.354
-222.34
-230.924
-238.895
-244.985
-248.785
-250.382
-250.562
-249.968
-248.941
-248.205
-248.667
-250.829
-254.877
-260.7
-267.856
-275.993
-284.886
-294.225
-303.697
-313
-321.807
-329.929
-337.312
-343.912
-349.722
-354.734
-358.928
-362.356
-365.139
-367.402
-369.283
-370.909
-372.391
-373.868
-375.496
-377.437
-379.859
-382.891
-386.632
-391.171
-396.591
-402.957
-410.314
-418.675
-428.018
-438.315
-449.542
-461.658
-474.601
-488.299
-502.672
-517.646
-533.184
-549.252
-565.81
-582.812
-600.202
-617.95
-636.075
-654.611
-673.574
-692.986
-712.859
-733.225
-754.185
-775.804
-798.107
-821.092
-844.672
-868.732
-893.166
-917.85
-942.62
-967.268
-991.508
-1015.006
-1037.5
-1058.723
-1078.417
-1096.314
-1112.056
-1125.336
-1135.931
-1143.667
-1148.461
-1150.288
-1149.113
-1144.951
-1137.909
-1128.148
-1115.92
-1101.547
-1085.272
-1067.324
-1047.944
-1027.372
-1005.924
-983.892
-961.487
-938.881
-916.206
-893.567
-871.08
-848.843
-826.866
-805.13
-783.567
-762.061
-740.57
-719.079
-697.566
-676.025
-654.426
-632.747
-611.02
-589.308
-567.669
-546.165
-524.844
-503.753
-482.984
-462.639
-442.826
-423.668
-405.251
-387.637
-370.885
-355.042
-340.141
-326.21
-313.249
-301.236
-290.158
-279.999
-270.744
-262.375
-254.858
-248.149
-242.204
-236.971
-232.401
-228.445
-225.048
-222.155
-219.713
-217.67
-215.973
-214.572
-213.411
-212.431
-211.572
-210.773
-209.971
-209.105
-208.113
-206.936
-205.514
-203.793
-201.719
-199.243
-196.314
-192.888
-188.922
-184.378
-179.218
-173.413
-166.933
-159.76
-151.879
-143.283
-133.963
-123.918
-113.152
-101.67
-89.482
-76.6
-63.032
-48.794
-33.907
-18.397
-2.298
14.355
31.523
49.165
67.237
85.697
104.502
123.613
142.995
162.604
182.392
202.303
222.267
242.218
262.104
281.872
301.482
320.916
340.164
359.235
378.158
396.946
415.602
434.123
452.497
470.727
488.82
506.782
524.619
542.343
559.951
577.432
594.733
611.728
628.262
644.156
659.221
673.324
686.326
698.056
708.334
716.958
723.743
728.603
731.453
732.124
730.626
727.169
722.191
716.51
710.958
706.096
702.379
700.195
699.358
699.348
699.467
698.387
694.977
688.686
679.256
667.058
653.837
641.933
633.598
631.714
638.537
655.574
684.387
725.336
776.686
835.561
898.64
961.758
1021.429
1074.477
1116.458
1143.35
1152.281
1141.313
1109.902
1058.441
986.458
893.502
781.187
652.181
512.061
366.843
218.831
71.481
-73.823
-214.981
-341.91
-448.352
-528.632
-576.924
-599.772
-603.028
-591.887
-576.249
-558.007
-537.753
-518.016
-498.331
-480.849
-468.581
-462.438
-461.712
-464.107
-467.165
-468.861
-468.378
-465.679
-460.109
-450.701
-437.429
-420.914
-402.253
-383.105
-364.277
-345.803
-327.93
-310.956
-294.97
-279.895
-265.236
-250.044
-233.697
-215.995
-196.841
-176.28
-154.364
-131.082
-106.562
-81.078
-54.877
-28.145
-1.017
26.45
54.182
82.031
109.838
137.423
164.612
191.287
217.364
242.765
267.432
291.321
314.399
336.662
358.121
378.777
398.618
417.625
435.778
453.071
469.508
485.101
499.861
513.791
526.892
539.163
550.606
561.224
571.015
579.973
588.094
595.374
601.819
607.437
612.236
616.224
619.41
621.802
623.413
624.255
624.34
623.68
622.287
620.178
617.368
613.877
609.724
604.931
599.52
593.517
586.947
579.839
572.223
564.13
555.594
546.649
537.331
527.677
517.725
507.515
497.087
486.483
475.743
464.912
454.033
443.147
432.3
421.536
410.896
400.425
390.162
380.151
370.428
361.034
352.003
343.369
335.164
327.416
320.152
313.395
307.166
301.481
296.354
291.794
287.81
284.403
281.574
279.318
277.629
276.496
275.906
275.842
276.286
277.215
278.606
280.431
282.66
285.26
288.196
291.432
294.929
298.647
302.544
306.578
310.708
314.893
319.09
323.259
327.36
331.352
335.199
338.862
342.306
345.495
348.398
350.985
353.228
355.102
356.585
357.657
358.3
358.501
358.247
357.527
356.333
354.657
352.496
349.849
346.718
343.109
339.027
334.486
329.498
324.079
318.247
312.022
305.422
298.466
291.173
283.561
275.652
267.467
259.029
250.36
241.489
232.445
223.259
213.966
204.594
195.174
185.734
176.301
166.898
157.555
148.297
139.15
130.146
121.311
112.673
104.266
96.116
88.243
80.658
73.353
66.324
59.588
53.159
47.054
41.301
35.923
30.954
26.465
22.523
19.189
16.53
14.56
13.279
12.717
12.902
13.884
15.701
18.309
21.645
25.68
30.384
35.752
41.715
48.048
54.493
60.791
66.689
72.079
76.836
80.713
83.642
85.694
87.104
88.507
90.453
93.188
97.058
102.316
108.758
116.118
123.711
130.192
134.679
136.55
134.97
129.961
122.617
114.613
108.621
107.822
114.68
131.791
162.161
207.34
267.106
339.542
421.001
507.412
594.583
677.142
748.607
803.145
836.532
846.583
832.599
794.14
732.268
650.347
553.74
448.922
341.906
237.597
140.914
57.274
-9.709
-58.705
-90.324
-107.047
-111.592
-106.353
-94.726
-81.107
-68.699
-59.267
-53.394
-50.355
-49.384
-50.025
-51.142
-50.969
-48.406
-43.108
-35.348
-26.043
-15.989
-5.671
4.273
13.039
20.112
25.25
28.464
30.083
30.421
29.695
28.165
26.114
23.791
21.478
19.465
17.918
16.96
16.689
17.142
18.361
20.382
23.172
26.656
30.752
35.367
40.419
45.849
51.572
57.485
63.478
69.425
75.234
80.848
86.218
91.308
96.088
100.532
104.639
108.425
111.9
115.064
117.912
120.43
122.613
124.464
125.984
127.169
128.014
128.504
128.629
128.377
127.732
126.674
125.183
123.232
120.804
117.881
114.45
110.494
106.002
100.96
95.356
89.18
82.423
75.075
67.125
58.566
49.392
39.601
29.19
18.16
6.515
-5.738
-18.592
-32.032
-46.044
-60.611
-75.711
-91.32
-107.41
-123.949
-140.903
-158.235
-175.903
-193.865
-212.072
-230.474
-249.021
-267.658
-286.328
-304.974
-323.535
-341.95
-360.157
-378.092
-395.692
-412.891
-429.624
-445.827
-461.436
-476.39
-490.626
-504.087
-516.716
-528.46
-539.267
-549.093
-557.892
-565.627
-572.261
-577.763
-582.107
-585.273
-587.242
-588.005
-587.555
-585.891
-583.019
-578.948
-573.694
-567.274
-559.714
-551.042
-541.292
-530.502
-518.714
-505.975
-492.336
-477.851
-462.578
-446.578
-429.916
-412.657
-394.868
-376.62
-357.984
-339.03
-319.83
-300.457
-280.982
-261.479
-242.019
-222.675
-203.516
-184.611
-166.027
-147.829
-130.08
-112.839
-96.164
-80.108
-64.725
-50.065
-36.176
-23.104
-10.891
0.426
10.811
20.23
28.657
36.067
42.443
47.769
52.034
55.226
57.34
58.372
58.322
57.194
54.991
51.718
47.388
42.021
35.638
28.267
19.939
10.688
0.557
-10.411
-22.169
-34.667
-47.855
-61.681
-76.083
-90.998
-106.362
-122.105
-138.158
-154.454
-170.916
-187.469
-204.045
-220.581
-237.019
-253.317
-269.42
-285.265
-300.801
-315.967
-330.688
-344.883
-358.436
-371.219
-383.146
-394.131
-404.105
-413.024
-420.81
-427.405
-432.795
-436.924
-439.737
-441.184
-441.154
-439.599
-436.595
-432.265
-426.831
-420.578
-413.659
-406.28
-398.753
-391.184
-383.546
-375.599
-366.734
-356.479
-344.715
-331.243
-315.825
-298.686
-280.362
-261.935
-245.17
-231.386
-221.228
-215.348
-214.254
-217.514
-223.687
-229.793
-231.781
-226.423
-211.057
-184.442
-145.285
-90.953
-22.009
61.683
158.87
260.412
359.738
447.483
511.535
552.281
570.689
568.664
552.465
518.855
463.664
387.621
292.5
184.969
72.579
-40.256
-149.73
-251.413
-339.796
-409.934
-459.585
-489.071
-500.333
-495.562
-477.001
-448.027
-413.569
-378.602
-346.468
-318.799
-295.956
-277.82
-264.136
-254.122
-246.097
-238.151
-229.18
-218.883
-207.526
-195.63
-183.62
-171.914
-161.175
-152.123
-145.061
-139.919
-136.386
-133.993
-132.358
-131.182
-130.076
-128.592
-126.433
-123.431
-119.522
-114.746
-109.103
-102.561
-95.15
-86.945
-78.04
-68.547
-58.559
-48.148
-37.418
-26.486
-15.474
-4.513
6.309
16.945
27.358
37.53
47.447
57.096
66.483
75.636
84.572
93.301
101.828
110.151
118.277
126.222
133.996
141.61
149.063
156.352
163.47
170.411
177.164
183.712
190.037
196.118
201.936
207.48
212.732
217.682
222.314
226.615
230.57
234.168
237.394
240.234
242.672
244.696
246.291
247.447
248.154
248.403
248.186
247.497
246.333
244.692
242.573
239.975
236.902
233.358
229.35
224.886
219.977
214.634
208.87
202.702
196.148
189.225
181.955
174.359
166.461
158.285
149.857
141.206
132.358
123.343
114.192
104.934
95.604
86.231
76.85
67.492
58.19
48.976
39.883
30.941
22.181
13.634
5.327
-2.71
-10.45
-17.868
-24.938
-31.638
-37.944
-43.836
-49.295
-54.301
-58.839
-62.892
-66.446
-69.49
-72.012
-74.004
-75.46
-76.373
-76.74
-76.561
-75.835
-74.565
-72.755
-70.409
-67.534
-64.141
-60.239
-55.84
-50.959
-45.611
-39.814
-33.589
-26.955
-19.938
-12.56
-4.848
3.171
11.465
20.006
28.759
37.692
46.769
55.952
65.201
74.476
83.737
92.94
102.043
111.004
119.777
128.322
136.592
144.546
152.142
159.336
166.087
172.351
178.086
183.249
187.798
191.695
194.902
197.385
199.115
200.066
200.217
199.555
198.065
195.741
192.574
188.554
183.675
177.938
171.348
163.92
155.672
146.622
136.799
126.245
115.001
103.109
90.601
77.489
63.798
49.572
34.865
19.746
4.299
-11.402
-27.267
-43.176
-59.012
-74.659
-90.01
-105.017
-119.634
-133.8
-147.434
-160.414
-172.646
-184.102
-194.791
-204.73
-213.95
-222.474
-230.36
-237.754
-244.817
-251.718
-258.619
-265.595
-272.709
-280
-287.567
-295.598
-304.087
-312.78
-321.177
-328.57
-334.322
-338.038
-339.376
-337.909
-333.662
-327.034
-318.892
-310.852
-304.431
-300.666
-299.887
-301.624
-304.495
-306.57
-305.59
-298.507
-282.003
-252.969
-209.59
-152.002
-82.215
-3.588
80.313
165.548
246.929
318.191
373.462
408.321
420.627
410.202
376.853
320.165
241.481
144.608
35.035
-81.102
-198.795
-314.103
-422.338
-517.672
-595.035
-651.779
-687.799
-704.74
-704.438
-688.869
-661.069
-625.627
-587.576
-550.419
-515.908
-484.642
-456.753
-432.167
-410.391
-389.943
-368.827
-346.048
-321.518
-295.68
-269.369
-243.292
-218.074
-194.727
-174.458
-157.949
-145.437
-136.807
-131.635
-129.595
-130.399
-133.607
-138.673
-145.037
-152.226
-159.869
-167.663
-175.311
-182.512
-188.975
-194.438
-198.735
-201.759
-203.448
-203.798
-202.82
-200.579
-197.182
-192.77
-187.532
-181.644
-175.283
-168.64
-161.866
-155.072
-148.367
-141.832
-135.514
-129.449
-123.644
-118.071
-112.706
-107.513
-102.445
-97.451
-92.459
-87.396
-82.181
-76.728
-70.975
-64.883
-58.422
-51.574
-44.338
-36.714
-28.718
-20.383
-11.738
-2.807
6.383
15.807
25.43
35.212
45.11
55.081
65.082
75.074
85.02
94.884
104.633
114.237
123.665
132.896
141.901
150.651
159.116
167.267
175.076
182.518
189.568
196.202
202.4
208.147
213.427
218.231
222.55
226.376
229.706
232.536
234.867
236.702
238.044
238.9
239.28
239.194
238.656
237.679
236.28
234.474
232.279
229.71
226.786
223.524
219.944
216.063
211.901
207.477
202.812
197.924
192.834
187.559
182.119
176.531
170.811
164.977
159.044
153.028
146.945
140.809
134.634
128.436
122.226
116.017
109.822
103.65
97.512
91.417
85.376
79.399
73.496
67.677
61.953
56.336
50.837
45.469
40.241
35.163
30.245
25.498
20.931
16.555
12.379
8.413
4.666
1.149
-2.129
-5.16
-7.936
-10.455
-12.714
-14.71
-16.443
-17.911
-19.116
-20.061
-20.747
-21.177
-21.352
-21.276
-20.958
-20.406
-19.631
-18.647
-17.47
-16.121
-14.62
-12.988
-11.244
-9.406
-7.489
-5.512
-3.489
-1.434
0.639
2.714
4.773
6.795
8.76
10.658
12.477
14.21
15.849
17.382
18.806
20.13
21.349
22.454
23.423
24.217
24.819
25.23
25.448
25.482
25.337
25.016
24.564
24.058
23.578
23.2
22.955
22.835
22.87
23.109
23.625
24.49
25.69
27.172
28.926
30.973
33.367
36.114
39.048
41.914
44.46
46.463
47.849
48.512
48.164
46.665
44.053
40.555
36.796
33.325
30.372
28.32
27.546
27.931
29.151
30.509
30.874
29.351
24.96
16.521
3.356
-12.629
-26.771
-34.86
-34.532
-29.214
-26.965
-30.449
-33.859
-21.326
29.242
129.831
273.796
435.69
577.511
668.11
696.569
673.803
625.728
574.61
529.01
483.753
425.941
348.662
253.496
147.11
37.618
-70.805
-175.863
-274.279
-361.904
-434.349
-489.244
-526.611
-546.727
-549.515
-535.496
-506.192
-464.958
-416.331
-363.504
-308.419
-252.834
-198.772
-148.611
-104.371
-66.889
-35.69
-10.38
9.224
23.463
33.269
40.471
46.819
53.569
61.184
69.713
79.174
89.442
99.925
109.442
117.009
121.971
124.176
123.933
121.594
117.584
112.508
107.163
102.212
98.137
95.2
93.405
92.738
93.175
94.638
96.999
100.134
103.928
108.254
113.032
118.144
123.421
128.732
133.964
139.018
143.829
148.36
152.58
156.489
160.123
163.512
166.693
169.712
172.61
175.448
178.295
181.23
184.341
187.699
191.351
195.336
199.676
204.381
209.453
214.883
220.638
226.695
233.032
239.626
246.455
253.492
260.699
268.036
275.463
282.937
290.423
297.883
305.282
312.589
319.771
326.803
333.663
340.324
346.758
352.937
358.834
364.421
369.676
374.574
379.095
383.219
386.931
390.221
393.081
395.504
397.486
399.025
400.123
400.782
401.007
400.807
400.191
399.17
397.758
395.973
393.83
391.349
388.549
385.45
382.071
378.433
374.556
370.46
366.167
361.698
357.073
352.314
347.442
342.477
337.44
332.35
327.225
322.082
316.939
311.81
306.712
301.657
296.659
291.73
286.882
282.126
277.471
272.928
268.503
264.203
260.036
256.008
252.124
248.393
244.819
241.409
238.171
235.113
232.243
229.567
227.091
224.822
222.766
220.93
219.319
217.94
216.796
215.894
215.239
214.838
214.693
214.806
215.178
215.807
216.694
217.835
219.229
220.869
222.752
224.873
227.228
229.809
232.609
235.612
238.809
242.187
245.731
249.422
253.237
257.146
261.134
265.185
269.264
273.335
277.366
281.32
285.191
288.987
292.67
296.201
299.602
302.887
306.064
309.157
312.107
314.815
317.29
319.585
321.505
322.827
323.675
324.013
323.761
323.358
321.507
316.945
311.427
305.478
302.366
306.045
312.287
318.324
319.955
311.326
297.672
283.418
271.591
267.232
266.788
266.643
266.034
262.802
258.279
254.129
249.943
245.697
240.979
235.1
227.93
219.531
209.917
199.317
188.217
177.002
165.866
154.962
144.335
133.48
121.544
107.493
90.064
68.578
43.255
14.944
-15.27
-45.624
-73.89
-98.032
-115.708
-125.072
-125.602
-117.9
-102.871
-81.887
-56.434
-27.048
5.137
38.422
71.755
104.653
136.667
167.085
194.11
213.92
222.944
218.855
199.607
163.381
108.374
33.654
-59.269
-165.938
-280.966
-399.482
-516.773
-628.057
-727.796
-810.853
-874.612
-919.13
-945.981
-957.118
-954.735
-941.629
-921.892
-899.942
-878.711
-859.635
-843.145
-829.281
-818.034
-809.025
-801.07
-792.645
-782.877
-771.61
-759.166
-746.056
-732.722
-719.63
-707.506
-697.271
-689.516
-684.368
-681.67
-681.05
-682.078
-684.384
-687.446
-690.568
-693.241
-695.139
-696.042
-695.913
-694.691
-692.222
-688.412
-683.183
-676.418
-668.084
-658.179
-646.685
-633.711
-619.427
-604.049
-587.9
-571.237
-554.217
-536.971
-519.57
-502.058
-484.506
-466.956
-449.422
-431.962
-414.639
-397.506
-380.617
-363.978
-347.56
-331.317
-315.187
-299.131
-283.105
-267.078
-251.102
-235.241
-219.549
-204.109
-188.945
-174.025
-159.42
-145.23
-131.287
-117.396
-103.725
-90.295
-77.107
-64.677
-51.768
-37.178
-22.708
-8.922
0.909
2.874
1.275
-1.021
0.252
10.964
25.908
40.672
52.233
55.6
54.338
52.064
49.591
49.13
49.417
48.824
47.682
45.805
43.325
40.603
37.448
33.715
29.495
24.832
19.743
14.269
8.46
2.363
-3.949
-10.398
-16.955
-23.595
-30.269
-36.937
-43.556
-50.085
-56.487
-62.727
-68.766
-74.564
-80.084
-85.293
-90.156
-94.645
-98.73
-102.387
-105.591
-108.322
-110.561
-112.294
-113.507
-114.191
-114.337
-113.941
-113.002
-111.519
-109.496
-106.939
-103.854
-100.253
-96.145
-91.544
-86.466
-80.927
-74.945
-68.54
-61.736
-54.556
-47.024
-39.168
-31.014
-22.589
-13.924
-5.047
4.012
13.224
22.559
31.986
41.472
50.988
60.499
69.976
79.387
88.702
97.89
106.924
115.776
124.417
132.824
140.97
148.828
156.372
163.574
170.405
176.839
182.853
188.421
193.523
198.143
202.266
205.879
208.979
211.558
213.608
215.126
216.102
216.528
216.402
215.725
214.499
212.733
210.435
207.612
204.286
200.475
196.193
191.449
186.234
180.547
174.405
167.836
160.875
153.571
145.964
138.1
130.062
121.927
113.781
105.709
97.748
89.92
82.264
74.83
67.685
60.903
54.476
48.346
42.482
36.845
31.42
26.197
21.035
15.736
10.092
3.874
-3.06
-10.761
-19.333
-28.935
-39.58
-51.13
-63.202
-75.15
-86.424
-96.688
-105.72
-113.303
-119.509
-124.742
-129.553
-134.759
-141.179
-149.286
-159.215
-170.929
-183.356
-194.407
-202.15
-204.736
-200.358
-187.531
-164.793
-130.614
-85.327
-31.466
28.17
90.825
153.785
214.136
267.758
309.184
334.06
340.487
327.57
294.594
240.742
165.91
72.11
-35.848
-152.044
-271.665
-390.737
-504.896
-609.172
-698.931
-770.697
-823.481
-858.557
-877.162
-880.116
-869.303
-847.433
-817.32
-782.404
-745.359
-707.379
-670.061
-635.617
-605.231
-579.764
-560.229
-546.318
-537.401
-533.273
-532.712
-533.732
-535.151
-535.788
-534.178
-529.888
-522.785
-512.676
-500.31
-486.909
-473.083
-459.351
-446.239
-433.691
-421.646
-410.113
-398.632
-386.612
-373.76
-359.887
-344.95
-329.14
-312.58
-295.348
-277.631
-259.618
-241.465
-223.309
-205.235
-187.285
-169.511
-151.962
-134.686
-117.725
-101.106
-84.839
-68.919
-53.334
-38.082
-23.167
-8.597
5.614
19.462
32.942
46.04
58.748
71.053
82.944
94.417
105.466
116.081
126.245
135.943
145.155
153.866
162.067
169.746
176.896
183.508
189.577
195.099
200.072
204.493
208.359
211.668
214.416
216.605
218.239
219.323
219.862
219.866
219.345
218.312
216.782
214.768
212.289
209.363
206.01
202.253
198.114
193.619
188.794
183.668
178.269
172.628
166.777
160.746
154.569
148.278
141.907
135.489
129.055
122.64
116.273
109.987
103.81
97.773
91.903
86.226
80.767
75.55
70.596
65.925
61.557
57.506
53.788
50.415
47.399
44.747
42.468
40.566
39.044
37.904
37.145
36.765
36.757
37.117
37.835
38.902
40.306
42.034
44.072
46.406
49.021
51.901
55.033
58.398
61.984
65.774
69.753
73.906
78.217
82.671
87.251
91.942
96.731
101.601
106.538
111.528
116.559
121.618
126.691
131.766
136.829
141.867
146.867
151.817
156.705
161.521
166.253
170.894
175.433
179.864
184.177
188.366
192.42
196.331
200.087
203.677
207.086
210.301
213.311
216.106
218.677
221.017
223.122
224.991
226.627
228.034
229.212
230.157
230.864
231.333
231.565
231.568
231.348
230.916
230.28
229.46
228.487
227.383
226.165
224.836
223.382
221.8
220.112
218.345
216.532
214.706
212.903
211.18
209.627
208.333
207.368
206.765
206.518
206.63
207.118
208.025
209.416
211.309
213.682
216.503
219.765
223.455
227.557
231.991
236.55
241.012
245.182
248.921
252.152
254.832
256.89
258.169
258.668
258.6
258.334
258.449
259.432
261.54
264.961
269.963
276.477
284.097
292.224
299.594
304.927
307.428
306.587
302.535
296.705
291.084
287.533
288.673
297.222
315.62
346.307
390.165
445.248
508.251
575.987
644.71
710.512
768.89
813.908
840.663
847.473
834.542
802.305
751.392
682.206
596.257
498.075
393.073
284.979
176.551
70.604
-29.527
-119.092
-193.635
-251.691
-293.726
-320.178
-331.717
-329.469
-315.373
-293.357
-268.013
-242.133
-217.108
-193.912
-173.052
-154.862
-139.413
-125.571
-111.611
-96.739
-80.803
-63.932
-46.635
-29.319
-12.317
3.61
17.53
28.97
37.734
43.826
47.569
49.248
49.183
47.933
46.069
44.038
42.152
40.545
39.259
38.375
37.948
37.97
38.42
39.236
40.413
42.027
44.077
46.491
49.11
51.674
53.966
55.825
57.12
57.762
57.691
56.857
55.27
52.993
50.078
46.575
42.5
37.817
32.537
26.707
20.409
13.761
6.867
-0.193
-7.332
-14.458
-21.495
-28.378
-35.071
-41.565
-47.841
-53.868
-59.61
-65.018
-70.056
-74.698
-78.922
-82.712
-86.055
-88.938
-91.359
-93.326
-94.843
-95.915
-96.544
-96.727
-96.47
-95.785
-94.684
-93.182
-91.298
-89.052
-86.471
-83.583
-80.418
-77.006
-73.376
-69.557
-65.581
-61.478
-57.279
-53.011
-48.705
-44.388
-40.086
-35.826
-31.633
-27.529
-23.535
-19.671
-15.956
-12.405
-9.033
-5.851
-2.869
-0.095
2.464
4.802
6.915
8.802
10.46
11.888
13.089
14.063
14.814
15.35
15.676
15.8
15.73
15.476
15.045
14.448
13.694
12.791
11.748
10.573
9.274
7.861
6.34
4.72
3.01
1.217
-0.651
-2.587
-4.581
-6.628
-8.72
-10.849
-13.009
-15.192
-17.39
-19.593
-21.793
-23.981
-26.149
-28.285
-30.38
-32.425
-34.412
-36.333
-38.181
-39.948
-41.628
-43.213
-44.696
-46.072
-47.334
-48.474
-49.487
-50.367
-51.108
-51.709
-52.167
-52.483
-52.66
-52.703
-52.613
-52.398
-52.064
-51.615
-51.055
-50.39
-49.621
-48.753
-47.796
-46.757
-45.652
-44.498
-43.306
-42.094
-40.874
-39.654
-38.447
-37.26
-36.089
-34.941
-33.822
-32.749
-31.754
-30.866
-30.094
-29.443
-28.915
-28.496
-28.18
-27.949
-27.756
-27.559
-27.319
-27.001
-26.608
-26.153
-25.626
-25.005
-24.245
-23.302
-22.19
-20.966
-19.654
-18.29
-16.893
-15.478
-14.179
-13.174
-12.619
-12.681
-13.456
-14.959
-17.303
-20.704
-25.206
-30.692
-36.795
-42.814
-48.187
-52.644
-55.78
-57.063
-56.361
-53.93
-50.623
-48.077
-47.658
-50.047
-56.035
-66.346
-80.53
-97.19
-113.804
-126.587
-132.315
-128.711
-113.065
-82.784
-37.148
22.99
94.742
173.268
254.346
334.099
407.054
466.95
508.532
527.554
522.037
492.059
437.086
357.206
255.385
136.73
7.434
-125.531
-256.204
-379.45
-488.926
-578.927
-646.578
-691.259
-714.343
-718.859
-707.919
-684.981
-655.083
-623.138
-592.248
-564.207
-539.495
-517.64
-498.24
-480.569
-462.928
-443.624
-421.919
-397.802
-371.938
-345.282
-318.526
-292.375
-267.814
-245.921
-227.46
-212.736
-201.665
-193.912
-189.121
-186.972
-187.071
-188.835
-191.646
-194.972
-198.333
-201.448
-204.148
-206.214
-207.461
-207.71
-206.753
-204.48
-200.865
-195.888
-189.592
-182.058
-173.374
-163.739
-153.431
-142.717
-131.875
-121.104
-110.498
-100.156
-90.161
-80.579
-71.495
-62.951
-54.944
-47.484
-40.578
-34.221
-28.409
-23.096
-18.19
-13.596
-9.217
-4.981
-0.858
3.178
7.147
11.057
14.913
18.706
22.41
26.012
29.509
32.896
36.177
39.342
42.368
45.235
47.92
50.406
52.678
54.726
56.539
58.109
59.437
60.525
61.379
62.005
62.401
62.568
62.505
62.214
61.698
60.96
60.001
58.827
57.445
55.865
54.099
52.158
50.056
47.806
45.423
42.921
40.316
37.623
34.86
32.041
29.181
26.299
23.408
20.526
17.667
14.845
12.075
9.369
6.738
4.191
1.739
-0.61
-2.85
-4.975
-6.979
-8.859
-10.611
-12.233
-13.723
-15.082
-16.31
-17.412
-18.39
-19.25
-19.997
-20.638
-21.182
-21.635
-22.005
-22.302
-22.531
-22.7
-22.815
-22.883
-22.909
-22.898
-22.856
-22.785
-22.69
-22.574
-22.439
-22.284
-22.11
-21.916
-21.7
-21.458
-21.187
-20.882
-20.539
-20.155
-19.726
-19.249
-18.719
-18.131
-17.48
-16.762
-15.972
-15.105
-14.155
-13.119
-11.993
-10.777
-9.474
-8.087
-6.624
-5.093
-3.501
-1.859
-0.175
1.541
3.283
5.043
6.819
8.6
10.379
12.142
13.874
15.556
17.175
18.716
20.166
21.516
22.753
23.866
24.856
25.719
26.447
27.023
27.412
27.586
27.537
27.266
26.781
26.102
25.243
24.23
23.125
21.992
20.9
19.911
19.04
18.283
17.655
17.192
16.951
16.991
17.292
17.779
18.416
19.169
20.023
20.966
21.832
22.376
22.378
21.644
20.064
17.651
14.33
9.895
4.348
-2.117
-9.138
-16.095
-22.514
-28.206
-32.965
-36.449
-38.699
-40.073
-40.892
-41.744
-43.452
-46.738
-51.909
-59.19
-66.442
-68.988
-65.461
-56.127
-42.639
-30.636
-17.945
4.34
42.388
103.902
187.03
277.586
363.553
432.435
476.969
499.964
504.35
493.517
469.045
428.841
372.274
300.159
215.898
125.081
31.313
-63.355
-156.302
-244.889
-325.268
-392.289
-443.662
-479.525
-499.773
-504.833
-495.91
-474.476
-443.955
-409.593
-374.862
-341.558
-311.222
-284.474
-261.57
-242.778
-227.071
-212.361
-197.453
-181.896
-165.563
-148.943
-132.468
-116.365
-101.267
-88.007
-76.997
-68.368
-61.922
-57.091
-53.411
-50.522
-48.008
-45.541
-42.857
-39.622
-35.905
-32.271
-28.826
-25.376
-22.009
-18.222
-15.136
-16.074
-20.406
-25.221
-25.7
-12.735
12.967
42.061
65.269
69.487
53.932
30.981
10.209
1.972
8.081
19.359
30.198
36.768
37.956
37.571
37.364
37.263
37.45
37.398
37.007
36.812
36.994
37.487
38.323
39.533
41.104
43.012
45.211
47.616
50.2
53.002
56.028
59.265
62.706
66.335
70.139
74.111
78.231
82.47
86.801
91.196
95.627
100.066
104.486
108.855
113.147
117.331
121.379
125.263
128.956
132.432
135.665
138.632
141.312
143.683
145.727
147.426
148.768
149.738
150.327
150.524
150.324
149.72
148.71
147.292
145.467
143.235
140.602
137.574
134.161
130.374
126.227
121.733
116.91
111.776
106.349
100.651
94.701
88.523
82.138
75.571
68.847
61.992
55.032
47.992
40.9
33.782
26.664
19.572
12.532
5.57
-1.292
-8.028
-14.613
-21.024
-27.237
-33.23
-38.979
-44.462
-49.658
-54.548
-59.114
-63.34
-67.21
-70.713
-73.834
-76.565
-78.895
-80.817
-82.327
-83.42
-84.092
-84.343
-84.177
-83.6
-82.619
-81.243
-79.484
-77.354
-74.871
-72.05
-68.909
-65.468
-61.747
-57.769
-53.557
-49.141
-44.549
-39.815
-34.973
-30.061
-25.116
-20.176
-15.276
-10.449
-5.729
-1.144
3.282
7.521
11.548
15.334
18.848
22.06
24.943
27.475
29.638
31.413
32.788
33.754
34.313
34.468
34.216
33.539
32.406
30.792
28.695
26.125
23.102
19.65
15.797
11.589
7.109
2.444
-2.327
-7.142
-11.986
-16.847
-21.686
-26.431
-30.995
-35.32
-39.414
-43.326
-47.067
-50.65
-54.094
-57.447
-60.902
-64.649
-68.845
-73.65
-79.133
-85.329
-92.381
-100.468
-109.635
-119.824
-130.615
-141.234
-151.12
-159.786
-166.679
-171.528
-174.077
-174.067
-172.512
-171.39
-172.132
-176.376
-184.177
-192.61
-201.032
-210.165
-220.558
-235.639
-251.378
-256.09
-239.382
-189.77
-107.013
-4.111
106.221
209.757
297.884
370.569
425.801
461.499
475.451
463.29
423.751
358.477
271.074
167.914
55.644
-59.491
-171.576
-275.484
-366.013
-438.578
-491.028
-523.413
-537.108
-534.619
-518.714
-492.35
-459.794
-425.505
-392.184
-361.183
-332.961
-307.21
-283.703
-262.1
-241.013
-218.764
-194.715
-168.908
-141.865
-114.476
-87.294
-60.74
-35.673
-13.095
6.325
22.198
34.543
43.704
49.933
53.479
54.715
54.12
52.293
49.806
47.029
44.178
41.392
38.773
36.486
34.697
33.522
33.097
33.499
34.742
36.857
39.822
43.533
47.844
52.511
57.247
61.866
66.257
70.35
74.14
77.595
80.684
83.411
85.773
87.768
89.407
90.686
91.607
92.217
92.584
92.807
93.024
93.329
93.786
94.444
95.326
96.446
97.821
99.444
101.295
103.367
105.653
108.154
110.874
113.805
116.929
120.222
123.649
127.175
130.772
134.407
138.053
141.682
145.269
148.792
152.238
155.586
158.815
161.9
164.814
167.53
170.024
172.27
174.244
175.923
177.287
178.318
179.002
179.329
179.286
178.868
178.068
176.883
175.312
173.356
171.018
168.304
165.223
161.783
157.998
153.883
149.457
144.739
139.75
134.513
129.052
123.392
117.558
111.576
105.474
99.281
93.024
86.735
80.444
74.184
67.987
61.884
55.906
50.084
44.446
39.021
33.835
28.914
24.28
19.958
15.969
12.333
9.07
6.195
3.724
1.672
0.05
-1.133
-1.87
-2.156
-1.99
-1.37
-0.297
1.225
3.192
5.599
8.435
11.694
15.363
19.427
23.868
28.667
33.8
39.244
44.973
50.96
57.175
63.588
70.168
76.887
83.713
90.612
97.55
104.493
111.403
118.244
124.978
131.564
137.963
144.14
150.062
155.699
161.022
166.008
170.634
174.887
178.747
182.194
185.206
187.764
189.852
191.463
192.594
193.242
193.41
193.107
192.349
191.168
189.581
187.597
185.213
182.415
179.209
175.63
171.71
167.481
162.985
158.272
153.424
148.56
143.777
139.132
134.659
130.362
126.273
122.461
119.001
115.967
113.396
111.284
109.661
108.582
108.064
108.103
108.57
109.221
109.859
110.342
110.566
110.518
110.12
109.179
107.692
105.844
104.02
102.872
102.915
104.394
107.508
112.445
119.069
126.988
135.298
142.391
146.734
147.213
143.425
135.808
125.814
115.582
107.701
105.581
112.989
133.429
169.082
220.374
285.533
361.203
443.805
528.832
610.382
681.841
737.055
771.117
781.686
768.305
730.407
668.492
585.193
485.044
374.223
259.521
146.133
38.424
-58.447
-139.966
-202.735
-244.99
-267.833
-274.053
-265.821
-245.61
-216.847
-182.768
-147.495
-114.999
-86.791
-63.099
-44.399
-30.643
-21.643
-17.553
-16.738
-16.745
-16.626
-16.024
-14.71
-12.894
-10.274
-6.037
-0.668
4.596
9.205
12.86
15.655
18.094
20.25
21.887
23.258
24.943
27.35
30.805
35.375
40.872
47.248
54.549
62.728
71.667
81.229
91.253
101.624
112.287
123.155
134.112
145.062
155.917
166.612
177.109
187.384
197.408
207.166
216.656
225.863
234.766
243.342
251.562
259.401
266.844
273.869
280.456
286.581
292.224
297.359
301.964
306.009
309.46
312.284
314.446
315.92
316.683
316.716
316.002
314.526
312.278
309.25
305.438
300.841
295.457
289.286
282.334
274.609
266.126
256.902
246.958
236.317
225.008
213.063
200.519
187.416
173.794
159.698
145.176
130.278
115.057
99.566
83.862
68.002
52.043
36.043
20.06
4.156
-11.608
-27.172
-42.479
-57.475
-72.109
-86.324
-100.063
-113.295
-125.988
-138.109
-149.637
-160.525
-170.717
-180.208
-188.999
-197.022
-204.225
-210.571
-216.009
-220.58
-224.365
-227.331
-229.411
-230.827
-231.836
-232.32
-232.317
-231.901
-230.587
-229.802
-230.941
-232.104
-232.744
-229.341
-217.676
-202.507
-187.02
-175.935
-175.723
-180.733
-186.181
-188.799
-183.16
-173.201
-162.908
-153.187
-146.474
-141.394
-136.165
-131.148
-126.125
-121.228
-116.829
-112.696
-108.644
-104.739
-100.996
-97.393
-93.933
-90.627
-87.478
-84.513
-81.762
-79.198
-76.791
-74.537
-72.423
-70.439
-68.577
-66.824
-65.168
-63.607
-62.141
-60.763
-59.467
-58.248
-57.098
-56.014
-54.993
-54.026
-53.105
-52.224
-51.381
-50.574
-49.801
-49.057
-48.336
-47.637
-46.962
-46.311
-45.69
-45.097
-44.531
-44.002
-43.522
-43.115
-42.821
-42.671
-42.688
-42.906
-43.34
-43.99
-44.842
-45.838
-46.908
-48.007
-49.09
-50.123
-51.094
-51.974
-52.763
-53.464
-54.025
-54.375
-54.423
-54.075
-53.322
-52.246
-50.991
-49.788
-48.868
-48.478
-48.972
-50.506
-52.98
-56.102
-59.224
-61.753
-63.533
-64.323
-63.765
-62.183
-60.346
-59.534
-61.846
-68.779
-80.769
-98.396
-122.113
-150.978
-183.098
-215.248
-242.763
-261.975
-270.428
-265.269
-243.869
-205.428
-150.706
-82.781
-6.838
72.696
151.765
224.815
285.619
328.895
350.402
348.21
322.39
272.367
198.275
103.192
-7.691
-128.128
-251.182
-370.98
-482.371
-578.923
-655.002
-707.973
-737.592
-745.724
-735.874
-711.517
-676.479
-636.122
-595.526
-557.953
-525.27
-497.856
-475.021
-456.072
-439.977
-424.835
-408.917
-391.417
-372.156
-351.611
-330.617
-309.854
-290.097
-272.411
-257.742
-246.566
-238.94
-234.544
-232.915
-233.664
-236.376
-240.512
-245.42
-250.496
-255.344
-259.738
-263.535
-266.572
-268.599
-269.339
-268.633
-266.421
-262.693
-257.496
-250.863
-242.846
-233.607
-223.381
-212.452
-201.114
-189.558
-177.892
-166.215
-154.615
-143.193
-132.069
-121.297
-110.89
-100.876
-91.273
-82.11
-73.416
-65.163
-57.288
-49.719
-42.38
-35.232
-28.27
-21.493
-14.906
-8.524
-2.367
3.529
9.11
14.342
19.198
23.655
27.696
31.294
34.409
37.008
39.058
40.53
41.404
41.66
41.282
40.265
38.607
36.314
33.398
29.869
25.736
21.013
15.713
9.853
3.451
-3.47
-10.886
-18.769
-27.086
-35.803
-44.88
-54.278
-63.955
-73.866
-83.969
-94.217
-104.566
-114.969
-125.379
-135.752
-146.039
-156.195
-166.176
-175.935
-185.429
-194.618
-203.46
-211.919
-219.959
-227.549
-234.658
-241.26
-247.329
-252.844
-257.785
-262.136
-265.883
-269.017
-271.529
-273.417
-274.681
-275.324
-275.351
-274.773
-273.601
-271.849
-269.536
-266.678
-263.29
-259.396
-255.016
-250.178
-244.911
-239.239
-233.183
-226.788
-220.093
-213.138
-205.967
-198.599
-191.041
-183.341
-175.55
-167.647
-159.629
-151.497
-143.235
-134.906
-126.606
-118.322
-110.004
-101.863
-94.137
-86.715
-79.627
-72.933
-66.173
-60.64
-57.59
-55.266
-53.151
-48.004
-35.943
-21.294
-6.941
2.831
2.138
-3.821
-10.633
-15.275
-12.751
-6.627
-0.519
4.766
7.028
7.55
7.983
8.026
7.899
7.504
6.533
5.224
3.771
2.128
0.273
-1.776
-4.014
-6.434
-9.013
-11.735
-14.599
-17.543
-20.47
-23.314
-26.002
-28.459
-30.665
-32.607
-34.259
-35.595
-36.561
-37.099
-37.209
-36.933
-36.312
-35.4
-34.248
-32.907
-31.515
-30.243
-29.267
-28.782
-28.908
-29.72
-31.272
-33.64
-36.957
-41.2
-46.131
-51.294
-56.06
-59.857
-62.317
-63.14
-61.925
-58.739
-53.988
-48.257
-42.775
-38.663
-36.607
-37.042
-39.829
-43.652
-46.653
-47.06
-42.398
-30.321
-8.65
24.725
70.428
127.171
192.426
263.5
337.382
410.706
478.859
536.249
578.434
602.024
604.916
585.899
543.066
476.618
391.36
291.619
180.807
61.471
-68.1
-202.131
-326.097
-426.239
-488.565
-511.337
-506.241
-484.345
-457.339
-430.714
-402.192
-372.262
-341.259
-310.142
-282.593
-259.609
-240.645
-225.049
-210.649
-195.561
-179.208
-161.4
-142.421
-122.96
-103.599
-84.95
-67.886
-53.35
-41.917
-33.719
-28.621
-26.256
-26.154
-27.89
-30.901
-34.441
-37.979
-41.179
-43.8
-45.791
-47.099
-47.566
-47.098
-45.624
-43.014
-39.229
-34.263
-28.082
-20.791
-12.558
-3.595
5.775
15.294
24.814
34.215
43.441
52.474
61.265
69.797
78.086
86.094
93.794
101.168
108.178
114.834
121.186
127.3
133.281
139.225
145.187
151.208
157.311
163.496
169.762
176.093
182.455
188.829
195.206
201.579
207.949
214.309
220.639
226.918
233.117
239.202
245.144
250.912
256.477
261.816
266.909
271.736
276.288
280.55
284.508
288.143
291.437
294.371
296.928
299.091
300.843
302.171
303.065
303.518
303.526
303.088
302.203
300.876
299.109
296.912
294.29
291.256
287.82
283.996
279.801
275.253
270.372
265.179
259.7
253.958
247.981
241.797
235.433
228.917
222.279
215.548
208.753
201.926
195.096
188.294
181.55
174.892
168.35
161.951
155.718
149.675
143.842
138.238
132.88
127.785
122.967
118.436
114.204
110.281
106.674
103.388
100.425
97.787
95.471
93.475
91.796
90.429
89.366
88.598
88.118
87.916
87.98
88.298
88.854
89.631
90.612
91.777
93.11
94.591
96.199
97.917
99.725
101.606
103.542
105.516
107.507
109.498
111.468
113.395
115.259
117.036
118.707
120.254
121.661
122.915
124.004
124.92
125.659
126.214
126.582
126.752
126.711
126.449
125.962
125.245
124.302
123.136
121.744
120.138
118.334
116.346
114.186
111.846
109.3
106.537
103.564
100.401
97.08
93.631
90.074
86.458
82.861
79.359
76.033
72.92
70.003
67.283
64.779
62.532
60.625
59.089
57.875
56.938
56.251
55.778
55.514
55.377
55.15
54.616
53.553
51.804
49.316
46.046
41.899
36.714
30.474
23.39
15.935
8.75
2.354
-2.941
-6.907
-9.196
-9.828
-9.189
-7.882
-7.176
-8.234
-11.693
-17.943
-26.795
-36.828
-46.123
-52.836
-54.301
-48.037
-31.866
-3.586
37.483
89.877
150.953
217.826
287.125
355.348
418.017
469.482
504.96
521.256
516.988
491.485
443.932
374.144
283.991
177.83
61.411
-59.313
-179.644
-295.065
-400.155
-489.695
-559.615
-608.192
-636.247
-645.487
-637.21
-613.3
-576.575
-530.595
-479.698
-427.268
-375.156
-325.33
-280.123
-241.335
-210.551
-188.356
-173.796
-165.932
-164.024
-166.414
-170.918
-175.64
-178.616
-178.66
-175.657
-169.574
-160.589
-149.596
-137.875
-126.466
-116.234
-107.544
-100.269
-94.32
-89.542
-85.545
-81.755
-77.746
-73.293
-68.384
-63.212
-57.928
-52.626
-47.42
-42.47
-37.901
-33.814
-30.282
-27.266
-24.722
-22.634
-20.966
-19.716
-18.883
-18.385
-18.122
-18.082
-18.248
-18.604
-19.159
-19.83
-20.496
-21.157
-21.848
-22.349
-22.41
-22.136
-21.481
-20.38
-19.295
-16.923
-12.004
-6.333
-0.45
2.344
-1.905
-8.826
-15.512
-17.631
-9.228
4.402
18.762
30.762
35.305
35.981
36.427
37.423
41.171
46.334
51.206
56.068
60.671
65.09
69.626
74.024
78.073
81.801
85.19
88.193
90.789
92.968
94.717
96.051
96.994
97.518
97.6
97.239
96.432
95.179
93.487
91.359
88.799
85.822
82.447
78.695
74.588
70.152
65.414
60.405
55.158
49.706
44.086
38.335
32.49
26.589
20.67
14.774
8.937
3.199
-2.405
-7.839
-13.067
-18.055
-22.773
-27.189
-31.274
-35.002
-38.349
-41.29
-43.805
-45.875
-47.484
-48.618
-49.265
-49.417
-49.067
-48.211
-46.852
-44.991
-42.635
-39.795
-36.484
-32.719
-28.521
-23.914
-18.923
-13.577
-7.908
-1.949
4.264
10.693
17.298
24.039
30.875
37.764
44.662
51.525
58.312
64.978
71.479
77.771
83.809
89.55
94.953
99.977
104.581
108.727
112.379
115.503
118.071
120.053
121.426
122.167
122.266
121.717
120.523
118.694
116.238
113.169
109.507
105.276
100.503
95.208
89.412
83.135
76.406
69.262
61.749
53.912
45.784
37.402
28.805
20.039
11.157
2.207
-6.763
-15.693
-24.511
-33.109
-41.375
-49.206
-56.51
-63.21
-69.259
-74.607
-79.208
-83.039
-86.056
-88.235
-89.608
-90.19
-90.06
-89.332
-88.048
-86.336
-84.408
-82.305
-80.009
-77.382
-73.892
-69.048
-62.746
-54.833
-45.311
-34.628
-23.059
-11.245
-0.733
7.098
11.59
12.558
10.773
7.885
4.964
3.559
6.695
17.488
38.602
71.611
115.918
169.377
230.457
297.235
365.621
430.23
484.744
523.481
543.278
542.815
520.293
473.82
404.051
314.495
211.002
100.216
-11.999
-120.686
-220.291
-303.804
-367.719
-413.052
-439.832
-448.557
-438.159
-403.818
-350.752
-292.033
-239.478
-206.485
-194.02
-191.312
-189.657
-179.678
-159.015
-133.235
-105.777
-79.655
-55.773
-31.926
-7.65
16.378
39.24
59.302
75.761
88.685
98.201
104.61
108.213
109.289
108.196
105.36
101.277
96.341
90.901
85.316
79.84
74.722
70.224
66.556
63.92
62.477
62.301
63.424
65.854
69.535
74.394
80.323
87.116
94.576
102.505
110.673
118.934
127.174
135.278
143.167
150.759
157.98
164.799
171.217
177.226
182.839
188.07
192.934
197.493
201.815
205.973
210.05
214.095
218.135
222.191
226.273
230.381
234.515
238.657
242.772
246.839
250.839
254.755
258.573
262.268
265.808
269.161
272.297
275.187
277.811
280.145
282.171
283.872
285.237
286.257
286.927
287.238
287.18
286.741
285.912
284.683
283.049
281.004
278.545
275.669
272.379
268.681
264.582
260.095
255.228
249.998
244.42
238.511
232.294
225.788
219.016
212.003
204.774
197.357
189.778
182.067
174.253
166.364
158.431
150.484
142.553
134.669
126.862
119.162
111.6
104.204
97.003
90.024
83.294
76.837
70.676
64.832
59.325
54.173
49.39
44.99
40.984
37.378
34.178
31.388
29.007
27.033
25.462
24.288
23.504
23.1
23.066
23.387
24.049
25.036
26.33
27.912
29.76
31.85
34.157
36.657
39.323
42.129
45.049
48.055
51.118
54.213
57.311
60.384
63.404
66.337
69.153
71.82
74.31
76.597
78.652
80.453
81.979
83.214
84.149
84.772
85.07
85.03
84.64
83.893
82.781
81.299
79.441
77.208
74.602
71.631
68.308
64.639
60.629
56.277
51.572
46.512
41.107
35.372
29.333
23.022
16.484
9.775
2.969
-3.868
-10.667
-17.362
-23.895
-30.199
-36.225
-41.923
-47.229
-52.088
-56.48
-60.421
-63.955
-67.16
-70.094
-72.807
-75.43
-78.107
-81.022
-84.398
-88.418
-93.222
-98.97
-105.836
-113.852
-122.908
-132.678
-142.554
-151.989
-160.537
-167.687
-173.029
-176.547
-178.602
-180.004
-181.843
-184.8
-189.281
-195.855
-204.745
-215.224
-225.452
-232.536
-233.619
-226.752
-210.278
-182.203
-140.632
-84.983
-17.125
58.981
139.329
220.594
299.401
371.502
431.216
473.313
495.527
497.834
480.534
443.752
387.463
312.945
224.731
128.639
28.86
-71.289
-168.445
-258.737
-336.906
-398.415
-442.11
-468.893
-479.707
-475.873
-459.151
-432.225
-399.83
-366.873
-336.185
-309.109
-286.372
-268.207
-254.673
-245.31
-238.384
-231.847
-224.612
-216.358
-207.259
-197.748
-188.133
-178.723
-170.177
-163.26
-158.309
-155.297
-153.924
-153.713
-154.291
-155.378
-156.624
-157.625
-158.107
-157.907
-156.956
-155.291
-152.907
-149.764
-145.867
-141.253
-135.981
-130.132
-123.783
-116.994
-109.848
-102.437
-94.852
-87.194
-79.523
-71.869
-64.247
-56.658
-49.103
-41.583
-34.084
-26.581
-19.056
-11.494
-3.89
3.758
11.456
19.215
27.042
34.939
42.9
50.91
58.955
67.014
75.064
83.077
91.02
98.86
106.563
114.101
121.445
128.564
135.426
142.001
148.256
154.162
159.686
164.795
169.457
173.639
177.312
180.448
183.024
185.012
186.387
187.13
187.22
186.648
185.407
183.481
180.858
177.551
173.578
168.952
163.7
157.821
151.301
144.182
136.51
128.254
119.399
109.941
99.859
89.228
78.165
66.659
54.664
42.436
30.271
18.054
5.84
-6.283
-18.832
-30.27
-39.1
-47.369
-55.673
-67.807
-88.321
-112.114
-135.78
-154.26
-160.62
-160.957
-160.443
-162.617
-173.341
-188.411
-203.569
-217.866
-228.711
-237.608
-246.497
-255.013
-263.409
-271.563
-279.094
-286.268
-293.301
-300.136
-306.769
-313.235
-319.54
-325.678
-331.652
-337.432
-342.981
-348.327
-353.495
-358.483
-363.299
-367.944
-372.414
-376.715
-380.848
-384.805
-388.573
-392.144
-395.505
-398.645
-401.555
-404.222
-406.636
-408.786
-410.663
-412.258
-413.561
-414.559
-415.239
-415.589
-415.595
-415.241
-414.515
-413.404
-411.898
-409.995
-407.696
-405
-401.912
-398.433
-394.568
-390.33
-385.729
-380.763
-375.44
-369.767
-363.77
-357.492
-350.976
-344.247
-337.328
-330.233
-322.969
-315.54
-307.933
-300.086
-291.938
-283.432
-274.531
-265.257
-255.641
-245.702
-235.444
-224.855
-213.951
-202.808
-191.515
-180.138
-168.767
-157.514
-146.563
-136.241
-126.874
-118.738
-112.063
-106.961
-103.49
-101.73
-101.726
-103.47
-106.911
-111.865
-118.088
-125.411
-133.567
-142.2
-150.89
-158.916
-165.455
-169.917
-171.84
-171.049
-167.801
-162.291
-154.534
-144.844
-133.676
-121.248
-107.599
-91.948
-72.578
-48.059
-17.771
18.441
60.664
108.437
160.472
214.399
264.455
304.352
331.317
342.327
337.58
319.869
284.485
227.721
148.116
41.148
-85.667
-217.316
-341.864
-442.484
-510.414
-551.397
-570.72
-577.293
-579.189
-572.523
-551.363
-511.628
-451.283
-378.788
-312.886
-269.381
-258.251
-278.121
-308.179
-329.35
-329.145
-302.695
-264.818
-228.143
-199.011
-182.609
-172.235
-162.877
-154.575
-145.503
-137.446
-131.832
-127.404
-123.912
-121.007
-118.076
-115.031
-111.68
-107.95
-104.318
-101.038
-97.955
-95.049
-91.845
-89.103
-89.738
-93.512
-97.749
-98.378
-87.323
-64.41
-38.073
-16.475
-11.164
-23.898
-43.595
-61.6
-68.887
-63.049
-52.269
-41.8
-34.903
-32.891
-32.401
-31.696
-30.896
-29.806
-28.867
-28.213
-27.359
-26.125
-24.566
-22.654
-20.351
-17.663
-14.619
-11.271
-7.688
-3.914
0.054
4.209
8.506
12.912
17.452
22.141
26.947
31.899
37.051
42.391
47.958
53.772
59.652
65.43
71.115
76.463
80.995
84.712
87.747
89.874
91.679
92.764
90.477
85.222
79.55
77.002
86.335
110.168
139.96
165.202
170.193
145.445
102.149
57.054
27.586
27.747
50.227
78.543
100.479
105.248
94.529
78.535
62.444
50.003
41.847
34.49
26.866
19.254
11.709
4.93
-1.087
-6.659
-11.989
-17.964
-23.419
-26.919
-30.298
-33.571
-40.943
-59.306
-83.591
-108.065
-123.915
-116.661
-91.902
-62.646
-40.306
-41.856
-64.765
-94.026
-120.097
-131.422
-127.352
-117.963
-108.178
-101.663
-99.522
-98.028
-95.795
-93.162
-89.954
-86.682
-83.544
-80.094
-76.198
-71.953
-67.343
-62.334
-56.992
-51.387
-45.588
-39.713
-33.829
-27.937
-22.071
-16.282
-10.603
-5.074
0.271
5.412
10.323
14.97
19.324
23.354
27.023
30.305
33.172
35.605
37.586
39.099
40.13
40.671
40.731
40.314
39.423
38.043
36.146
33.713
30.751
27.278
23.324
18.919
14.089
8.89
3.408
-2.264
-8.027
-13.824
-19.649
-25.484
-31.285
-36.982
-42.475
-47.704
-52.69
-57.453
-61.984
-66.284
-70.328
-74.158
-77.954
-81.895
-86.167
-90.909
-96.155
-101.929
-108.325
-115.472
-123.403
-131.968
-140.697
-148.935
-156.104
-161.735
-165.565
-167.38
-167.116
-165.024
-161.793
-158.722
-157.359
-159.037
-164.206
-172.315
-181.972
-191.41
-198.362
-199.631
-191.712
-170.731
-135.284
-87.902
-30.343
36.148
111.707
199.899
295.371
384.108
452.359
484.579
478.46
445.858
396.486
340.506
281.174
213.19
136.065
51.3
-39.078
-130.004
-218.116
-300.756
-373.343
-432.371
-476.377
-504.497
-516.261
-511.379
-489.498
-451.798
-402.601
-347.252
-290.037
-234.841
-184.516
-141.289
-107.952
-86.078
-74.584
-71.132
-73.024
-77.171
-81.693
-85.372
-86.3
-83.332
-76.572
-66.641
-54.929
-43.279
-32.543
-23.068
-15.454
-9.792
-5.894
-3.596
-2.242
-0.984
0.539
2.498
5.022
7.986
11.316
15.022
18.948
22.926
26.871
30.694
34.356
37.865
41.171
44.237
47.054
49.606
51.911
54.007
55.923
57.71
59.427
61.111
62.8
64.521
66.297
68.157
70.133
72.25
74.537
77.02
79.721
82.666
85.872
89.347
93.092
97.102
101.369
105.887
110.652
115.656
120.89
126.343
132.002
137.852
143.878
150.058
156.367
162.778
169.261
175.788
182.331
188.86
195.345
201.757
208.067
214.248
220.271
226.111
231.74
237.132
242.263
247.11
251.651
255.867
259.736
263.244
266.373
269.113
271.452
273.381
274.893
275.985
276.654
276.902
276.731
276.146
275.155
273.768
271.998
269.861
267.373
264.556
261.429
258.017
254.345
250.437
246.322
242.025
237.576
233
228.329
223.591
218.817
214.035
209.276
204.572
199.954
195.452
191.099
186.923
182.955
179.222
175.753
172.574
169.709
167.181
165.013
163.224
161.835
160.862
160.319
160.218
160.569
161.38
162.656
164.398
166.605
169.274
172.401
175.978
180
184.456
189.335
194.624
200.309
206.372
212.794
219.551
226.613
233.949
241.526
249.31
257.269
265.365
273.564
281.833
290.142
298.465
306.771
315.027
323.2
331.258
339.17
346.91
354.449
361.76
368.822
375.616
382.126
388.345
394.256
399.838
405.07
409.915
414.349
418.366
421.961
425.134
427.902
430.287
432.336
434.125
435.718
437.191
438.622
440.069
441.605
443.29
445.174
447.336
449.826
452.644
455.791
459.238
462.929
466.863
470.951
475.005
478.845
482.199
484.809
486.518
487.085
486.271
484.065
480.559
476.055
471.16
466.334
461.909
458.424
456.247
455.305
455.246
455.177
454.004
451.229
446.706
440.148
431.537
421.733
412.616
407.136
408.357
418.307
438.315
469.93
514.752
573.146
643.54
722.469
805.755
889.958
972.154
1048.33
1113.241
1162.078
1191.64
1200.752
1189.368
1157.113
1103.338
1029.246
938.634
836.59
728.28
617.917
509.245
406.724
315.728
240.547
182.827
142.136
116.898
105.506
106.236
116.417
131.879
148.185
162.522
173.583
180.959
184.528
184.106
179.902
173.215
165.881
158.908
152.548
146.542
140.274
133.316
125.266
115.355
102.75
87.066
68.305
46.832
23.29
-1.705
-27.541
-53.58
-79.23
-104.041
-127.758
-150.163
-171.019
-190.119
-207.179
-221.945
-234.44
-244.665
-252.47
-258.089
-262.125
-264.812
-266.333
-267.117
-266.614
-265.649
-267.603
-271.944
-275.748
-274.957
-259.208
-227.362
-190.565
-158.39
-147.302
-163.066
-188.668
-211.431
-216.414
-194.702
-161.241
-126.734
-98.388
-83.269
-73.669
-63.749
-52.808
-38.244
-22.128
-6.566
9.258
25.214
41.281
57.793
74.453
90.973
107.337
123.454
139.157
154.372
169.104
183.341
197.088
210.365
223.123
235.32
246.945
257.983
268.42
278.23
287.382
295.854
303.633
310.737
317.2
323.014
328.168
332.727
336.747
340.279
343.392
346.075
348.282
350.085
351.595
352.654
353.071
353.026
352.552
351.652
350.875
348.926
344.545
339.652
334.865
333.668
340.226
350.03
360.085
365.912
361.342
351.908
342.306
335.765
337.587
344.033
351.306
358.581
363.558
367.605
372.469
377.83
383.924
390.649
397.681
405.254
413.535
422.434
431.9
441.901
452.374
463.218
474.312
485.518
496.698
507.788
518.747
529.487
539.911
549.906
559.336
568.114
576.203
583.561
590.154
596.003
601.154
605.719
609.885
613.77
617.428
620.874
624.061
626.967
629.591
631.921
633.946
635.617
636.832
637.479
637.432
636.461
634.26
630.426
624.444
615.919
604.576
590.186
572.612
551.717
527.368
499.48
467.999
432.868
394.053
351.555
305.409
255.808
203.071
147.63
90.078
30.93
-29.383
-90.414
-151.778
-213.084
-273.928
-333.94
-392.741
-449.871
-504.819
-557.105
-606.251
-651.921
-693.879
-731.97
-766.236
-796.723
-823.471
-846.562
-866.018
-881.917
-894.419
-903.72
-910.092
-913.864
-915.348
-914.924
-913.113
-910.243
-906.513
-901.843
-895.637
-887.578
-877.75
-866.239
-853.196
-838.795
-823.209
-807.361
-793.067
-781.485
-772.807
-766.511
-761.422
-756.718
-751.624
-743.981
-730.359
-707.703
-674.19
-629.922
-576.498
-515.133
-447.439
-377.17
-310.057
-252.771
-211.46
-189.91
-190.095
-214.251
-263.688
-337.067
-430.403
-537.221
-650.019
-762.539
-869.382
-964.396
-1041.995
-1098.816
-1133.753
-1148.322
-1145.773
-1129.247
-1102.029
-1068.538
-1033.22
-999.158
-968.185
-940.696
-916.015
-893.529
-872.483
-851.433
-828.892
-804.188
-777.3
-748.697
-719.168
-689.339
-659.767
-631.272
-604.721
-580.598
-559.024
-539.918
-523.063
-508.239
-495.239
-483.669
-472.945
-462.547
-452.058
-441.218
-429.924
-418.081
-405.565
-392.306
-378.3
-363.577
-348.207
-332.193
-315.455
-297.995
-279.892
-261.321
-242.568
-223.881
-205.452
-187.451
-170.008
-153.229
-137.21
-121.997
-107.577
-93.944
-81.101
-69.091
-58.006
-47.899
-38.78
-30.626
-23.374
-16.976
-11.407
-6.632
-2.61
0.688
3.28
5.162
6.298
6.671
6.278
5.127
3.243
0.646
-2.653
-6.639
-11.299
-16.615
-22.568
-29.139
-36.318
-44.084
-52.41
-61.263
-70.599
-80.378
-90.562
-101.109
-111.977
-123.123
-134.505
-146.082
-157.816
-169.667
-181.592
-193.55
-205.497
-217.392
-229.195
-240.866
-252.365
-263.655
-274.701
-285.469
-295.927
-306.047
-315.799
-325.159
-334.103
-342.61
-350.662
-358.242
-365.336
-371.93
-378.018
-383.593
-388.651
-393.193
-397.218
-400.732
-403.74
-406.251
-408.273
-409.818
-410.896
-411.521
-411.707
-411.471
-410.83
-409.801
-408.402
-406.651
-404.566
-402.167
-399.47
-396.494
-393.256
-389.771
-386.059
-382.136
-378.018
-373.724
-369.269
-364.669
-359.941
-355.102
-350.165
-345.146
-340.057
-334.913
-329.727
-324.514
-319.288
-314.06
-308.844
-303.654
-298.503
-293.403
-288.366
-283.404
-278.531
-273.761
-269.106
-264.582
-260.203
-255.982
-251.935
-248.078
-244.423
-240.983
-237.769
-234.794
-232.069
-229.602
-227.395
-225.445
-223.747
-222.296
-221.085
-220.107
-219.35
-218.8
-218.444
-218.278
-218.304
-218.514
-218.897
-219.433
-220.093
-220.861
-221.728
-222.679
-223.699
-224.754
-225.81
-226.845
-227.842
-228.769
-229.574
-230.171
-230.468
-230.399
-229.911
-228.968
-227.562
-225.662
-223.255
-220.345
-216.92
-213.024
-208.732
-204.105
-199.238
-194.203
-189.025
-183.861
-178.948
-174.345
-170.008
-165.634
-160.579
-154.549
-147.613
-139.781
-131.088
-121.598
-111.445
-101.602
-93.9
-89.466
-88.377
-89.889
-92.649
-95.7
-98.2
-98.019
-91.705
-76.196
-49.929
-13.615
30.305
79.777
132.846
186.314
235.516
274.825
299.333
306.943
297.856
272.292
230.531
173.321
102.382
21.819
-63.374
-149.887
-235.598
-318.317
-395.622
-464.183
-520.709
-564.365
-595.772
-615.218
-623.293
-620.842
-609.227
-591.436
-570.65
-548.473
-525.754
-503.147
-480.729
-458.69
-436.933
-414.276
-389.871
-363.701
-335.938
-307.155
-278.139
-249.345
-221.397
-195.273
-171.561
-150.603
-132.653
-117.58
-105.271
-95.682
-88.535
-83.48
-80.175
-78.186
-77.186
-76.921
-77.038
-77.267
-77.433
-77.35
-76.944
-76.142
-74.771
-72.731
-69.975
-66.464
-62.258
-57.426
-52.023
-46.191
-40.096
-33.899
-27.819
-21.991
-16.469
-11.308
-6.52
-2.108
1.874
5.415
8.553
11.308
13.726
15.852
17.711
19.375
20.947
22.535
24.262
26.217
28.452
31.014
33.941
37.256
40.985
45.135
49.688
54.639
59.98
65.704
71.81
78.283
85.089
92.192
99.552
107.124
114.877
122.781
130.779
138.822
146.868
154.868
162.806
170.671
178.405
185.95
193.314
200.498
207.493
214.308
220.871
227.078
232.942
238.513
243.579
247.896
251.586
254.628
256.973
259.107
259.715
257.521
254.364
250.812
250.245
256.71
265.772
274.491
278.475
271.679
259.514
246.57
236.005
233.015
233.951
235.114
235.712
233.506
229.856
226.504
223.162
220.086
217.198
214.188
211.314
208.787
206.576
204.69
203.172
202.036
201.282
200.916
200.915
201.244
201.922
202.965
204.363
206.111
208.199
210.609
213.328
216.34
219.62
223.142
226.88
230.805
234.888
239.1
243.413
247.797
252.222
256.654
261.062
265.411
269.669
273.799
277.766
281.534
285.072
288.352
291.349
294.04
296.406
298.429
300.101
301.412
302.349
302.899
303.049
302.791
302.124
301.052
299.58
297.71
295.453
292.824
289.853
286.563
282.963
279.053
274.818
270.262
265.414
260.309
254.975
249.443
243.749
237.96
232.18
226.516
221.034
215.764
210.706
205.883
201.34
197.148
193.369
189.997
186.996
184.357
182.091
180.223
178.743
177.514
176.29
174.825
172.936
170.509
167.516
163.872
159.408
154.12
148.196
142.053
136.328
131.517
127.846
125.488
124.675
125.275
126.947
129.15
130.674
130.434
127.807
122.404
114.421
105.27
96.847
90.907
90.018
96.745
113.333
142.098
183.913
237.221
299.256
367.342
438.17
507.927
571.966
624.268
659.874
676.406
673.027
649.08
603.883
537.64
452.902
355.124
250.353
143.489
38.54
-60.421
-147.913
-218.452
-268.98
-299.28
-310.801
-305.346
-284.4
-249.621
-205.089
-156.3
-107.714
-62.615
-22.8
10.934
37.309
54.757
63.758
66.416
65.011
62.144
59.339
56.963
55.936
57.591
62.247
69.464
78.293
87.061
94.883
101.787
107.566
111.977
115.055
116.87
117.847
118.84
120.295
122.289
124.89
128.014
131.593
135.666
140.128
144.777
149.492
154.171
158.744
163.203
167.493
171.545
175.331
178.816
181.991
184.878
187.488
189.851
192.007
193.981
195.793
197.464
199.004
200.433
201.776
203.049
204.275
205.469
206.649
207.834
209.039
210.271
211.531
212.815
214.115
215.431
216.763
218.109
219.47
220.842
222.22
223.602
224.984
226.358
227.713
229.036
230.312
231.529
232.674
233.734
234.695
235.542
236.263
236.844
237.271
237.532
237.613
237.501
237.182
236.647
235.884
234.884
233.639
232.139
230.377
228.349
226.05
223.478
220.629
217.504
214.105
210.435
206.498
202.302
197.853
193.162
188.239
183.098
177.753
172.22
166.516
160.661
154.674
148.577
142.391
136.14
129.847
123.536
117.23
110.954
104.732
98.589
92.55
86.639
80.881
75.299
69.916
64.756
59.841
55.19
50.82
46.748
42.988
39.553
36.453
33.695
31.287
29.234
27.538
26.201
25.221
24.591
24.304
24.348
24.71
25.373
26.319
27.527
28.974
30.636
32.489
34.508
36.665
38.928
41.265
43.647
46.037
48.392
50.67
52.826
54.822
56.63
58.213
59.527
60.55
61.283
61.723
61.877
61.726
61.212
60.31
59.049
57.39
55.242
52.532
49.188
45.209
40.724
35.791
30.309
24.415
18.569
12.876
7.198
1.609
-4.341
-9.765
-11.819
-11
-9.851
-12.475
-26.757
-52.3
-80.981
-104.778
-112.321
-102.597
-86.301
-71.723
-67.747
-76.066
-88.594
-100.252
-107.605
-109.561
-109.49
-109.096
-108.511
-108.047
-107.307
-106.309
-105.683
-105.61
-105.937
-106.344
-106.229
-105.1
-102.684
-98.636
-92.747
-85.241
-76.623
-67.936
-60.835
-56.666
-56.545
-61.572
-71.818
-86.307
-103.267
-119.394
-130.746
-133.925
-124.871
-101.139
-62.187
-6.569
63.92
148.489
246.394
347.954
443.688
521.551
569.18
588.11
581.267
551.781
504.933
438.286
352.076
251.665
141.568
29.48
-77.719
-175.354
-257.237
-319.387
-360.881
-382.309
-386.223
-375.891
-354.223
-325.264
-294.485
-265.871
-241.644
-222.894
-209.152
-199.674
-194.002
-190.651
-187.302
-182.628
-176.097
-167.689
-158.183
-148.195
-138.052
-128.493
-120.448
-114.419
-110.601
-108.873
-108.783
-109.997
-112.265
-115.251
-118.6
-121.946
-124.998
-127.612
-129.736
-131.338
-132.385
-132.827
-132.638
-131.857
-130.548
-128.78
-126.619
-124.11
-121.318
-118.327
-115.23
-112.134
-109.115
-106.212
-103.449
-100.839
-98.384
-96.091
-93.952
-91.934
-90.008
-88.154
-86.357
-84.612
-82.906
-81.22
-79.53
-77.817
-76.069
-74.279
-72.445
-70.561
-68.627
-66.647
-64.629
-62.587
-60.53
-58.463
-56.392
-54.321
-52.256
-50.204
-48.171
-46.161
-44.181
-42.24
-40.347
-38.512
-36.745
-35.052
-33.442
-31.921
-30.497
-29.175
-27.961
-26.859
-25.874
-25.011
-24.273
-23.668
-23.197
-22.867
-22.683
-22.646
-22.756
-23.016
-23.425
-23.985
-24.701
-25.568
-26.576
-27.741
-29.071
-30.573
-32.258
-34.112
-36.104
-38.249
-40.562
-42.985
-45.471
-47.983
-50.464
-52.942
-55.485
-58.039
-60.515
-63.106
-66.035
-69.149
-72.447
-75.96
-79.162
-83.411
-90.031
-97.091
-103.994
-107.209
-102.513
-94.543
-86.384
-82.636
-89.625
-101.722
-114.153
-123.642
-124.786
-121.421
-117.438
-113.689
-112.545
-112.617
-112.124
-111.4
-110.214
-108.684
-107.168
-105.434
-103.295
-100.817
-98.018
-94.883
-91.427
-87.678
-83.658
-79.42
-75.028
-70.489
-65.813
-61.035
-56.181
-51.276
-46.352
-41.427
-36.522
-31.662
-26.872
-22.177
-17.605
-13.185
-8.941
-4.897
-1.069
2.527
5.878
8.966
11.783
14.332
16.61
18.608
20.308
21.673
22.681
23.338
23.652
23.641
23.322
22.705
21.835
20.791
19.658
18.524
17.441
16.406
15.439
14.587
13.908
13.502
13.403
13.552
13.931
14.538
15.382
16.504
17.813
19.056
19.977
20.325
19.905
18.695
16.61
13.435
9.15
3.854
-2.123
-8.058
-13.366
-17.791
-21.118
-23.181
-24.195
-24.453
-24.444
-25.32
-28.12
-33.544
-42.036
-53.366
-66.079
-78.094
-87.454
-91.554
-87.668
-73.269
-45.796
-3.777
51.777
118.294
193.232
272.822
352.423
427.133
490.315
535.246
558.146
556.381
528.622
477.533
404.699
311.107
199.197
69.214
-71.904
-209.569
-328.687
-413.158
-459.254
-476.487
-475.014
-467.54
-459.489
-447.537
-432.433
-414.797
-395.9
-380.431
-369.569
-361.928
-356.54
-351.079
-342.908
-331.161
-315.623
-296.436
-274.626
-251.275
-227.177
-203.349
-181.002
-160.806
-143.081
-127.993
-115.346
-105.028
-97.121
-91.543
-88.068
-86.485
-86.477
-87.653
-89.757
-92.488
-95.46
-98.414
-101.123
-103.411
-105.252
-106.623
-107.454
-107.659
-107.098
-105.657
-103.321
-100.108
-96.07
-91.33
-86.003
-80.244
-74.287
-68.293
-62.365
-56.574
-50.906
-45.347
-39.919
-34.644
-29.549
-24.664
-19.986
-15.515
-11.257
-7.191
-3.278
0.546
4.389
8.325
12.393
16.617
20.996
25.523
30.2
35.018
39.948
44.974
50.078
55.249
60.485
65.774
71.092
76.409
81.684
86.885
91.983
96.95
101.762
106.395
110.827
115.044
119.039
122.801
126.316
129.569
132.544
135.228
137.611
139.682
141.43
142.847
143.928
144.671
145.079
145.154
144.898
144.319
143.421
142.215
140.709
138.914
136.841
134.503
131.912
129.086
126.041
122.796
119.37
115.782
112.052
108.201
104.25
100.218
96.126
91.992
87.835
83.676
79.536
75.435
71.392
67.427
63.56
59.81
56.194
52.731
49.433
46.315
43.39
40.668
38.163
35.885
33.842
32.044
30.499
29.215
28.198
27.453
26.982
26.785
26.861
27.208
27.825
28.706
29.846
31.237
32.872
34.745
36.846
39.165
41.688
44.4
47.285
50.324
53.497
56.778
60.143
63.57
67.036
70.52
74
77.456
80.871
84.229
87.518
90.716
93.798
96.741
99.523
102.127
104.541
106.749
108.733
110.479
111.982
113.251
114.287
115.083
115.612
115.839
115.746
115.343
114.651
113.686
112.46
110.999
109.356
107.631
105.93
104.32
102.819
101.424
100.141
99.008
98.099
97.469
97.113
97
97.091
97.385
97.882
98.54
99.242
99.735
99.745
99.078
97.608
95.293
92.172
88.19
83.206
77.305
70.734
63.965
57.738
52.407
47.946
44.446
42.079
41.053
41.713
43.562
45.161
45.741
45.171
43.84
42.98
43.451
45.359
49.989
60.003
77.632
104.874
142.265
187.991
240.322
298.243
359.7
421.172
478.253
525.344
558.006
574.458
573.309
552.918
511.968
450.336
370.318
276.96
175.836
71.362
-32.131
-129.846
-216.112
-285.502
-335.137
-365.015
-376.709
-372.115
-353.51
-323.972
-288.046
-250.852
-215.973
-185.23
-159.259
-138.125
-121.667
-109.301
-99.511
-90.287
-80.386
-69.38
-57.368
-44.786
-32.021
-19.436
-7.682
2.428
10.499
16.515
20.693
23.455
25.152
26.038
26.474
26.892
27.572
28.67
30.245
32.238
34.639
37.482
40.743
44.362
48.263
52.353
56.556
60.821
65.065
69.194
73.109
76.702
79.91
82.709
85.084
87.038
88.58
89.717
90.475
90.898
91.022
90.877
90.486
89.869
89.053
88.073
86.962
85.746
84.449
83.087
81.673
80.222
78.741
77.235
75.704
74.146
72.56
70.95
69.317
67.661
65.981
64.273
62.534
60.761
58.946
57.081
55.155
53.158
51.08
48.911
46.64
44.259
41.758
39.128
36.363
33.456
30.4
27.19
23.82
20.287
16.588
12.72
8.684
4.478
0.103
-4.438
-9.142
-14.003
-19.017
-24.175
-29.471
-34.893
-40.431
-46.072
-51.802
-57.606
-63.468
-69.37
-75.293
-81.217
-87.122
-92.99
-98.799
-104.53
-110.164
-115.682
-121.066
-126.3
-131.364
-136.244
-140.922
-145.384
-149.615
-153.598
-157.321
-160.771
-163.936
-166.806
-169.37
-171.622
-173.553
-175.158
-176.432
-177.374
-177.981
-178.253
-178.192
-177.803
-177.091
-176.062
-174.725
-173.09
-171.169
-168.975
-166.52
-163.819
-160.885
-157.734
-154.38
-150.842
-147.137
-143.282
-139.296
-135.201
-131.021
-126.783
-122.515
-118.242
-113.991
-109.789
-105.663
-101.638
-97.733
-93.966
-90.354
-86.914
-83.667
-80.634
-77.833
-75.282
-72.996
-70.987
-69.263
-67.834
-66.701
-65.858
-65.307
-65.046
-65.086
-65.457
-66.176
-67.248
-68.668
-70.414
-72.451
-74.744
-77.234
-79.844
-82.503
-85.136
-87.676
-90.082
-92.304
-94.3
-96.022
-97.378
-98.298
-98.759
-98.77
-98.388
-97.708
-96.806
-95.79
-94.828
-94.078
-93.712
-93.922
-94.856
-96.682
-99.529
-103.499
-108.744
-115.324
-123.154
-131.881
-140.811
-149.148
-156.22
-161.556
-164.865
-166.043
-164.909
-162.043
-159.007
-157.115
-157.903
-160.782
-162.064
-160.7
-157.321
-154.059
-156.787
-161.922
-157.158
-131.398
-71.65
21.3
131.624
245.887
349.685
435.498
505.837
560.018
596.736
614.694
609.967
580.772
527.291
451.135
356.729
249.749
135.821
19.621
-95.03
-203.814
-301.634
-384.04
-448.683
-495.53
-525.922
-541.184
-542.766
-532.978
-515.546
-494.751
-473.426
-452.728
-432.871
-413.816
-395.557
-377.875
-359.604
-338.979
-315.16
-288.291
-259.123
-228.757
-198.088
-167.815
-138.915
-112.614
-89.784
-70.891
-56.04
-44.985
-37.488
-33.355
-32.286
-33.873
-37.654
-43.1
-49.687
-56.974
-64.523
-71.951
-78.939
-85.159
-90.325
-94.237
-96.764
-97.843
-97.47
-95.665
-92.47
-87.985
-82.357
-75.796
-68.549
-60.86
-52.98
-45.103
-37.377
-29.938
-22.9
-16.339
-10.297
-4.788
0.208
4.706
8.721
12.283
15.436
18.247
20.8
23.182
25.49
27.794
30.143
32.574
35.114
37.772
40.552
43.442
46.414
49.451
52.542
55.674
58.837
62.014
65.181
68.315
71.388
74.378
77.261
80.02
82.635
85.092
87.377
89.481
91.395
93.111
94.616
95.895
96.934
97.72
98.241
98.486
98.443
98.105
97.469
96.531
95.295
93.762
91.937
89.828
87.442
84.789
81.881
78.73
75.35
71.758
67.971
64.006
59.884
55.626
51.254
46.79
42.257
37.677
33.074
28.472
23.895
19.366
14.912
10.556
6.322
2.234
-1.682
-5.403
-8.909
-12.179
-15.196
-17.945
-20.411
-22.582
-24.448
-26.004
-27.242
-28.16
-28.754
-29.024
-28.971
-28.6
-27.915
-26.923
-25.631
-24.049
-22.191
-20.067
-17.694
-15.086
-12.258
-9.227
-6.014
-2.638
0.878
4.512
8.24
12.036
15.867
19.705
23.518
27.279
30.958
34.526
37.955
41.222
44.306
47.191
49.855
52.279
54.44
56.321
57.904
59.168
60.095
60.667
60.872
60.71
60.183
59.289
58.022
56.366
54.31
51.852
48.986
45.701
42
37.895
33.438
28.718
23.804
18.741
13.627
8.547
3.557
-1.241
-5.817
-10.199
-14.307
-18.04
-21.578
-25.121
-28.521
-31.862
-35.309
-38.523
-42.981
-50.048
-57.973
-66.312
-71.864
-70.812
-67.692
-65.501
-68.581
-82.915
-103.291
-125.15
-145.189
-157.834
-165.88
-172.222
-177.088
-182.305
-186.251
-187.334
-186.267
-183.365
-179.842
-177.188
-175.967
-176.526
-178.844
-181.595
-182.823
-180.898
-173.657
-158.825
-134.366
-98.037
-48.781
11.753
80.514
154.569
230.457
304.531
372.449
428.134
466.201
484.377
482.217
459.664
417.023
354.398
273.334
178.804
76.872
-27.981
-132.158
-232.19
-324.224
-403.056
-464.309
-507.059
-532.443
-541.717
-536.426
-518.4
-490.29
-456.674
-422.282
-389.787
-360.377
-334.635
-312.672
-294.527
-279.856
-267.139
-254.576
-241.277
-227.059
-212.19
-197.179
-182.379
-168.096
-154.953
-143.664
-134.537
-127.542
-122.397
-118.66
-115.98
-114.088
-112.628
-111.177
-109.451
-107.284
-104.61
-101.467
-97.855
-93.744
-89.159
-84.167
-78.848
-73.294
-67.585
-61.777
-55.956
-50.218
-44.662
-39.393
-34.474
-29.926
-25.761
-21.968
-18.532
-15.433
-12.632
-10.067
-7.692
-5.462
-3.34
-1.294
0.716
2.736
4.808
6.969
9.252
11.683
14.286
17.075
20.057
23.234
26.608
30.177
33.942
37.891
42.017
46.336
50.871
55.644
60.655
65.864
71.23
76.751
82.398
88.074
93.634
98.942
103.924
108.622
113.088
117.242
121.119
125.065
129.368
134.073
139.078
143.941
149.401
157.747
169.932
184.503
195.734
195.22
179.371
152.375
126.319
115.161
124.986
150.963
179.542
197.641
199.855
189.152
174.273
162.044
154.64
151.082
148.445
145.271
141.751
138.168
134.834
131.667
128.318
124.718
120.943
117.01
112.939
108.782
104.615
100.546
96.658
92.979
89.502
86.238
83.209
80.433
77.923
75.684
73.719
72.035
70.642
69.548
68.755
68.263
68.068
68.165
68.549
69.209
70.133
71.309
72.722
74.354
76.19
78.211
80.397
82.729
85.183
87.737
90.366
93.043
95.74
98.427
101.072
103.643
106.111
108.444
110.613
112.593
114.359
115.891
117.172
118.187
118.92
119.36
119.49
119.292
118.751
117.853
116.588
114.952
112.942
110.56
107.819
104.733
101.315
97.574
93.503
89.1
84.374
79.339
74.02
68.466
62.731
56.884
51.021
45.229
39.592
34.19
29.06
24.221
19.692
15.499
11.686
8.306
5.367
2.85
0.746
-0.994
-2.445
-3.704
-4.965
-6.413
-8.172
-10.375
-13.108
-16.408
-20.349
-24.995
-30.295
-36.246
-42.881
-50.004
-57.336
-64.437
-70.466
-74.631
-76.517
-75.737
-71.956
-65.346
-56.258
-45.527
-35.092
-26.719
-20.983
-17.836
-16.597
-15.717
-13.805
-8.938
2.72
24.978
59.854
107.897
167.666
236.07
310.492
387.913
462.707
528.426
579.346
610.517
619.811
607.306
572.048
514.783
438.564
345.671
241.242
128.185
7.247
-113.425
-226.358
-321.616
-388.487
-430.234
-451.813
-458.309
-456.905
-445.879
-424.349
-395.798
-362.613
-329.274
-298.96
-271.76
-247.895
-227.167
-208.854
-191.905
-174.823
-156.715
-137.449
-117.387
-97.158
-77.234
-58.035
-40.308
-24.936
-12.467
-3.13
3.191
6.864
8.204
7.556
5.417
2.413
-0.9
-4.138
-7.083
-9.652
-11.756
-13.287
-14.149
-14.287
-13.66
-12.191
-9.826
-6.531
-2.335
2.645
8.223
14.156
20.22
26.256
32.158
37.869
43.361
48.622
53.656
58.496
63.16
67.628
71.879
75.89
79.666
83.25
86.712
90.139
93.614
97.206
100.964
104.918
109.082
113.453
118.014
122.733
127.583
132.551
137.627
142.805
148.072
153.407
158.783
164.166
169.525
174.819
180.014
185.072
189.963
194.659
199.138
203.382
207.371
211.086
214.509
217.62
220.398
222.827
224.89
226.573
227.863
228.754
229.24
229.321
228.998
228.274
227.158
225.656
223.782
221.55
218.975
216.077
212.876
209.394
205.657
201.691
197.523
193.184
188.703
184.112
179.442
174.726
169.997
165.287
160.626
156.046
151.576
147.244
143.078
139.103
135.344
131.824
128.562
125.578
122.888
120.506
118.444
116.713
115.32
114.271
113.568
113.213
113.202
113.531
114.194
115.181
116.484
118.087
119.977
122.137
124.55
127.197
130.057
133.106
136.32
139.674
143.141
146.694
150.308
153.956
157.609
161.245
164.838
168.363
171.796
175.111
178.283
181.285
184.093
186.678
189.015
191.081
192.853
194.315
195.449
196.244
196.689
196.777
196.503
195.867
194.869
193.507
191.784
189.704
187.276
184.514
181.43
178.03
174.324
170.33
166.063
161.542
156.774
151.753
146.477
140.961
135.219
129.276
123.16
116.894
110.517
104.107
97.758
91.571
85.643
80.02
74.736
69.843
65.395
61.457
58.072
55.22
52.883
51.098
49.876
49.188
48.947
48.895
48.729
48.213
47.04
44.9
41.721
37.534
32.551
27.293
22.165
17.392
13.417
10.642
8.913
7.721
5.921
1.863
-5.252
-15.496
-29.026
-45.96
-65.761
-87.036
-106.742
-120.637
-125.88
-120.966
-104.701
-75.846
-33.235
23.157
90.782
164.865
241.27
316.94
389.219
454.832
509.15
547.742
568.084
569.891
553.287
517.832
462.56
387.577
295.673
191.281
79.055
-37.116
-153.498
-265.412
-366.799
-451.918
-517.631
-563.252
-589.644
-598.13
-590.457
-569.57
-540.271
-508.015
-476.599
-448.013
-422.987
-401.658
-384.013
-369.555
-356.666
-343.13
-327.697
-310.049
-290.491
-269.79
-248.567
-227.366
-207.078
-188.788
-173.17
-160.545
-150.987
-144.257
-140.124
-138.373
-138.64
-140.474
-143.422
-147.107
-151.207
-155.436
-159.571
-163.418
-166.845
-169.778
-172.157
-173.878
-174.807
-174.858
-173.991
-172.232
-169.644
-166.297
-162.311
-157.833
-153.048
-148.175
-143.363
-138.697
-134.22
-129.945
-125.881
-122.07
-118.555
-115.339
-112.419
-109.784
-107.413
-105.299
-103.405
-101.666
-99.985
-98.256
-96.402
-94.38
-92.168
-89.75
-87.118
-84.262
-81.183
-77.905
-74.445
-70.812
-67.017
-63.062
-58.961
-54.744
-50.447
-46.108
-41.761
-37.436
-33.163
-28.971
-24.889
-20.941
-17.146
-13.519
-10.078
-6.846
-3.847
-1.103
1.364
3.535
5.389
6.907
8.074
8.877
9.307
9.359
9.029
8.316
7.223
5.753
3.917
1.723
-0.815
-3.681
-6.859
-10.328
-14.065
-18.046
-22.243
-26.628
-31.173
-35.845
-40.612
-45.442
-50.304
-55.166
-59.993
-64.755
-69.418
-73.95
-78.32
-82.497
-86.451
-90.15
-93.567
-96.675
-99.45
-101.872
-103.921
-105.581
-106.838
-107.683
-108.11
-108.116
-107.697
-106.851
-105.581
-103.892
-101.794
-99.303
-96.426
-93.173
-89.577
-85.671
-81.488
-77.067
-72.423
-67.562
-62.531
-57.384
-52.105
-46.693
-41.155
-35.483
-29.749
-24.067
-18.435
-12.825
-7.466
-2.621
1.806
5.765
9.181
12.505
14.417
13.64
11.956
9.892
10.743
18.447
28.608
38.298
43.161
37.225
25.777
13.299
2.874
-0.401
-0.127
0.046
-0.68
-4.548
-10.255
-16.108
-22.399
-28.873
-35.582
-42.812
-50.27
-57.68
-65.006
-72.165
-79.054
-85.644
-91.926
-97.873
-103.466
-108.657
-113.358
-117.526
-121.179
-124.334
-127.008
-129.233
-131.066
-132.627
-134.072
-135.544
-137.154
-138.992
-141.135
-143.631
-146.596
-150.223
-154.598
-159.694
-165.179
-170.383
-174.676
-177.531
-178.399
-176.754
-172.117
-164.399
-154.677
-144.946
-137.261
-132.329
-129.038
-126.204
-124.189
-127.312
-140.856
-165.048
-192.315
-205.349
-186.116
-126.276
-30.27
84.498
199.334
302.829
390.737
465.015
525.816
569.151
590.223
583.934
548
483.106
391.888
279.508
152.616
18.636
-115.649
-244.096
-360.447
-458.939
-535.177
-587.145
-615.643
-623.501
-613.836
-590.404
-558.03
-521.747
-486.37
-455.138
-429.211
-408.603
-392.954
-381.393
-372.475
-364.405
-355.26
-344.067
-330.878
-316.113
-300.403
-284.367
-268.604
-253.897
-241.076
-230.513
-222.151
-215.724
-210.803
-207.041
-204.175
-201.853
-199.653
-197.207
-194.279
-190.766
-186.659
-181.961
-176.642
-170.691
-164.149
-157.106
-149.667
-141.93
-133.974
-125.866
-117.698
-109.574
-101.611
-93.927
-86.598
-79.663
-73.146
-67.052
-61.383
-56.134
-51.274
-46.753
-42.529
-38.568
-34.84
-31.325
-27.992
-24.801
-21.72
-18.714
-15.759
-12.834
-9.921
-7.003
-4.068
-1.111
1.874
4.884
7.922
10.99
14.091
17.227
20.399
23.603
26.838
30.099
33.382
36.676
39.971
43.255
46.516
49.741
52.917
56.028
59.06
61.999
64.828
67.535
70.103
72.518
74.767
76.836
78.715
80.391
81.856
83.099
84.115
84.896
85.438
85.738
85.792
85.601
85.166
84.489
83.576
82.432
81.066
79.485
77.701
75.727
73.575
71.261
68.801
66.213
63.516
60.73
57.876
54.974
52.047
49.116
46.202
43.326
40.509
37.772
35.132
32.61
30.224
27.993
25.933
24.061
22.394
20.945
19.729
18.757
18.039
17.584
17.397
17.485
17.853
18.503
19.437
20.655
22.156
23.938
25.996
28.325
30.914
33.751
36.824
40.12
43.623
47.319
51.19
55.219
59.389
63.685
68.088
72.579
77.135
81.734
86.352
90.963
95.539
100.055
104.484
108.802
112.988
117.02
120.881
124.553
128.023
131.275
134.295
137.067
139.574
141.802
143.742
145.386
146.728
147.761
148.478
148.877
148.967
148.748
148.22
147.371
146.172
144.618
142.715
140.472
137.904
135.024
131.843
128.409
124.806
121.124
117.451
113.839
110.287
106.821
103.474
100.3
97.361
94.651
92.117
89.74
87.545
85.578
83.853
82.247
80.482
78.272
75.354
71.576
66.869
61.079
54.158
46.224
37.546
28.667
20.195
12.461
5.568
-0.373
-5.674
-10.882
-16.434
-23.044
-31.425
-41.912
-54.618
-69.476
-85.249
-99.687
-110.766
-116.45
-114.769
-104.249
-83.262
-50.04
-5.003
49.081
109.284
172.342
234.845
294.166
346.148
384.926
407.33
412.51
401.298
377.138
340.409
288.784
220.23
131.807
28.028
-80.558
-183.135
-265.929
-325.639
-368.882
-401.284
-431.985
-462.518
-484.788
-494.504
-488.941
-469.064
-442.058
-412.98
-383.71
-355.763
-329.57
-305.586
-284.84
-267.317
-251.693
-236.541
-221.139
-205.292
-189.185
-173.112
-157.221
-141.758
-127.28
-114.476
-103.714
-94.941
-87.849
-82.019
-77.057
-72.709
-68.815
-65.044
-61.04
-56.814
-52.688
-48.716
-44.818
-41.096
-36.895
-32.875
-31.932
-33.575
-35.358
-33.811
-19.922
7.196
37.775
63.467
69.685
51.273
23.375
-2.799
-13.83
-1.52
20.62
42.938
58.86
61.801
58.956
55.87
53.378
54.119
56.215
57.719
59.431
61.261
63.273
65.864
68.81
71.895
75.157
78.561
81.998
85.44
88.923
92.45
96.034
99.7
103.407
107.117
110.823
114.499
118.11
121.63
125.022
128.252
131.294
134.122
136.705
139.02
141.039
142.738
144.096
145.091
145.705
145.924
145.734
145.125
144.09
142.624
140.727
138.4
135.648
132.481
128.908
124.942
120.601
115.903
110.87
105.526
99.895
94.007
87.89
81.578
75.103
68.499
61.804
55.053
48.283
41.532
34.836
28.232
21.755
15.439
9.318
3.424
-2.214
-7.567
-12.609
-17.316
-21.666
-25.64
-29.22
-32.394
-35.148
-37.473
-39.361
-40.808
-41.814
-42.38
-42.508
-42.206
-41.48
-40.342
-38.805
-36.882
-34.589
-31.944
-28.966
-25.678
-22.105
-18.272
-14.207
-9.936
-5.49
-0.899
3.808
8.6
13.448
18.326
23.204
28.053
32.845
37.552
42.147
46.603
50.889
54.976
58.839
62.453
65.798
68.856
71.614
74.059
76.185
77.987
79.458
80.589
81.376
81.812
81.897
81.636
81.034
80.105
78.867
77.335
75.536
73.5
71.239
68.761
66.062
63.13
59.978
56.625
53.081
49.369
45.518
41.569
37.6
33.687
29.876
26.197
22.662
19.272
16.068
13.102
10.413
8.058
6.056
4.426
3.219
2.476
2.219
2.383
2.796
3.263
3.615
3.731
3.562
2.997
1.802
-0.065
-2.46
-5.02
-7.048
-8.039
-7.769
-5.899
-2.211
3.118
9.636
16.022
20.139
20.274
15.116
3.725
-13.628
-35.703
-60.472
-84.169
-102.096
-109.844
-103.104
-78.783
-36.043
24.152
99.045
183.759
272.427
358.338
433.825
492.152
528.215
538.733
522.521
479.74
411.678
321.882
216.061
100.608
-17.72
-132.83
-239.576
-332.501
-406.871
-460.438
-493.153
-506.627
-503.913
-488.225
-462.97
-432.8
-402.186
-373.881
-349.321
-328.697
-311.299
-296.462
-283.268
-270.029
-255.19
-238.124
-218.906
-198.17
-176.631
-154.838
-133.5
-113.273
-94.593
-77.958
-63.622
-51.433
-41.962
-34.462
-25.955
-16.838
-9.205
-6.152
-16.404
-40.427
-68.185
-91.239
-95.009
-74.217
-43.643
-14.47
0.313
-7.187
-24.551
-41.009
-48.616
-42.911
-30.998
-22.646
-26.016
-38.818
-53.355
-58.711
-40.517
-4.111
36.636
69.193
75.741
58.63
33.865
11.851
5.071
14.572
29.455
44.252
55.025
60.53
64.929
69.886
75.07
80.696
86.218
91.419
96.791
102.482
108.375
114.484
120.849
127.423
134.146
140.947
147.699
154.314
160.787
167.097
173.18
178.972
184.415
189.449
194.06
198.274
202.066
205.369
208.197
210.623
212.701
214.501
216.014
217.105
217.739
218.045
217.873
216.757
214.632
211.638
207.728
203.462
197.799
187.844
174.471
160.303
149.989
151.926
165.049
181.149
191.842
185.236
161.419
131.547
104.196
88.877
86.64
89.167
91.568
90.277
84.521
77.765
71.445
65.512
60.089
54.672
49.196
44.14
39.644
35.65
32.186
29.284
26.935
25.126
23.815
22.924
22.429
22.364
22.731
23.52
24.72
26.315
28.295
30.655
33.381
36.448
39.834
43.512
47.457
51.645
56.049
60.641
65.393
70.276
75.263
80.325
85.437
90.57
95.693
100.775
105.787
110.696
115.469
120.072
124.468
128.628
132.523
136.126
139.413
142.362
144.953
147.173
149.01
150.448
151.469
152.054
152.188
151.865
151.082
149.838
148.135
145.978
143.383
140.374
136.975
133.199
129.041
124.485
119.527
114.186
108.498
102.494
96.211
89.695
83.02
76.292
69.621
63.079
56.702
50.502
44.499
38.742
33.316
28.292
23.705
19.564
15.854
12.585
9.767
7.35
5.226
3.218
1.124
-1.179
-3.697
-6.45
-9.473
-12.824
-16.655
-21.001
-25.679
-30.378
-34.844
-38.804
-41.671
-43.018
-42.567
-39.734
-35.627
-31.944
-28.359
-25.946
-23.243
-15.856
-4.861
8.976
21.303
21.395
7.329
-16.311
-37.23
-33.193
9.703
92.423
204.561
323.8
430.131
512.707
567.754
599.305
611.479
604.501
576.575
524.031
446.313
347.718
235.272
116.785
-1.495
-114.863
-218.692
-307.519
-376.757
-424.425
-451.378
-460.39
-454.562
-437
-411.014
-380.557
-349.879
-322.247
-298.809
-279.063
-261.923
-245.503
-229.812
-216.962
-205.769
-193.762
-177.199
-149.476
-113.476
-79.096
-55.449
-53.679
-73.095
-102.549
-133.391
-156.001
-167.888
-174.848
-180.084
-186.536
-195.579
-204.684
-212.801
-220.144
-226.744
-233.441
-240.561
-247.415
-253.265
-257.674
-260.391
-261.404
-260.948
-259.194
-256.351
-252.831
-248.965
-244.959
-240.958
-236.977
-232.973
-228.954
-224.937
-220.937
-217.008
-213.173
-209.437
-205.834
-202.367
-199.003
-195.684
-192.289
-188.702
-184.875
-180.823
-176.518
-171.886
-166.874
-161.437
-155.608
-149.518
-143.211
-136.582
-129.759
-123.186
-116.98
-111.047
-105.483
-99.867
-95.093
-93.832
-95.516
-97.767
-96.592
-84.503
-62.053
-36.774
-16.206
-11.039
-21.861
-38.625
-53.572
-58.293
-51.422
-40.505
-30.15
-23.536
-21.59
-21.239
-21.11
-21.3
-21.7
-22.772
-24.617
-26.814
-29.228
-31.915
-34.85
-37.995
-41.347
-44.904
-48.679
-52.72
-57.021
-61.52
-66.182
-70.979
-75.882
-80.863
-85.889
-90.919
-95.918
-100.86
-105.716
-110.453
-115.042
-119.451
-123.652
-127.619
-131.325
-134.748
-137.862
-140.646
-143.081
-145.149
-146.836
-148.126
-149.002
-149.451
-149.463
-149.033
-148.163
-146.849
-145.079
-142.862
-140.226
-137.199
-133.809
-130.07
-125.955
-121.474
-116.685
-111.583
-106.099
-100.189
-93.803
-86.951
-79.772
-72.33
-64.534
-56.518
-48.74
-41.347
-34.232
-27.484
-20.707
-14.687
-12.147
-12.731
-13.936
-11.904
0.932
24.594
51.308
73.506
80.429
70.677
54.534
39.992
35.468
42.981
54.86
66.216
73.925
76.792
77.927
78.887
79.547
80.041
79.908
78.969
77.639
76.075
74.222
72.116
69.812
67.317
64.669
61.923
59.094
56.245
53.46
50.747
48.118
45.622
43.314
41.293
39.609
38.217
37.098
36.265
35.721
35.508
35.54
35.578
35.407
34.814
33.646
31.905
29.485
26.167
21.923
16.829
11.214
5.813
1.159
-2.476
-4.631
-5.018
-3.717
-0.9
2.61
5.342
6.222
4.281
-1.565
-11.415
-24.279
-38.404
-50.853
-58.322
-58.189
-47.46
-22.847
17.341
72.881
141.563
219.127
301.228
384.297
463.359
532.129
585.184
618.224
628.992
617.549
583.602
527.321
452.431
364.061
266.313
159.568
40.178
-92.113
-228.366
-349.794
-436.587
-479.278
-482.897
-464.21
-439.049
-415.211
-392.356
-364.374
-328.106
-284.793
-237.394
-190.535
-147.751
-110.238
-78.841
-54.18
-35.841
-23.211
-15.773
-12.287
-10.942
-10.592
-10.051
-7.812
-3.455
2.934
11.19
20.343
29.124
37.009
43.656
48.608
51.99
53.981
54.687
54.722
54.803
55.284
56.397
58.275
60.814
64.039
68.083
72.871
78.268
84.119
90.186
96.338
102.529
108.683
114.735
120.63
126.313
131.789
137.12
142.348
147.506
152.582
157.513
162.281
166.897
171.4
175.866
180.342
184.852
189.433
194.124
198.957
203.952
209.097
214.347
219.669
225.039
230.443
235.878
241.329
246.767
252.166
257.501
262.739
267.854
272.807
277.544
282.034
286.248
290.139
293.674
296.818
299.527
301.792
303.616
304.958
305.777
306.108
305.971
305.385
304.39
302.941
300.953
298.473
295.587
292.086
287.729
282.68
276.941
270.484
263.875
255.669
244.462
232.331
219.928
211.045
210.214
212.501
214.631
211.71
196.998
176.542
155.474
137.327
127.907
123.141
118.898
114.293
106.822
98.003
89.77
81.797
74.356
67.351
60.421
53.845
47.843
42.368
37.419
33.032
29.211
25.948
23.236
21.038
19.303
18.04
17.256
16.927
17.037
17.564
18.482
19.767
21.391
23.321
25.514
27.934
30.544
33.297
36.146
39.06
42.006
44.952
47.869
50.707
53.403
55.938
58.293
60.384
62.136
63.487
64.355
64.739
64.678
64.099
62.905
61.262
59.378
57.1
54.431
51.406
47.542
44.144
42.479
40.739
38.38
32.084
17.886
0.22
-17.952
-32.226
-36.554
-36.22
-35.697
-38.047
-48.363
-62.98
-78.178
-93.102
-105.456
-116.519
-127.941
-139.351
-150.887
-162.317
-173.171
-183.572
-193.639
-203.271
-212.409
-221.01
-228.993
-236.302
-242.924
-248.82
-253.917
-258.146
-261.482
-263.976
-265.804
-267.262
-268.639
-270.129
-271.927
-274.248
-277.155
-280.586
-284.317
-287.846
-290.749
-292.823
-293.767
-293.393
-291.947
-289.91
-288.123
-287.613
-288.851
-292.041
-297.681
-305.97
-316.258
-326.951
-335.291
-338.523
-334.904
-322.758
-299.912
-264.278
-214.818
-152.638
-81.134
-3.921
76.002
154.98
228.226
289.81
334.129
358.034
360.685
341.642
300.421
237.704
156.212
61.319
-40.584
-144.367
-245.817
-340.585
-423.807
-491.116
-540.269
-571.771
-587.595
-589.621
-579.78
-560.503
-535.339
-508.243
-481.713
-456.662
-433.141
-411.009
-390.284
-370.879
-351.864
-331.898
-310.437
-287.541
-263.723
-239.773
-216.125
-193.049
-171.188
-151.354
-134.123
-119.918
-108.736
-100.109
-93.88
-90.259
-88.917
-89.094
-90.269
-91.463
-93.408
-99.304
-108.473
-117.703
-121.941
-111.648
-87.012
-57.517
-32.536
-25.445
-37.567
-56.26
-71.824
-73.97
-60.75
-41.867
-23.401
-9.353
-1.112
5.175
11.339
17.25
23.075
28.215
32.479
36.37
40.056
43.487
46.751
49.972
53.217
56.542
59.958
63.414
66.906
70.482
74.149
77.879
81.657
85.477
89.344
93.28
97.286
101.349
105.451
109.572
113.69
117.779
121.811
125.758
129.597
133.306
136.869
140.273
143.503
146.543
149.376
151.982
154.344
156.443
158.26
159.778
160.981
161.859
162.401
162.601
162.452
161.951
161.096
159.888
158.327
156.417
154.163
151.571
148.651
145.414
141.875
138.049
133.955
129.612
125.044
120.273
115.326
110.229
105.007
99.69
94.305
88.882
83.449
78.036
72.67
67.381
62.196
57.142
52.244
47.525
43.005
38.707
34.649
30.849
27.322
24.084
21.146
18.523
16.225
14.259
12.63
11.34
10.39
9.778
9.501
9.552
9.923
10.604
11.584
12.851
14.39
16.183
18.212
20.453
22.885
25.486
28.232
31.098
34.058
37.085
40.16
43.264
46.375
49.471
52.527
55.515
58.417
61.217
63.877
66.358
68.627
70.651
72.425
73.959
75.221
76.177
76.876
77.355
77.643
77.782
77.729
77.407
76.863
76.185
75.173
73.589
71.589
69.174
66.32
63.582
59.568
52.917
45.587
38.163
34.254
38.195
45.25
52.26
54.532
45.626
31.371
16.768
5.244
2.36
4.212
6.816
9.318
9.35
8.361
8.186
8.47
9.409
10.881
12.554
14.654
17.284
20.179
22.986
25.453
27.416
28.764
29.503
29.535
28.636
26.835
24.421
21.874
19.738
18.242
17.161
16.354
16.128
16.862
18.822
21.544
24.018
25.77
27.123
28.927
31.791
35.9
41.32
49.182
61.749
81.035
108.381
143.85
186.801
236.77
293.309
354.677
417.225
476.318
526.836
564.428
585.941
588.433
568.939
525.832
460.08
375.008
276.023
169.41
61.005
-43.223
-136.548
-212.986
-268.925
-303.174
-316.95
-313.161
-295.002
-266.227
-231.899
-197.045
-165.115
-138.135
-116.692
-100.261
-88.198
-79.533
-72.372
-64.741
-55.616
-44.637
-32.048
-18.52
-4.539
9.397
22.47
33.846
43.091
50.111
55.114
58.478
60.47
61.311
61.28
60.717
59.968
59.256
58.673
58.232
57.926
57.783
57.847
58.112
58.516
58.981
59.43
59.807
60.079
60.189
60.069
59.641
58.817
57.552
55.837
53.674
51.079
48.074
44.68
40.938
36.915
32.67
28.254
23.713
19.083
14.409
9.745
5.139
0.637
-3.723
-7.911
-11.898
-15.657
-19.168
-22.415
-25.391
-28.09
-30.51
-32.644
-34.491
-36.05
-37.324
-38.321
-39.05
-39.52
-39.747
-39.749
-39.548
-39.167
-38.63
-37.963
-37.191
-36.343
-35.446
-34.527
-33.613
-32.73
-31.903
-31.16
-30.522
-30.014
-29.655
-29.465
-29.462
-29.661
-30.077
-30.722
-31.604
-32.731
-34.107
-35.734
-37.614
-39.742
-42.113
-44.72
-47.554
-50.603
-53.852
-57.286
-60.887
-64.634
-68.506
-72.48
-76.531
-80.636
-84.77
-88.907
-93.023
-97.094
-101.096
-105.007
-108.806
-112.47
-115.978
-119.312
-122.451
-125.379
-128.078
-130.532
-132.728
-134.652
-136.295
-137.649
-138.709
-139.469
-139.925
-140.078
-139.927
-139.474
-138.723
-137.676
-136.34
-134.722
-132.833
-130.686
-128.295
-125.672
-122.835
-119.798
-116.58
-113.198
-109.668
-106.007
-102.23
-98.356
-94.405
-90.399
-86.358
-82.306
-78.267
-74.27
-70.341
-66.504
-62.779
-59.186
-55.741
-52.461
-49.359
-46.444
-43.727
-41.22
-38.939
-36.899
-35.11
-33.578
-32.308
-31.299
-30.554
-30.074
-29.85
-29.869
-30.125
-30.62
-31.371
-32.405
-33.725
-35.322
-37.181
-39.29
-41.634
-44.19
-46.902
-49.677
-52.433
-55.109
-57.687
-60.171
-62.534
-64.731
-66.694
-68.366
-69.761
-70.904
-71.79
-72.359
-72.534
-72.324
-71.871
-71.428
-71.265
-71.532
-72.244
-73.545
-75.685
-78.731
-82.641
-87.044
-91.121
-94.375
-96.676
-97.499
-96.411
-93.829
-90.107
-86.061
-83.827
-83.009
-82.891
-86.389
-94.007
-108.344
-132.141
-157.391
-177.205
-183.863
-167.826
-132.446
-81.784
-20.081
44.549
112.215
182.674
253.207
321.88
381.516
425.52
450.905
455.641
440.255
405.628
351.221
278.568
191.855
95.788
-4.496
-104.219
-199.916
-287.294
-360.845
-417.275
-455.765
-476.763
-482.247
-474.513
-455.45
-428.422
-398.204
-368.1
-340.05
-315.155
-293.305
-274.414
-258.617
-244.99
-231.773
-217.918
-202.982
-187.018
-170.708
-154.57
-138.947
-124.518
-112.182
-102.559
-95.9
-92.098
-90.69
-91.139
-92.954
-95.628
-98.634
-101.557
-104.128
-106.156
-107.57
-108.348
-108.407
-107.672
-106.072
-103.487
-99.851
-95.197
-89.595
-83.222
-76.335
-69.144
-61.851
-54.633
-47.586
-40.787
-34.286
-28.071
-22.127
-16.455
-11.059
-5.988
-1.294
3.017
6.959
10.58
13.968
17.19
20.308
23.39
26.477
29.599
32.773
35.99
39.223
42.459
45.691
48.921
52.164
55.421
58.689
61.96
65.221
68.458
71.66
74.803
77.865
80.828
83.677
86.402
88.999
91.458
93.771
95.929
97.92
99.736
101.366
102.801
104.028
105.039
105.825
106.381
106.704
106.79
106.637
106.244
105.61
104.738
103.631
102.292
100.725
98.938
96.939
94.739
92.347
89.777
87.043
84.16
81.146
78.019
74.797
71.501
68.15
64.763
61.362
57.967
54.596
51.269
48.004
44.819
41.732
38.759
35.916
33.216
30.674
28.302
26.113
24.118
22.328
20.753
19.4
18.278
17.394
16.753
16.357
16.209
16.308
16.655
17.249
18.087
19.163
20.474
22.013
23.774
25.749
27.928
30.3
32.852
35.573
38.448
41.467
44.614
47.877
51.242
54.695
58.224
61.815
65.452
69.118
72.794
76.459
80.091
83.667
87.168
90.568
93.847
96.988
99.975
102.794
105.433
107.879
110.117
112.135
113.918
115.452
116.726
117.729
118.456
118.903
119.069
118.952
118.561
117.895
116.953
115.728
114.198
112.344
110.173
107.688
104.896
101.821
98.48
94.898
91.141
87.27
83.346
79.437
75.57
71.761
68.051
64.487
61.138
58.062
55.239
52.631
50.237
48.068
46.164
44.518
42.96
41.282
39.285
36.763
33.643
29.819
25.03
19.201
12.457
5.119
-2.093
-8.532
-13.995
-18.154
-20.569
-21.392
-21.009
-20.334
-21.127
-24.581
-31.121
-41.436
-56.004
-74
-93.791
-112.443
-125.834
-131.037
-125.901
-107.619
-73.756
-23.809
41.289
118.44
202.497
289.833
375.63
451.305
510.681
550.334
570.246
578.88
579.065
562.72
520.019
434.438
299.884
131.946
-47.417
-207.209
-321.829
-388.225
-415.371
-422.719
-429.935
-442.057
-454.429
-458.573
-448.903
-427.593
-400.707
-373.558
-347.804
-323.214
-300.168
-278.702
-258.683
-239.74
-220.852
-202.149
-185.238
-170.759
-158
-146.493
-135.989
-126.485
-118.552
-111.983
-105.503
-98.695
-92.118
-86.11
-80.984
-76.816
-73.1
-69.637
-66.782
-64.489
-62.341
-60.064
-57.311
-53.918
-50.07
-45.868
-41.287
-36.405
-31.33
-26.156
-21.042
-16.096
-11.354
-6.89
-2.747
1.06
4.497
7.561
10.27
12.637
14.702
16.529
18.168
19.659
21.041
22.339
23.59
24.838
26.118
27.461
28.887
30.414
32.065
33.86
35.811
37.92
40.184
42.596
45.151
47.847
50.677
53.635
56.711
59.894
63.17
66.53
69.955
73.427
76.924
80.423
83.899
87.33
90.693
93.961
97.111
100.119
102.96
105.614
108.057
110.268
112.227
113.917
115.32
116.424
117.215
117.683
117.821
117.622
117.084
116.206
114.989
113.437
111.556
109.354
106.843
104.035
100.943
97.584
93.975
90.136
86.088
81.854
77.458
72.924
68.28
63.552
58.767
53.952
49.134
44.342
39.602
34.939
30.379
25.946
21.666
17.563
13.659
9.969
6.508
3.293
0.339
-2.335
-4.719
-6.818
-8.619
-10.093
-11.218
-11.97
-12.349
-12.394
-12.113
-11.472
-10.503
-9.296
-7.927
-6.481
-4.98
-3.333
-1.523
0.319
2.285
4.768
7.844
11.367
15.371
19.403
24.226
32.382
43.361
54.749
62.699
59.889
46.548
30.02
17.538
19.423
36.608
59.26
79.776
90.025
88.307
81.906
75.402
71.762
71.879
72.724
72.803
72.162
70.856
69.479
68.103
66.564
65.285
64.354
63.549
63.036
62.145
61.337
63.847
69.412
74.922
76.165
62.901
32.16
-5.793
-38.884
-49.28
-26.631
15.802
59.541
85.582
79.119
48.951
12.74
-16.654
-27.95
-23.385
-13.655
-4.05
1.364
1.909
1.258
0.423
-0.922
-2.622
-5.356
-9.42
-14.31
-19.755
-25.539
-31.042
-35.73
-39.183
-40.816
-40.311
-37.521
-32.2
-25.084
-17.917
-12.408
-10.56
-12.522
-15.613
-18.274
-20.82
-26.207
-38.982
-58.123
-74.346
-72.91
-41.361
25.376
122.033
234.462
351.813
461.842
551.265
613.378
637.832
622.492
576.668
506.51
421.429
327.11
221.25
105.549
-16.63
-140.327
-256.622
-357.949
-439.282
-498.109
-534.872
-551.237
-549.693
-533.307
-505.683
-471.806
-436.546
-402.919
-372.612
-346.124
-323.024
-302.871
-284.86
-267.205
-248.102
-226.745
-203.043
-177.581
-151.33
-124.992
-99.28
-75.206
-53.82
-35.863
-21.651
-11.108
-3.939
0.151
1.456
0.334
-2.728
-7.184
-12.59
-18.55
-24.717
-30.856
-36.71
-42.035
-46.645
-50.328
-52.922
-54.353
-54.575
-53.584
-51.442
-48.216
-44.017
-39.05
-33.506
-27.583
-21.51
-15.418
-9.406
-3.572
2.023
7.312
12.232
16.766
20.927
24.72
28.172
31.302
34.131
36.731
39.179
41.557
43.963
46.446
49.031
51.761
54.66
57.742
61.025
64.484
68.063
71.762
75.588
79.476
83.379
87.244
90.994
94.634
98.204
101.635
104.827
107.948
111.205
114.44
117.652
120.871
123.595
127.142
132.788
138.674
144.226
146.039
140.043
130.721
121.058
115.507
120.191
129.688
139.404
146.192
144.852
139.108
132.733
126.574
122.935
120.491
117.537
114.412
110.911
107.16
103.524
99.791
95.794
91.612
87.274
82.779
78.148
73.414
68.6
63.76
58.951
54.175
49.436
44.757
40.155
35.648
31.257
26.996
22.875
18.913
15.129
11.537
8.154
4.99
2.057
-0.634
-3.075
-5.257
-7.173
-8.817
-10.185
-11.274
-12.081
-12.605
-12.846
-12.808
-12.496
-11.917
-11.079
-9.989
-8.659
-7.1
-5.327
-3.351
-1.186
1.152
3.648
6.283
9.035
11.883
14.805
17.774
20.76
23.732
26.66
29.519
32.281
34.92
37.41
39.729
41.858
43.783
45.485
46.943
48.133
49.03
49.618
49.884
49.817
49.408
48.649
47.541
46.095
44.325
42.238
39.828
37.074
33.964
30.504
26.712
22.616
18.252
13.668
8.929
4.134
-0.619
-5.255
-9.734
-14.045
-18.175
-22.098
-25.767
-29.121
-32.139
-34.817
-37.142
-39.116
-40.779
-42.207
-43.563
-45.061
-46.856
-49.083
-51.832
-55.168
-59.188
-63.916
-69.283
-75.255
-81.811
-88.846
-96.218
-103.509
-109.906
-114.829
-117.958
-118.983
-117.715
-114.003
-107.809
-99.978
-92.306
-86.124
-81.902
-79.325
-77.434
-75.592
-73.123
-67.918
-56.445
-35.389
-2.763
41.185
94.516
155.715
222.953
292.428
358.367
413.758
452.08
469.641
464.771
435.546
380.86
301.728
201.655
87.246
-33.67
-154.891
-270.965
-375.908
-464.321
-531.89
-576.489
-599.32
-603.339
-591.33
-566.601
-533.174
-495.146
-456.749
-420.929
-388.617
-359.858
-334.444
-311.704
-290.702
-270.266
-248.927
-225.995
-201.698
-176.556
-151.32
-126.786
-103.685
-82.922
-65.472
-51.821
-42.036
-35.962
-33.213
-33.403
-36.185
-41.048
-47.38
-54.671
-62.475
-70.403
-78.189
-85.555
-92.191
-97.834
-102.275
-105.364
-107.027
-107.235
-105.984
-103.33
-99.372
-94.254
-88.183
-81.355
-73.973
-66.256
-58.371
-50.446
-42.607
-34.952
-27.549
-20.46
-13.709
-7.286
-1.191
4.594
10.096
15.351
20.414
25.353
30.236
35.142
40.126
45.216
50.431
55.779
61.252
66.841
72.521
78.249
83.993
89.725
95.414
101.033
106.552
111.931
117.13
122.111
126.839
131.284
135.417
139.216
142.661
145.735
148.427
150.732
152.641
154.147
155.241
155.915
156.165
155.989
155.386
154.356
152.903
151.034
148.759
146.093
143.05
139.648
135.905
131.844
127.487
122.858
117.983
112.89
107.604
102.156
96.575
90.891
85.133
79.331
73.515
67.713
61.952
56.26
50.661
45.179
39.839
34.66
29.664
24.869
20.293
15.952
11.862
8.035
4.484
1.219
-1.751
-4.418
-6.779
-8.829
-10.568
-11.996
-13.117
-13.935
-14.455
-14.684
-14.63
-14.304
-13.716
-12.876
-11.797
-10.491
-8.973
-7.258
-5.362
-3.301
-1.091
1.252
3.711
6.269
8.911
11.621
14.384
17.182
19.998
22.811
25.6
28.344
31.017
33.595
36.057
38.38
40.543
42.532
44.331
45.928
47.315
48.479
49.412
50.105
50.544
50.72
50.634
50.286
49.68
48.82
47.702
46.328
44.724
42.89
40.802
38.437
35.748
32.725
29.415
25.834
21.96
17.841
13.584
9.292
5.111
1.118
-2.724
-6.386
-9.727
-12.824
-16.067
-19.506
-22.932
-26.37
-29.398
-32.807
-39.234
-48.204
-57.154
-62.197
-56.003
-38.906
-18.759
-3.257
-3.179
-19.829
-43.395
-66.225
-79.545
-80.918
-77.356
-72.826
-71.176
-74.07
-76.896
-78.145
-75.523
-67.178
-58.032
-50.49
-51.056
-66.766
-95.074
-133.749
-172.299
-198.278
-207.418
-195.229
-165.253
-121.697
-65.431
-0.58
72.888
153.179
236.263
320.489
400.129
468.309
520.263
551.452
560.417
548.552
516.093
462.605
389.271
298.828
195.716
85.805
-26.222
-137.276
-243.302
-339.323
-421.112
-485.327
-530.669
-558.324
-569.447
-564.528
-545.473
-515.162
-476.462
-433.091
-388.07
-342.751
-298.911
-259.01
-224.301
-195.722
-174.38
-159.783
-151.104
-148.027
-149.146
-152.343
-156.369
-159.913
-161.375
-160.3
-156.564
-150.015
-141.505
-132.292
-123.004
-114.174
-106.345
-99.536
-93.739
-88.964
-84.736
-80.423
-75.7
-70.385
-64.436
-58.012
-51.212
-44.078
-36.763
-29.461
-22.313
-15.439
-8.905
-2.688
3.223
8.821
14.107
19.081
23.757
28.178
32.401
36.465
40.397
44.223
47.96
51.633
55.277
58.914
62.562
66.231
69.933
73.678
77.482
81.354
85.298
89.306
93.366
97.469
101.608
105.772
109.952
114.132
118.296
122.427
126.51
130.524
134.446
138.25
141.908
145.393
148.679
151.741
154.552
157.088
159.327
161.247
162.827
164.05
164.898
165.354
165.404
165.038
164.245
163.019
161.354
159.249
156.703
153.722
150.312
146.481
142.241
137.607
132.597
127.231
121.533
115.525
109.236
102.692
95.926
88.969
81.853
74.613
67.281
59.893
52.483
45.084
37.731
30.455
23.287
16.259
9.398
2.734
-3.709
-9.905
-15.833
-21.471
-26.799
-31.801
-36.462
-40.769
-44.712
-48.283
-51.476
-54.29
-56.723
-58.779
-60.464
-61.782
-62.742
-63.353
-63.625
-63.572
-63.206
-62.542
-61.597
-60.388
-58.935
-57.259
-55.381
-53.322
-51.104
-48.748
-46.276
-43.711
-41.074
-38.387
-35.67
-32.949
-30.245
-27.583
-24.984
-22.471
-20.065
-17.791
-15.669
-13.715
-11.945
-10.371
-9.003
-7.853
-6.93
-6.24
-5.789
-5.585
-5.637
-5.956
-6.552
-7.423
-8.569
-9.984
-11.66
-13.59
-15.762
-18.152
-20.743
-23.526
-26.497
-29.67
-33.049
-36.608
-40.316
-44.13
-47.988
-51.834
-55.606
-59.208
-62.57
-65.656
-68.444
-70.954
-73.206
-75.165
-76.782
-77.992
-78.727
-78.97
-78.723
-78.001
-76.892
-75.52
-74.035
-72.665
-71.584
-70.859
-70.534
-70.562
-70.837
-71.349
-72.089
-73.044
-74.27
-75.762
-77.425
-79.138
-80.623
-81.48
-81.331
-79.64
-75.798
-69.497
-60.634
-49.437
-36.555
-22.472
-7.405
8.304
24.226
40.259
56.679
74.463
95.308
120.36
149.856
183.642
221.505
262.93
306.444
349.055
386.18
413.396
427.679
426.834
408.728
371.232
313.483
237.043
146.373
47.162
-55.866
-158.411
-255.667
-342.016
-411.854
-461.507
-490.541
-500.638
-493.303
-470.218
-433.817
-387.643
-337.074
-287.28
-241.05
-199.51
-163.561
-133.788
-110.693
-94.43
-82.913
-73.21
-63.842
-54.231
-44.28
-34.298
-24.092
-13.118
-2.155
7.302
14.54
19.292
21.822
22.881
22.763
21.387
19.119
16.627
14.376
12.739
11.858
11.623
12.1
13.506
15.936
19.384
23.759
28.881
34.548
40.574
46.758
52.908
58.882
64.589
69.976
75.033
79.768
84.196
88.322
92.13
95.596
98.695
101.434
103.848
106.008
108.014
109.954
111.906
113.933
116.082
118.378
120.835
123.444
126.178
129.018
131.955
134.982
138.101
141.305
144.574
147.885
151.211
154.519
157.777
160.947
163.993
166.881
169.58
172.065
174.314
176.305
178.013
179.411
180.472
181.17
181.48
181.376
180.833
179.828
178.343
176.362
173.876
170.875
167.355
163.313
158.752
153.678
148.1
142.03
135.482
128.477
121.036
113.185
104.951
96.365
87.461
78.272
68.837
59.194
49.384
39.446
29.421
19.351
9.276
-0.761
-10.719
-20.558
-30.236
-39.715
-48.954
-57.918
-66.57
-74.876
-82.807
-90.332
-97.426
-104.063
-110.224
-115.889
-121.043
-125.673
-129.771
-133.332
-136.351
-138.831
-140.776
-142.192
-143.087
-143.473
-143.363
-142.77
-141.712
-140.206
-138.271
-135.926
-133.194
-130.098
-126.662
-122.911
-118.871
-114.568
-110.028
-105.276
-100.34
-95.25
-90.031
-84.713
-79.323
-73.892
-68.452
-63.037
-57.679
-52.408
-47.252
-42.241
-37.399
-32.749
-28.309
-24.093
-20.113
-16.384
-12.919
-9.734
-6.846
-4.273
-2.029
-0.126
1.424
2.613
3.439
3.905
4.014
3.768
3.161
2.173
0.79
-0.992
-3.17
-5.726
-8.624
-11.819
-15.249
-18.837
-22.506
-26.184
-29.802
-33.314
-36.684
-39.897
-42.931
-45.737
-48.272
-50.514
-52.463
-54.172
-55.73
-57.218
-58.747
-60.461
-62.491
-65.011
-68.209
-72.232
-77.201
-83.172
-90.122
-98.103
-107.214
-117.375
-128.322
-139.517
-150.155
-159.563
-167.297
-172.942
-176.096
-176.689
-174.921
-171.525
-167.961
-165.612
-165.405
-167.611
-171.769
-176.571
-180.349
-181.034
-175.547
-160.584
-133.097
-91.302
-35.402
32.565
109.667
192.581
276.611
355.904
423.764
474.112
502.989
508.509
489.832
446.426
379.594
292.882
191.771
82.718
-28.489
-137.06
-238.123
-326.248
-397.724
-451.11
-486.725
-506.602
-513.144
-508.545
-496.089
-480.252
-464.258
-449.865
-437.83
-427.559
-418.302
-409.623
-400.233
-388.152
-372.312
-352.414
-328.795
-302.606
-274.834
-246.206
-217.793
-190.747
-165.838
-143.584
-124.169
-107.496
-93.604
-82.519
-74.151
-68.36
-64.889
-63.441
-63.722
-65.375
-68.046
-71.372
-74.944
-78.458
-81.712
-84.528
-86.811
-88.451
-89.257
-89.107
-87.934
-85.689
-82.412
-78.166
-73.01
-67.095
-60.601
-53.717
-46.673
-39.626
-32.648
-25.803
-19.12
-12.622
-6.384
-0.439
5.222
10.597
15.701
20.553
25.149
29.533
33.782
37.978
42.213
46.551
51.014
55.621
60.384
65.3
70.374
75.591
80.916
86.325
91.801
97.328
102.894
108.475
114.035
119.535
124.938
130.206
135.311
140.221
144.905
149.336
153.494
157.359
160.92
164.159
167.058
169.598
171.762
173.537
174.91
175.869
176.406
176.513
176.19
175.438
174.262
172.668
170.666
168.266
165.482
162.331
158.83
154.997
150.854
146.423
141.728
136.796
131.654
126.33
120.854
115.255
109.565
103.815
98.034
92.254
86.502
80.81
75.206
69.718
64.373
59.196
54.211
49.441
44.909
40.634
36.633
32.922
29.514
26.422
23.656
21.221
19.125
17.374
15.971
14.918
14.212
13.846
13.822
14.143
14.787
15.736
16.974
18.476
20.241
22.279
24.555
27.032
29.745
32.711
35.941
39.464
43.223
47.129
51.207
55.513
59.831
63.909
67.867
71.671
75.256
79.098
81.825
82.101
81.79
81.445
84.505
95.09
108.619
122.04
130.808
128.68
121.16
112.912
107.132
109.112
115.07
121.166
126.553
128.895
129.561
130.317
130.837
131.34
131.696
131.53
131.073
130.524
129.834
128.991
128.032
126.979
125.882
124.84
123.893
123.044
122.325
121.745
121.323
121.104
121.138
121.441
122.005
122.817
123.899
125.317
127.114
129.249
131.547
133.717
135.52
136.789
137.442
137.412
136.529
134.742
132.201
129.284
126.622
124.785
124.011
124.333
125.826
128.196
130.967
133.601
134.853
133.467
128.701
120.208
108.4
94.83
81.523
70.679
65.155
67.707
81.245
106.935
144.359
193.413
251.349
318.213
394.147
470.849
541.048
594.601
620.849
623.739
608.148
577.847
538.736
487.293
421.027
343.382
256.893
165.96
74.49
-15.799
-101.833
-178.756
-242.261
-290.449
-322.71
-338.681
-338.198
-320.964
-288.087
-243.778
-193.534
-141.876
-92.59
-48.828
-11.851
18.138
39.083
49.986
49.337
32.451
3.258
-28.629
-54.043
-59.807
-44.303
-18.122
9.936
29.517
37.296
40.12
42.181
45.958
52.176
57.842
61.738
64.632
67.447
71.213
76.041
81.614
87.737
93.95
101.501
111.433
121.793
131.965
138.639
137.951
134.273
130.411
130.615
140.779
155.639
170.764
183.131
187.718
188.137
188.069
188.341
191.182
195.322
199.112
202.867
206.379
209.756
213.328
216.912
220.379
223.787
227.148
230.474
233.776
237.098
240.496
243.906
247.247
250.504
253.675
256.596
259.097
261.253
262.965
264.349
266.081
266.699
264.927
262.587
259.728
260.932
271.402
284.925
298.004
302.965
289.859
268.324
245.74
229.491
230.587
240.129
249.971
256.242
251.652
241.104
229.929
218.621
209.625
201.547
192.401
182.741
172.554
161.913
151.167
140.142
128.689
116.883
104.766
92.318
79.543
66.51
53.279
39.919
26.511
13.082
-0.342
-13.707
-26.965
-40.075
-52.993
-65.679
-78.098
-90.207
-101.961
-113.321
-124.25
-134.71
-144.668
-154.089
-162.943
-171.2
-178.837
-185.829
-192.159
-197.81
-202.767
-207.019
-210.558
-213.379
-215.479
-216.856
-217.514
-217.457
-216.695
-215.242
-213.112
-210.325
-206.901
-202.864
-198.239
-193.055
-187.343
-181.132
-174.456
-167.351
-159.854
-152.007
-143.851
-135.429
-126.789
-117.979
-109.048
-100.045
-91.014
-81.999
-73.043
-64.186
-55.465
-46.911
-38.553
-30.425
-22.564
-15.004
-7.776
-0.905
5.59
11.692
17.387
22.662
27.521
31.973
36.027
39.685
42.931
45.743
48.11
50.047
51.58
52.739
53.548
54.045
54.29
54.375
54.396
54.423
54.479
54.568
54.708
54.943
55.352
56.013
56.95
58.154
59.607
61.32
63.298
65.514
67.875
70.172
72.187
73.779
74.862
75.376
75.284
74.458
72.665
69.938
66.534
62.808
59.32
56.524
54.653
54.047
55.157
57.932
61.908
66.432
70.245
71.846
70.3
65.265
56.573
46.864
39.395
34.597
34.907
40.069
49.005
68.392
101.635
151.668
221.535
302.058
384.549
460.634
518.821
557.084
574.534
569.701
545.056
499.228
430.256
339.776
230.642
107.934
-21.868
-154.189
-286.085
-413.641
-531.69
-635.03
-719.226
-782.376
-825.046
-848.005
-851.578
-836.89
-807.098
-767.104
-722.701
-678.549
-637.273
-600.622
-570.487
-548.785
-535.886
-530.4
-529.511
-530.056
-530.285
-529.494
-526.818
-521.149
-512.076
-500.052
-486.655
-474.144
-463.724
-455.705
-450.303
-447.612
-447.597
-449.976
-453.836
-457.952
-461.593
-464.441
-466.387
-467.467
-467.58
-466.59
-464.491
-461.321
-457.131
-451.952
-445.752
-438.544
-430.437
-421.641
-412.46
-403.156
-393.869
-384.695
-375.702
-366.935
-358.465
-350.317
-342.457
-334.88
-327.619
-320.677
-314
-307.47
-300.949
-294.311
-287.506
-280.56
-273.394
-266.063
-258.988
-252.462
-246.487
-241.035
-235.76
-231.318
-229.973
-232.849
-238.385
-240.459
-230.619
-203.912
-163.647
-124.502
-101.916
-105.539
-134.104
-168.879
-193.047
-196.617
-176.853
-148.292
-122.662
-105.317
-100.256
-100.751
-101.563
-102.059
-100.28
-97.844
-96.316
-94.992
-93.989
-93.244
-92.405
-91.686
-91.286
-91.192
-91.467
-92.183
-93.325
-94.835
-96.678
-98.811
-101.176
-103.768
-106.572
-109.552
-112.684
-115.95
-119.322
-122.782
-126.307
-129.871
-133.445
-137.006
-140.527
-143.984
-147.355
-150.615
-153.742
-156.712
-159.504
-162.098
-164.475
-166.616
-168.507
-170.13
-171.472
-172.521
-173.27
-173.709
-173.833
-173.638
-173.121
-172.278
-171.112
-169.622
-167.81
-165.68
-163.234
-160.479
-157.424
-154.08
-150.459
-146.573
-142.435
-138.062
-133.471
-128.678
-123.7
-118.556
-113.263
-107.843
-102.317
-96.712
-91.051
-85.364
-79.681
-74.03
-68.442
-62.945
-57.562
-52.318
-47.231
-42.321
-37.602
-33.09
-28.802
-24.757
-20.975
-17.472
-14.263
-11.357
-8.758
-6.469
-4.493
-2.827
-1.454
-0.367
0.436
0.949
1.144
1.012
0.565
-0.182
-1.205
-2.478
-3.979
-5.657
-7.425
-9.202
-10.903
-12.48
-13.935
-15.25
-16.374
-17.25
-17.783
-17.936
-17.759
-17.26
-16.419
-15.222
-13.617
-11.685
-9.671
-7.793
-6.27
-5.263
-4.769
-4.911
-5.936
-7.863
-10.584
-13.732
-16.533
-18.488
-19.424
-18.968
-16.88
-13.327
-8.56
-3.488
0.357
2.015
0.766
-4.188
-12.713
-23.695
-35.327
-44.654
-48.459
-44.354
-29.615
-1.494
41.041
97.801
166.951
244.285
326.205
408.398
482.693
543.649
588.693
617.616
638.816
653.104
648.881
615.198
535.938
409.64
259.498
105.268
-31.892
-139.311
-227.565
-301.383
-363.05
-416.716
-454.252
-471.839
-471.297
-452.125
-419.084
-378.417
-333.489
-287.971
-244.82
-204.801
-168.33
-136.147
-108.273
-84.133
-63.486
-45.42
-28.268
-11.509
4.747
20.548
35.486
49.213
61.972
73.377
82.372
88.575
91.939
92.563
91.006
87.692
82.777
76.743
70.321
63.982
58.094
52.926
48.544
45.137
42.927
41.964
42.196
43.549
45.924
49.208
53.278
57.902
62.779
67.697
72.519
77.172
81.623
85.83
89.728
93.279
96.498
99.403
102.006
104.318
106.335
108.094
109.675
111.189
112.759
114.471
116.384
118.534
120.947
123.643
126.627
129.89
133.401
137.135
141.079
145.221
149.555
154.064
158.712
163.452
168.238
173.026
177.775
182.452
187.013
191.405
195.604
199.612
203.429
207.056
210.465
213.585
216.384
218.885
221.027
222.689
223.773
224.174
223.876
223.004
221.582
219.467
216.821
214.15
211.544
208.872
206.216
203.016
200.413
201.542
205.543
209.669
209.045
194.786
168.052
137.676
112.665
105.765
117.027
134.63
149.501
151.593
139.81
123.095
106.747
94.625
87.643
82.168
76.715
71.393
66.118
61.473
57.571
53.938
50.456
47.216
44.21
41.422
38.875
36.59
34.612
33.022
31.836
31.007
30.514
30.352
30.505
30.965
31.714
32.725
33.977
35.456
37.144
39.023
41.074
43.276
45.607
48.05
50.585
53.196
55.867
58.58
61.317
64.061
66.793
69.495
72.147
74.728
77.216
79.594
81.846
83.957
85.916
87.715
89.347
90.813
92.109
93.227
94.162
94.904
95.447
95.791
95.938
95.888
95.649
95.233
94.653
93.937
93.1
92.141
91.052
89.809
88.402
86.847
85.156
83.334
81.407
79.402
77.376
75.426
73.617
71.979
70.52
69.221
68.085
67.157
66.488
66.12
66.072
66.325
66.894
67.825
69.127
70.783
72.638
74.452
76.08
77.413
78.389
79.006
79.114
78.495
77.185
75.308
73.137
71.264
70.06
69.74
70.841
73.701
78.189
84.222
91.141
97.148
100.558
100.131
94.381
84.421
74.264
65.043
57.364
50.907
41.14
32.594
36.886
63.225
122.614
213.066
318.202
423.768
514.187
580.381
624.377
646.9
648.922
631.299
591.724
529.635
447.556
350.225
243.915
134.46
26.217
-77.416
-172.891
-255.649
-321.839
-370.025
-400.636
-415.247
-415.539
-403.105
-380.33
-351.093
-319.66
-288.861
-260.058
-233.722
-210.061
-189.289
-171.31
-155.11
-139.099
-122.366
-104.724
-86.407
-67.943
-49.755
-32.174
-15.884
-1.775
9.638
18.125
23.749
26.907
27.987
27.393
25.722
23.576
21.381
19.437
17.892
16.791
16.22
16.248
16.908
18.224
20.23
23.016
26.656
31.137
36.361
42.131
48.181
54.286
60.291
66.066
71.535
76.653
81.386
85.755
89.807
93.575
97.058
100.214
102.995
105.401
107.465
109.26
110.882
112.406
113.893
115.412
117.01
118.717
120.551
122.497
124.523
126.613
128.762
130.976
133.265
135.629
138.058
140.542
143.064
145.608
148.154
150.672
153.134
155.516
157.798
159.966
162.008
163.909
165.651
167.22
168.598
169.767
170.709
171.404
171.831
171.973
171.816
171.347
170.556
169.434
167.973
166.17
164.023
161.53
158.694
155.516
152.001
148.156
143.987
139.505
134.721
129.647
124.298
118.69
112.844
106.779
100.518
94.082
87.496
80.784
73.971
67.084
60.147
53.189
46.235
39.314
32.456
25.687
19.037
12.531
6.196
0.058
-5.86
-11.535
-16.948
-22.08
-26.914
-31.435
-35.629
-39.484
-42.989
-46.136
-48.917
-51.326
-53.357
-55.01
-56.284
-57.182
-57.711
-57.876
-57.688
-57.156
-56.294
-55.117
-53.64
-51.881
-49.86
-47.596
-45.116
-42.442
-39.604
-36.628
-33.546
-30.39
-27.193
-23.988
-20.803
-17.667
-14.608
-11.649
-8.815
-6.122
-3.588
-1.232
0.925
2.858
4.545
5.966
7.103
7.944
8.478
8.693
8.589
8.174
7.457
6.445
5.137
3.516
1.576
-0.675
-3.216
-6.016
-9.039
-12.236
-15.54
-18.859
-22.096
-25.165
-28.021
-30.652
-33.043
-35.181
-37.034
-38.548
-39.711
-40.531
-41.015
-41.163
-40.997
-40.586
-40.055
-39.615
-39.463
-39.724
-40.498
-41.85
-43.836
-46.475
-49.745
-53.547
-57.768
-62.432
-67.404
-72.377
-77.015
-80.777
-83.302
-84.546
-84.218
-81.678
-76.712
-69.573
-60.753
-51.438
-42.13
-32.139
-21.308
-10.005
1.778
14.398
29.086
48.532
74.343
105.978
143.269
185.879
233.045
284.605
337.01
383.891
421.544
446.807
459.788
463.311
453.499
424.566
369.921
283.274
168.251
35.748
-98.234
-216.507
-307.125
-366.861
-402.393
-422.667
-435.647
-443.743
-442.754
-430.344
-407.033
-377.056
-346.699
-319.01
-294.846
-273.951
-255.237
-238.375
-222.759
-206.757
-189.571
-171.081
-151.423
-131.37
-111.519
-92.198
-74.14
-58.294
-45.254
-35.363
-28.599
-24.607
-23.163
-24
-26.71
-30.779
-35.574
-40.614
-45.642
-50.508
-55.118
-59.37
-63.101
-66.192
-68.587
-70.183
-70.925
-70.787
-69.718
-67.789
-65.137
-61.945
-58.492
-54.997
-51.578
-48.325
-45.279
-42.447
-39.86
-37.52
-35.391
-33.486
-31.814
-30.377
-29.196
-28.247
-27.467
-26.781
-26.078
-25.259
-24.26
-23.033
-21.547
-19.795
-17.771
-15.484
-12.964
-10.227
-7.28
-4.132
-0.784
2.757
6.469
10.327
14.299
18.348
22.439
26.539
30.613
34.632
38.569
42.401
46.108
49.672
53.071
56.282
59.28
62.041
64.541
66.76
68.676
70.272
71.535
72.453
73.018
73.229
73.082
72.579
71.726
70.527
68.991
67.129
64.953
62.479
59.723
56.704
53.441
49.958
46.278
42.428
38.433
34.322
30.122
25.859
21.562
17.257
12.971
8.731
4.563
0.491
-3.458
-7.261
-10.893
-14.334
-17.562
-20.561
-23.315
-25.811
-28.037
-29.985
-31.651
-33.029
-34.117
-34.915
-35.424
-35.645
-35.585
-35.247
-34.639
-33.768
-32.643
-31.276
-29.68
-27.867
-25.851
-23.647
-21.268
-18.73
-16.048
-13.238
-10.313
-7.292
-4.19
-1.024
2.186
5.423
8.665
11.893
15.086
18.227
21.297
24.281
27.165
29.936
32.587
35.111
37.503
39.756
41.861
43.807
45.58
47.17
48.565
49.75
50.717
51.45
51.943
52.201
52.226
52.018
51.567
50.849
49.848
48.565
47.002
45.176
43.106
40.817
38.365
35.838
33.324
30.914
28.661
26.566
24.631
22.858
21.255
19.855
18.665
17.633
16.723
15.91
15.159
14.428
13.581
12.37
10.544
7.882
4.245
-0.386
-6.008
-12.616
-20.17
-28.627
-37.88
-47.727
-57.991
-68.531
-79.186
-89.733
-99.787
-108.778
-116.049
-120.966
-123.182
-122.633
-119.446
-113.961
-106.431
-96.976
-86.005
-73.987
-60.84
-46.039
-28.442
-6.476
20.458
52.041
87.981
127.441
168.889
210.376
248.489
279.017
299.169
307.116
301.275
281.488
248.212
202.192
146.347
84.692
20.43
-43.089
-102.368
-155.344
-200.169
-234.918
-259.59
-275.032
-281.948
-282.055
-277.645
-270.118
-260.884
-251.599
-242.824
-234.777
-227.735
-221.135
-213.986
-205.871
-196.516
-185.635
-173.491
-160.454
-146.793
-133.147
-120.3
-108.695
-98.631
-90.304
-83.61
-78.407
-74.579
-71.865
-69.971
-68.688
-67.775
-67.002
-66.233
-65.321
-64.136
-62.617
-60.688
-58.282
-55.387
-52.009
-48.174
-43.939
-39.358
-34.47
-29.338
-24.026
-18.613
-13.19
-7.82
-2.54
2.62
7.646
12.526
17.248
21.821
26.273
30.623
34.891
39.088
43.218
47.293
51.331
55.346
59.354
63.362
67.367
71.369
75.365
79.347
83.304
87.22
91.074
94.85
98.532
102.107
105.56
108.876
112.04
115.035
117.849
120.466
122.869
125.043
126.971
128.636
130.026
131.126
131.922
132.403
132.556
132.372
131.842
130.957
129.712
128.102
126.123
123.776
121.062
117.986
114.553
110.772
106.653
102.209
97.453
92.403
87.076
81.492
75.671
69.635
63.41
57.017
50.483
43.831
37.088
30.279
23.432
16.571
9.725
2.919
-3.819
-10.464
-16.989
-23.369
-29.581
-35.6
-41.404
-46.974
-52.289
-57.333
-62.09
-66.544
-70.684
-74.498
-77.979
-81.119
-83.913
-86.358
-88.456
-90.207
-91.616
-92.691
-93.438
-93.866
-93.986
-93.809
-93.346
-92.61
-91.613
-90.37
-88.896
-87.208
-85.328
-83.273
-81.064
-78.721
-76.266
-73.72
-71.105
-68.439
-65.741
-63.032
-60.332
-57.663
-55.047
-52.503
-50.053
-47.719
-45.524
-43.486
-41.621
-39.942
-38.459
-37.179
-36.109
-35.251
-34.61
-34.187
-33.987
-34.015
-34.273
-34.765
-35.487
-36.439
-37.615
-39.009
-40.611
-42.409
-44.385
-46.527
-48.833
-51.305
-53.953
-56.774
-59.756
-62.896
-66.184
-69.597
-73.098
-76.61
-80.044
-83.337
-86.445
-89.347
-92.044
-94.52
-96.748
-98.722
-100.425
-101.846
-102.97
-103.722
-104.014
-103.838
-103.267
-102.506
-101.828
-101.436
-101.454
-102.003
-103.204
-105.059
-107.421
-109.928
-112.066
-113.406
-113.751
-113.115
-111.518
-109.296
-107.088
-105.538
-105.471
-107.682
-112.512
-119.929
-129.821
-141.038
-151.47
-159.264
-162.434
-158.902
-147.222
-126.009
-93.741
-51.001
-0.474
55.329
113.585
171.117
225.339
272.536
307.691
328.192
333.857
324.401
300.148
261.629
208.658
143.487
71.107
-4.942
-82.365
-158.331
-230.51
-295.779
-349.587
-389.928
-417.595
-433.011
-436.755
-430.142
-414.24
-391.655
-366.812
-342.462
-319.711
-299.611
-282.552
-268.654
-258.331
-250.847
-244.304
-237.702
-230.706
-223.17
-215.531
-208.087
-200.838
-194.218
-188.929
-185.266
-183.3
-182.871
-183.492
-184.813
-186.587
-188.467
-190.168
-191.477
-192.23
-192.387
-191.979
-191.003
-189.465
-187.389
-184.789
-181.728
-178.279
-174.505
-170.499
-166.353
-162.163
-158.033
-154.028
-150.182
-146.52
-143.04
-139.734
-136.599
-133.617
-130.759
-128.011
-125.356
-122.778
-120.271
-117.815
-115.386
-112.965
-110.527
-108.058
-105.552
-103.003
-100.409
-97.772
-95.094
-92.382
-89.646
-86.894
-84.127
-81.35
-78.567
-75.783
-73.008
-70.25
-67.518
-64.825
-62.182
-59.605
-57.109
-54.711
-52.422
-50.259
-48.233
-46.361
-44.653
-43.123
-41.782
-40.638
-39.701
-38.979
-38.481
-38.21
-38.171
-38.368
-38.802
-39.474
-40.386
-41.535
-42.919
-44.535
-46.377
-48.44
-50.716
-53.196
-55.869
-58.723
-61.747
-64.927
-68.246
-71.69
-75.241
-78.881
-82.593
-86.356
-90.153
-93.963
-97.767
-101.547
-105.285
-108.965
-112.57
-116.085
-119.496
-122.789
-125.952
-128.972
-131.839
-134.54
-137.066
-139.408
-141.557
-143.506
-145.25
-146.785
-148.107
-149.214
-150.105
-150.779
-151.237
-151.479
-151.507
-151.323
-150.932
-150.337
-149.545
-148.564
-147.402
-146.07
-144.577
-142.934
-141.152
-139.24
-137.21
-135.073
-132.839
-130.52
-128.126
-125.673
-123.174
-120.646
-118.109
-115.578
-113.072
-110.607
-108.202
-105.868
-103.62
-101.468
-99.418
-97.479
-95.661
-93.974
-92.433
-91.054
-89.847
-88.825
-87.996
-87.362
-86.929
-86.698
-86.658
-86.803
-87.128
-87.637
-88.352
-89.29
-90.453
-91.835
-93.414
-95.156
-97.033
-99.002
-100.992
-102.935
-104.76
-106.405
-107.855
-109.107
-110.147
-110.945
-111.439
-111.568
-111.33
-110.764
-109.908
-108.808
-107.506
-106.057
-104.61
-103.355
-102.464
-102.101
-102.36
-103.277
-104.888
-107.296
-110.615
-114.816
-119.734
-124.958
-129.906
-134.104
-137.165
-138.714
-138.407
-136.227
-132.223
-126.828
-121.43
-117.243
-115.088
-115.742
-117.605
-118.315
-118.081
-115.536
-111.321
-106.411
-93.607
-68.251
-25.732
38.502
116.529
200.961
284.932
358.242
418.65
464.414
491.974
501.039
489.287
454.076
395.81
316.772
221.554
116.065
6.261
-102.575
-205.562
-297.014
-371.878
-427.5
-463.284
-480.404
-481.452
-469.206
-446.827
-418.929
-390.159
-363.537
-340.832
-322.628
-308.567
-298.257
-290.99
-285.05
-278.569
-270.611
-260.88
-249.633
-237.499
-224.882
-212.178
-200.123
-189.517
-180.781
-173.994
-168.934
-165.194
-162.481
-160.564
-159.156
-157.898
-156.423
-154.483
-151.951
-148.805
-145.056
-140.658
-135.565
-129.772
-123.311
-116.283
-108.827
-101.014
-92.896
-84.599
-76.201
-67.825
-59.674
-51.753
-43.925
-36.18
-28.515
-20.731
-12.733
-4.683
3.602
12.063
19.74
27.858
37.857
47.85
57.813
63.454
57.699
45.611
33
28.841
47.883
84.402
125.077
158.124
166.075
151.55
129.945
111.108
106.973
118.111
134.094
149.811
161.417
167.809
172.848
177.944
182.759
187.461
191.513
194.723
197.556
200.158
202.434
204.415
206.15
207.593
208.697
209.418
209.667
209.415
208.704
207.544
205.931
203.875
201.386
198.479
195.181
191.511
187.483
183.116
178.433
173.458
168.218
162.741
157.059
151.205
145.214
139.121
132.959
126.759
120.561
114.408
108.321
102.322
96.438
90.686
85.111
79.768
74.667
69.816
65.287
61.14
57.425
54.205
51.458
49.128
47.265
45.955
45.012
44.215
43.705
43.473
43.474
44.198
44.319
42.543
40.697
39.329
41.8
52.133
65.847
79.946
89.981
89.842
84.903
79.716
77.391
83.083
93.073
