Name,John Breau
Date of Birth,"Dec 20, 1971"
Recorded Date,2025-04-28 23:10:01 -0500
Classification,Sinus Rhythm
Symptoms,
Software Version,1.90
Device,"Watch6,18"
Sample Rate,512 hertz


Lead,Lead I
Unit,µV

-1182.042
-1439.394
-1594.887
-1639.093
-1601.155
-1518.922
-1418.736
-1312.207
-1194.969
-1062.431
-921.386
-782.197
-655.213
-545.03
-447.098
-356.806
-271.064
-188.443
-108.506
-26.444
62.585
162.341
272.716
384.542
486.381
564.793
609.723
623.2
613.677
594.961
580.467
574.865
577.533
585.34
595.783
609.577
629.364
657.618
695.007
741.329
795.468
855.226
918.628
983.645
1048.314
1110.307
1166.896
1216.216
1255.836
1285.38
1305.325
1311.689
1302.385
1275.577
1229.346
1169.971
1100.868
1021.71
936.49
845.873
757.025
686.657
642.536
628.16
639.514
658.121
672.325
675.835
664.914
648.21
631.664
617.376
608.389
601.098
592.734
583.484
572.299
559.895
546.55
530.662
511.209
487.488
458.945
425.778
389.106
350.489
311.342
273.201
236.005
199.035
163.274
128.772
96.766
68.298
40.503
13.048
-15.578
-47.768
-81.081
-115.942
-149.859
-175.242
-186.943
-177.796
-144.65
-92.267
-27.18
39.693
97.117
138.695
159.32
159.935
146.506
122.737
93.023
58.22
13.992
-41.447
-108.681
-186.977
-271.488
-357.256
-441.656
-522.91
-601.829
-680.77
-758.551
-829.475
-883.942
-912.594
-910.276
-879.95
-831.89
-774.726
-717.805
-668.616
-629.187
-605.245
-598.275
-603.041
-616.366
-632.106
-646.007
-660.329
-675.504
-690.69
-704.967
-715.521
-720.893
-722.126
-721.162
-719.661
-719.009
-720.202
-723.266
-728.21
-735.009
-742.387
-748.4
-751.494
-750.29
-744.258
-734.04
-720.086
-702.915
-684.151
-666.18
-651.595
-642.772
-641.005
-646.639
-660.305
-682.62
-713.176
-750.463
-792.106
-835.665
-879.295
-921.421
-959.729
-991.389
-1014.276
-1027.205
-1030.006
-1022.938
-1006.102
-979.931
-946.118
-907.221
-865.48
-823.017
-781.333
-741.477
-704.894
-672.558
-644.112
-618.684
-595.559
-573.419
-551.222
-528.099
-502.265
-472.276
-437.682
-398.137
-353.329
-303.737
-249.66
-191.557
-131.135
-70.139
-9.995
47.878
102.329
152.676
198.012
237.627
271.932
301.797
328.394
352.847
375.906
398.188
420.522
443.762
468.157
493.409
518.804
543.719
567.899
591.201
613.452
634.346
653.687
671.567
688.266
703.952
718.54
731.759
743.21
752.552
759.524
763.83
765.169
763.297
758.051
749.376
737.317
721.943
703.334
681.552
656.697
628.964
598.606
565.983
531.572
495.749
458.816
421.059
382.576
343.432
303.801
263.648
222.822
181.633
140.636
100.59
62.862
28.8
-0.689
-24.548
-41.695
-53.063
-60.091
-63.201
-64.78
-65.072
-63.71
-66.013
-75.598
-95.84
-130.137
-173.148
-218.712
-261.602
-294.664
-315.355
-321.561
-309.998
-279.578
-228.63
-156.121
-62.81
49.338
176.395
313.25
454.45
595.18
731.123
857.717
970.717
1066.981
1145.036
1205.261
1249.284
1278.731
1295.623
1302.821
1303.381
1300.266
1295.425
1289.349
1281.807
1272.435
1260.574
1245.24
1225.254
1199.258
1166.493
1127
1081.207
1029.805
973.439
912.659
848.313
781.378
712.631
643.008
572.398
500.479
428.565
357.281
288.887
225.733
165.114
105.089
42.421
-26.776
-98.843
-170.405
-238.591
-298.865
-352.33
-400.061
-440.919
-475.203
-502.009
-520.808
-532.955
-539.912
-542.881
-543.13
-541.905
-540.098
-538.027
-535.274
-531.094
-524.763
-516.077
-505.376
-492.998
-479.354
-465.331
-452.541
-442.495
-436.347
-434.709
-437.085
-442.661
-450.597
-459.502
-467.186
-471.454
-470.485
-462.856
-448.333
-427.185
-399.673
-366.641
-329.779
-291.084
-252.244
-214.817
-179.57
-146.846
-117.422
-91.757
-69.582
-50.381
-33.896
-19.857
-8.487
-0.298
5.066
7.948
8.211
5.763
0.601
-7.297
-17.476
-29.253
-42.687
-57.861
-74.574
-92.744
-112.086
-132.254
-153.195
-174.859
-196.792
-218.478
-239.446
-259.217
-277.581
-294.389
-309.637
-323.635
-336.787
-349.594
-362.573
-376.003
-389.966
-404.388
-418.332
-430.162
-438.401
-441.485
-437.923
-426.737
-406.853
-378.16
-343.047
-304.426
-263.945
-220.529
-169.879
-109.412
-42.884
19.305
63.417
80.375
72.94
54.892
45.102
58.698
98.364
154.651
212.946
260.516
293.597
318.155
340.885
364.912
388.786
404.47
409.255
409.212
410.879
424.835
454.117
488.115
518.571
536.129
536.099
527.446
516.479
507.758
505.282
504.666
502.947
499.873
493.885
485.902
476.381
463.96
448.345
429.445
406.986
381.403
353.417
324.014
295.183
269.257
247.634
231.239
221.023
217.522
220.965
231.119
245.544
260.364
274.076
286.065
296.805
309.285
321.388
327.641
323.808
304.093
269.257
226.972
183.643
145.919
116.112
90.682
67.214
43.918
20.126
-2.82
-24.784
-46.351
-67.901
-89.962
-112.577
-135.407
-158.215
-180.747
-202.65
-223.72
-243.915
-263.313
-282.118
-300.598
-318.986
-337.397
-355.878
-374.301
-392.325
-409.603
-425.801
-440.459
-453.039
-463.176
-470.568
-475.183
-477.451
-477.534
-475.265
-470.577
-463.327
-453.208
-440.062
-423.417
-401.994
-374.752
-341.021
-299.961
-251.122
-194.266
-128.806
-54.457
28.18
118.054
213.632
312.679
412.009
508.432
599.424
681.314
752.651
812.624
856.13
880.59
882.89
858.998
813.359
751.149
677.202
598.619
517.464
434.751
353.533
276.914
209.346
154.751
115.336
91.925
84.354
92.833
116.909
154.476
202.921
259.098
319.63
382.275
444.712
503.678
556.514
601.26
636.418
661.73
677.398
683.859
683.127
678.277
671.4
662.024
648.046
627.377
601.659
581.047
577.43
598.505
645.447
704.7
758.066
793.115
802.472
791.459
769.999
743.982
716.971
687.005
652.782
614.882
575.422
538.725
504.347
471.248
437.964
401.143
362.034
322.338
282.68
244.709
207.794
170.917
134.377
98.438
63.87
31.509
1.582
-25.835
-50.661
-72.847
-92.361
-109.268
-123.705
-135.79
-145.591
-153.135
-158.454
-161.666
-162.922
-162.398
-160.374
-157.162
-153.032
-148.245
-142.997
-137.309
-131.172
-124.659
-117.654
-109.907
-101.493
-92.56
-83.026
-73.306
-63.156
-50.924
-36.863
-22.504
-10.041
-4.889
-8.609
-15.935
-20.185
-11.496
16.083
55.811
97.053
128.762
142.08
141.214
136.619
136.125
146.519
166.895
190.582
213.99
234.523
251.562
267.331
282.449
296.553
309.529
320.728
329.81
336.931
342.065
345.105
346.04
344.837
341.449
335.898
328.224
318.476
306.746
293.151
277.826
260.934
242.685
223.32
203.032
181.959
160.214
137.903
115.154
92.11
68.89
45.571
22.235
-1.031
-24.131
-46.931
-69.311
-91.162
-112.354
-132.722
-152.052
-170.065
-186.485
-201.093
-213.689
-224.101
-232.193
-237.8
-240.806
-241.156
-238.741
-233.476
-225.358
-214.408
-200.573
-183.887
-164.621
-143.007
-119.479
-94.788
-68.27
-39.393
-9.659
20.563
47.998
69.006
87.363
105.101
126.842
158.721
194.351
228.777
257.263
272.894
281.478
288.517
296.72
310.711
327.488
343.83
359.249
371.962
382.354
390.723
396.177
398.951
399.47
398.352
397.037
396.666
398.377
403.946
414.53
430.301
450.899
475.084
501.053
527.578
553.546
577.45
598.264
615.468
628.823
638.858
646.502
652.199
656.209
658.874
660.271
660.432
659.427
657.047
652.935
646.924
638.909
628.839
616.86
603.146
587.862
571.234
553.469
534.752
515.303
495.309
474.914
454.263
433.471
412.632
391.921
371.557
351.786
332.897
315.081
298.429
283.012
268.898
256.172
244.914
235.182
227.016
220.481
215.663
212.632
211.408
211.886
213.866
217.101
221.279
226.161
231.586
237.386
243.386
249.421
255.311
260.857
265.86
270.031
272.998
274.445
274.12
271.894
267.741
261.656
253.671
243.804
232.054
218.451
203.032
185.801
166.775
146.037
123.712
100.063
75.478
50.304
24.848
-0.652
-26.017
-51.048
-75.541
-99.287
-122.074
-143.737
-164.111
-182.988
-200.205
-215.618
-229.068
-240.65
-250.67
-259.401
-267.156
-274.052
-279.924
-284.835
-289.1
-292.751
-295.629
-297.508
-297.95
-297.135
-295.947
-294.886
-294.117
-293.983
-294.785
-297.002
-301.51
-308.326
-316.524
-325.498
-334.824
-344.028
-352.905
-361.01
-367.49
-372.182
-375.615
-378.134
-380.053
-381.602
-382.72
-383.545
-384.468
-385.567
-386.666
-387.659
-388.417
-388.93
-389.351
-389.732
-390.04
-390.297
-390.54
-390.808
-391.154
-391.581
-392.052
-392.55
-393.063
-393.593
-394.155
-394.757
-395.399
-396.083
-396.81
-397.582
-398.408
-399.292
-400.241
-401.259
-402.354
-403.538
-404.825
-406.222
-407.738
-409.374
-411.127
-412.995
-414.976
-417.06
-419.234
-421.492
-423.831
-426.256
-428.783
-431.418
-434.158
-436.999
-439.932
-442.942
-446.01
-449.1
-452.153
-455.121
-457.955
-460.62
-463.095
-465.337
-467.291
-468.897
-470.084
-470.804
-471.044
-470.789
-470.025
-468.778
-467.079
-464.997
-462.682
-460.251
-457.803
-455.461
-453.312
-451.481
-450.178
-449.615
-449.899
-451.053
-452.962
-455.334
-457.892
-460.338
-462.217
-462.978
-462.288
-460.063
-456.463
-452.376
-448.869
-446.399
-445.64
-446.353
-446.673
-446.335
-445.355
-443.964
-444.502
-444.126
-435.846
-412.573
-365.766
-295.528
-210.217
-118.298
-29.683
51.447
126.825
195.773
257.118
308.271
344.784
364.939
368.794
356.676
329.827
289.501
236.95
174.233
103.691
27.622
-51.4
-130.882
-208.407
-281.131
-346.147
-400.877
-442.996
-470.948
-484.227
-482.658
-466.401
-436.265
-393.809
-341.508
-282.533
-219.841
-155.702
-92.241
-31.715
23.35
70.803
109.775
140.497
163.662
179.798
189.4
193.496
193.998
193.152
192.546
192.884
194.158
196.258
199.13
202.286
204.76
205.181
202.187
195.155
184.378
170.545
154.67
138.223
122.55
109.16
99.93
96.058
97.809
104.915
116.298
130.32
145.839
161.593
175.753
187.209
195.524
200.402
202.623
202.492
198.696
192.022
184.525
179.112
180.965
189.716
200.113
206.71
202.219
186.496
166.468
147.706
136.153
132.773
132.766
133.34
132.613
130.278
128.531
128.33
129.682
132.707
137.189
143.165
150.874
160.273
171.101
183.052
195.889
209.351
223.138
236.967
250.503
263.454
275.669
287.007
297.305
306.411
314.129
320.248
324.704
327.499
328.693
328.458
326.938
324.289
320.743
316.493
311.711
306.558
301.112
295.423
289.582
283.677
277.819
272.153
266.745
261.626
256.815
252.258
247.9
243.664
239.418
235.059
230.524
225.756
220.735
215.47
209.942
204.178
198.22
192.049
185.686
179.196
172.633
166.098
159.697
153.425
147.254
141.253
135.386
129.445
123.336
117.059
110.601
104.322
98.036
90.321
80.488
69.554
60.901
60.502
72.489
93.764
114.834
124.007
112.153
82.55
49.209
25.718
22.953
39.774
63.496
84.268
94.87
94.63
90.699
87.334
86.576
89.04
92.383
95.611
99.035
102.606
106.592
111.082
115.765
120.51
125.315
130.1
134.792
139.38
143.874
148.286
152.644
156.945
161.148
165.232
169.189
173.006
176.671
180.166
183.471
186.581
189.5
192.225
194.76
197.093
199.206
201.109
202.812
204.289
205.518
206.485
207.167
207.588
207.799
207.778
207.486
207.046
206.603
206.08
205.491
204.871
203.93
203.476
204.295
205.281
206.106
204.73
198.715
190.774
182.718
177.242
178.04
181.853
185.915
188.332
185.972
181.08
175.928
171.023
167.751
165.31
162.667
160.019
157.235
154.386
151.682
148.986
146.19
143.33
140.415
137.435
134.395
131.308
128.179
125.031
121.887
118.745
115.605
112.464
109.321
106.174
103.023
99.877
96.756
93.654
90.567
87.532
84.579
81.732
79.027
76.446
73.95
71.57
69.359
67.199
64.951
62.704
60.455
58.179
56.191
53.65
49.737
45.624
41.664
40.008
43.229
48.473
53.84
56.496
52.553
45.443
38.074
32.436
31.822
33.868
36.176
38.205
38.493
37.876
37.435
36.953
36.561
36.18
35.58
34.899
34.246
33.576
32.874
32.149
31.394
30.596
29.748
28.826
27.806
26.695
25.506
24.234
22.884
21.457
19.954
18.382
16.749
15.057
13.311
11.517
9.682
7.813
5.918
4.008
2.09
0.174
-1.729
-3.612
-5.465
-7.277
-9.041
-10.748
-12.39
-13.961
-15.453
-16.86
-18.178
-19.404
-20.535
-21.57
-22.509
-23.353
-24.106
-24.771
-25.355
-25.863
-26.301
-26.677
-26.998
-27.274
-27.514
-27.729
-27.93
-28.13
-28.346
-28.594
-28.894
-29.263
-29.717
-30.275
-30.954
-31.769
-32.732
-33.852
-35.138
-36.6
-38.25
-40.094
-42.14
-44.389
-46.844
-49.509
-52.38
-55.453
-58.718
-62.16
-65.771
-69.546
-73.488
-77.604
-81.894
-86.35
-90.961
-95.714
-100.587
-105.553
-110.563
-115.555
-120.468
-125.246
-129.835
-134.189
-138.25
-141.955
-145.242
-148.042
-150.31
-152.042
-153.232
-153.891
-154.045
-153.705
-152.936
-151.892
-150.691
-149.426
-148.231
-147.213
-146.548
-146.545
-147.379
-149.032
-151.488
-154.699
-158.326
-161.934
-165.164
-167.3
-168.653
-170.897
-174.124
-177.899
-180.558
-177.843
-170.129
-161.524
-157.345
-165.438
-186.728
-215.358
-242.178
-254.2
-243.542
-207.184
-147.124
-71.916
11.327
95.791
176.757
254.303
326.653
390.645
442.819
478.356
494.248
490.43
467.896
427.808
372.08
303.205
223.985
138.104
49.578
-38.603
-123.638
-202.091
-271.198
-328.81
-373.209
-404.248
-422.856
-429.837
-426.609
-415.611
-399.232
-379.979
-360.293
-341.322
-323.454
-307.094
-292.194
-278.227
-264.661
-250.686
-235.456
-218.921
-201.433
-183.389
-165.354
-147.836
-131.268
-116.226
-103.319
-92.867
-84.945
-79.464
-76.176
-74.865
-75.326
-77.278
-80.361
-84.199
-88.463
-92.876
-97.275
-101.553
-105.592
-109.306
-112.598
-115.371
-117.579
-119.218
-120.296
-120.843
-120.911
-120.561
-119.916
-119.147
-118.422
-117.911
-117.73
-117.936
-118.585
-119.714
-121.356
-123.54
-126.265
-129.504
-133.238
-137.45
-142.119
-147.222
-152.694
-158.441
-164.365
-170.36
-176.333
-182.2
-187.858
-193.214
-198.197
-202.76
-206.882
-210.55
-213.741
-216.424
-218.57
-220.173
-221.246
-221.806
-221.855
-221.401
-220.469
-219.113
-217.435
-215.531
-213.448
-211.195
-208.752
-206.099
-203.219
-200.098
-196.682
-192.871
-188.567
-183.681
-178.154
-171.931
-164.928
-157.015
-148.005
-137.719
-126.031
-112.876
-98.218
-82.024
-64.281
-44.973
-24.172
-2.034
21.297
45.664
70.916
96.913
123.465
150.315
177.157
203.672
229.551
254.551
278.447
301.012
322.041
341.315
358.699
374.149
387.62
399.093
408.565
416.026
421.511
425.136
427.049
427.427
426.483
424.369
421.23
417.222
412.484
407.18
401.435
395.307
388.848
382.099
375.088
367.856
360.425
352.759
344.812
336.519
327.786
318.567
308.833
298.55
287.703
276.27
264.242
251.647
238.533
224.946
210.936
196.548
181.83
166.861
151.726
136.512
121.322
106.234
91.312
76.624
62.224
48.16
34.48
21.211
8.371
-4.023
-15.949
-27.39
-38.328
-48.755
-58.673
-68.08
-76.983
-85.386
-93.291
-100.706
-107.639
-114.096
-120.085
-125.615
-130.691
-135.325
-139.533
-143.331
-146.738
-149.774
-152.458
-154.812
-156.859
-158.619
-160.116
-161.37
-162.401
-163.228
-163.871
-164.351
-164.684
-164.889
-164.982
-164.978
-164.892
-164.739
-164.53
-164.278
-163.994
-163.687
-163.367
-163.042
-162.721
-162.41
-162.116
-161.846
-161.605
-161.399
-161.231
-161.105
-161.025
-160.995
-161.015
-161.089
-161.219
-161.407
-161.655
-161.964
-162.339
-162.781
-163.293
-163.878
-164.539
-165.278
-166.098
-167.002
-167.992
-169.07
-170.24
-171.501
-172.857
-174.307
-175.853
-177.494
-179.23
-181.059
-182.979
-184.988
-187.081
-189.253
-191.499
-193.813
-196.188
-198.616
-201.089
-203.597
-206.13
-208.679
-211.231
-213.775
-216.298
-218.788
-221.232
-223.614
-225.922
-228.141
-230.257
-232.255
-234.122
-235.842
-237.403
-238.79
-239.992
-240.994
-241.786
-242.357
-242.696
-242.795
-242.645
-242.24
-241.572
-240.637
-239.432
-237.953
-236.199
-234.169
-231.862
-229.281
-226.427
-223.303
-219.914
-216.262
-212.355
-208.198
-203.797
-199.159
-194.293
-189.205
-183.906
-178.403
-172.708
-166.829
-160.779
-154.567
-148.205
-141.703
-135.074
-128.329
-121.48
-114.538
-107.516
-100.424
-93.277
-86.085
-78.862
-71.62
-64.371
-57.13
-49.91
-42.724
-35.586
-28.512
-21.516
-14.614
-7.823
-1.159
5.359
11.711
17.876
23.831
29.555
35.026
40.22
45.117
49.694
53.933
57.819
61.332
64.458
67.179
69.476
71.33
72.728
73.658
74.107
74.066
73.527
72.486
70.95
68.922
66.405
63.392
59.867
55.823
51.268
46.216
40.688
34.713
28.322
21.566
14.52
7.25
-0.176
-7.702
-15.296
-22.911
-30.478
-37.914
-45.115
-51.995
-58.507
-64.618
-70.299
-75.547
-80.376
-84.844
-89.056
-93.122
-97.132
-101.162
-105.28
-109.574
-114.14
-119.14
-124.792
-131.203
-138.338
-145.987
-153.747
-161.23
-168.113
-173.931
-178.09
-180.184
-180.104
-178.37
-176.084
-174.164
-173.253
-173.803
-176.068
-180.203
-185.924
-191.655
-194.751
-192.521
-182.341
-162.281
-130.996
-86.828
-28.766
42.408
124.475
214.042
306.748
398.781
486.371
564.476
628.437
674.74
700.687
705.555
690.154
655.057
601.708
533.349
453.383
365.563
274.252
182.538
92.891
8.391
-68.545
-136.312
-193.19
-238.226
-271.608
-293.205
-303.113
-302.308
-291.814
-273.107
-248.499
-220.31
-190.274
-160.335
-132.469
-108.108
-88.567
-74.49
-65.509
-60.787
-59.589
-60.83
-63.077
-65.185
-65.983
-64.693
-61.309
-56.161
-49.614
-42.287
-34.999
-28.286
-22.66
-18.411
-15.378
-13.299
-11.858
-10.641
-9.236
-7.415
-5.031
-2.031
1.481
5.402
9.631
14.022
18.444
22.81
27.05
31.083
34.857
38.301
41.286
43.734
45.61
46.859
47.485
47.574
47.177
46.329
45.242
44.078
42.705
41.16
39.548
37.447
35.452
34.335
33.004
31.179
26.981
17.228
3.339
-12.1
-24.559
-27.674
-20.288
-5.818
9.586
19.758
20.27
11.339
-2.898
-21.207
-39.099
-51.429
-57.495
-53.046
-39.248
-23.431
-9.203
-1.508
-1.538
-4.039
-6.084
-5.609
-1.632
3.827
9.743
16.219
23.161
30.848
39.341
48.31
57.597
67.213
77.139
87.335
97.778
108.449
119.335
130.451
141.78
153.263
164.849
176.502
188.18
199.845
211.459
222.976
234.356
245.566
256.57
267.334
277.826
288.014
297.866
307.355
316.455
325.14
333.388
341.178
348.49
355.307
361.614
367.399
372.648
377.355
381.512
385.116
388.163
390.655
392.592
393.979
394.819
395.121
394.892
394.143
392.885
391.13
388.894
386.19
383.036
379.448
375.442
371.036
366.246
361.091
355.588
349.755
343.61
337.172
330.46
323.494
316.295
308.884
301.283
293.513
285.597
277.555
269.405
261.168
252.858
244.494
236.092
227.668
219.237
210.818
202.43
194.096
185.837
177.672
169.622
161.702
153.929
146.32
138.888
131.643
124.597
117.766
111.169
104.836
98.79
93.038
87.581
82.412
77.509
72.857
68.437
64.217
60.179
56.318
52.641
49.185
45.988
43.067
40.423
38.035
35.884
33.979
32.336
30.975
29.94
29.269
29.007
29.236
30.005
31.31
33.115
35.316
37.783
40.432
43.195
46.027
48.895
51.734
54.475
57.067
59.427
61.472
63.1
64.155
64.52
64.158
63.076
61.361
59.149
56.525
53.554
50.302
46.806
43.119
39.296
35.357
31.336
27.289
23.291
19.466
15.921
12.69
9.778
7.131
4.656
2.295
0.005
-2.273
-4.566
-6.899
-9.293
-11.734
-14.205
-16.713
-19.277
-21.942
-24.751
-27.713
-30.822
-34.052
-37.359
-40.709
-44.076
-47.42
-50.716
-53.946
-57.097
-60.176
-63.193
-66.149
-69.037
-71.845
-74.558
-77.165
-79.662
-82.043
-84.304
-86.443
-88.458
-90.349
-92.115
-93.753
-95.255
-96.613
-97.813
-98.846
-99.704
-100.379
-100.865
-101.156
-101.249
-101.143
-100.836
-100.328
-99.619
-98.71
-97.6
-96.291
-94.787
-93.089
-91.202
-89.133
-86.889
-84.477
-81.909
-79.194
-76.343
-73.371
-70.29
-67.115
-63.862
-60.545
-57.182
-53.789
-50.384
-46.986
-43.613
-40.283
-37.016
-33.831
-30.746
-27.78
-24.949
-22.272
-19.765
-17.444
-15.325
-13.424
-11.757
-10.339
-9.187
-8.317
-7.745
-7.482
-7.542
-7.934
-8.668
-9.747
-11.175
-12.951
-15.074
-17.544
-20.362
-23.524
-27.026
-30.859
-35.014
-39.481
-44.248
-49.294
-54.594
-60.124
-65.864
-71.802
-77.935
-84.251
-90.729
-97.344
-104.066
-110.858
-117.68
-124.474
-131.166
-137.689
-143.981
-149.995
-155.704
-161.061
-166.009
-170.482
-174.395
-177.693
-180.347
-182.324
-183.613
-184.233
-184.224
-183.665
-182.677
-181.355
-179.796
-178.099
-176.352
-174.675
-173.191
-172.049
-171.475
-171.582
-172.319
-173.514
-174.786
-175.685
-175.878
-174.925
-172.206
-167.426
-160.748
-152.776
-144.727
-137.797
-132.63
-129.751
-129.751
-132.658
-137.593
-142.669
-144.833
-140.812
-128.258
-105.311
-70.031
-21.164
41.219
115.547
198.297
284.75
370.757
452.372
524.819
583.551
624.886
646.172
646.912
628.335
591.568
538.095
470.835
393.155
308.713
221.296
133.527
47.28
-35.171
-111.628
-180.561
-240.835
-291.989
-333.988
-366.76
-390.61
-406.295
-414.955
-418.006
-416.638
-411.687
-403.877
-393.299
-379.536
-362.448
-341.782
-317.224
-289.062
-257.874
-224.57
-191.185
-160.048
-132.789
-110.759
-94.839
-85.163
-81.596
-83.41
-88.816
-95.902
-103.301
-110.006
-115.5
-119.676
-122.512
-124.322
-125.904
-127.976
-130.906
-134.785
-139.435
-144.538
-149.802
-154.885
-159.346
-162.884
-165.386
-166.848
-167.393
-167.197
-166.4
-165.16
-163.674
-162.084
-160.508
-159.084
-157.89
-156.989
-156.47
-156.375
-156.72
-157.524
-158.771
-160.42
-162.439
-164.776
-167.367
-170.162
-173.099
-176.114
-179.142
-182.104
-184.93
-187.569
-189.971
-192.098
-193.917
-195.398
-196.522
-197.283
-197.671
-197.678
-197.297
-196.517
-195.332
-193.741
-191.747
-189.355
-186.573
-183.406
-179.86
-175.946
-171.672
-167.052
-162.095
-156.814
-151.221
-145.336
-139.178
-132.77
-126.135
-119.298
-112.282
-105.113
-97.818
-90.424
-82.958
-75.443
-67.906
-60.365
-52.846
-45.376
-37.967
-30.633
-23.391
-16.246
-9.219
-2.351
4.35
10.881
17.189
23.249
29.051
34.547
39.743
44.72
49.476
53.978
58.393
62.854
67.224
71.547
75.909
79.853
84.138
89.748
95.425
100.77
103.814
100.915
94.277
87.185
83.061
88.353
102.101
118.18
132.452
138.402
134.472
126.861
119.222
115.232
117.47
122.286
127.384
132.06
134.857
136.908
139.206
141.411
143.711
146.038
148.143
150.183
152.287
154.417
156.586
158.832
161.14
163.487
165.872
168.268
170.648
173.022
175.394
177.754
180.101
182.434
184.746
187.038
189.308
191.551
193.761
195.935
198.067
200.153
202.191
204.174
206.1
207.964
209.761
211.488
213.14
214.713
216.203
217.604
218.912
220.123
221.231
222.23
223.116
223.883
224.526
225.038
225.414
225.65
225.738
225.674
225.453
225.07
224.521
223.802
222.911
221.846
220.603
219.183
217.585
215.809
213.856
211.728
209.427
206.957
204.32
201.522
198.567
195.461
192.211
188.825
185.309
181.673
177.926
174.078
170.137
166.116
162.024
157.873
153.673
149.436
145.172
140.892
136.607
132.326
128.057
123.811
119.595
115.414
111.277
107.188
103.152
99.171
95.25
91.388
87.588
83.849
80.17
76.549
72.984
69.471
66.007
62.586
59.205
55.857
52.537
49.239
45.957
42.685
39.418
36.15
32.876
29.593
26.295
22.983
19.653
16.306
12.942
9.563
6.172
2.775
-0.624
-4.016
-7.394
-10.748
-14.066
-17.336
-20.544
-23.675
-26.714
-29.643
-32.444
-35.099
-37.588
-39.893
-41.994
-43.872
-45.507
-46.882
-47.977
-48.775
-49.26
-49.418
-49.234
-48.696
-47.795
-46.522
-44.873
-42.844
-40.435
-37.645
-34.48
-30.946
-27.051
-22.809
-18.232
-13.338
-8.147
-2.68
3.036
8.975
15.105
21.392
27.798
34.287
40.818
47.35
53.84
60.248
66.531
72.651
78.566
84.238
89.626
94.689
99.39
103.689
107.549
110.939
113.827
116.184
117.989
119.224
119.876
119.935
119.387
118.21
116.389
113.923
110.817
107.085
102.75
97.847
92.423
86.551
80.303
73.753
66.966
59.991
52.886
45.711
38.547
31.49
24.628
18.022
11.717
5.747
0.12
-5.174
-10.19
-15.044
-19.844
-24.67
-29.595
-34.653
-39.88
-45.351
-51.154
-57.386
-64.182
-71.663
-79.809
-88.506
-97.557
-106.621
-115.282
-123.075
-129.377
-133.527
-135.287
-134.736
-132.051
-127.801
-122.682
-117.172
-112
-107.183
-101.047
-91.994
-79.599
-65.617
-53.341
-43.975
-33.226
-11.12
31.464
99.12
188.923
289.9
392.76
489.301
572.521
639.939
686.688
711.423
718.228
710.081
692.763
668.948
636.147
594.199
542.761
482.743
418.16
351.056
282.12
212.64
143.219
75.052
10.827
-47.318
-97.724
-138.501
-168.642
-187.926
-196.151
-194.118
-183.685
-166.645
-145.383
-122.465
-99.356
-77.018
-56.404
-37.861
-21.508
-7.548
4.831
16.792
28.676
40.512
52.217
63.498
74.339
84.964
94.859
103.075
109.135
112.811
114.132
113.402
110.738
106.074
99.698
92.202
84.049
75.669
67.353
59.145
51.158
43.579
36.512
30.048
24.241
19.068
14.511
10.582
7.238
4.421
2.047
-0.044
-1.994
-3.932
-6.001
-8.277
-10.809
-13.644
-16.811
-20.337
-24.245
-28.528
-33.156
-38.103
-43.333
-48.808
-54.484
-60.28
-66.109
-71.887
-77.518
-82.936
-88.088
-92.92
-97.393
-101.469
-105.116
-108.311
-111.045
-113.299
-115.058
-116.306
-117.027
-117.218
-116.882
-116.023
-114.652
-112.777
-110.407
-107.555
-104.235
-100.46
-96.246
-91.61
-86.567
-81.141
-75.359
-69.25
-62.846
-56.183
-49.298
-42.228
-35.014
-27.695
-20.313
-12.907
-5.516
1.821
9.064
16.175
23.116
29.851
36.345
42.565
48.478
54.054
59.265
64.088
68.497
72.474
75.998
79.056
81.632
83.716
85.298
86.373
86.938
86.991
86.535
85.575
84.119
82.177
79.763
76.892
73.58
69.848
65.715
61.204
56.337
51.14
45.638
39.858
33.825
27.567
21.113
14.488
7.722
0.841
-6.127
-13.157
-20.222
-27.297
-34.358
-41.38
-48.342
-55.221
-61.997
-68.651
-75.165
-81.523
-87.711
-93.715
-99.525
-105.131
-110.525
-115.7
-120.653
-125.38
-129.878
-134.148
-138.19
-142.005
-145.598
-148.971
-152.13
-155.079
-157.824
-160.372
-162.73
-164.904
-166.901
-168.729
-170.395
-171.907
-173.273
-174.499
-175.593
-176.563
-177.414
-178.154
-178.788
-179.322
-179.76
-180.108
-180.369
-180.547
-180.645
-180.664
-180.608
-180.478
-180.275
-180.001
-179.656
-179.241
-178.758
-178.206
-177.587
-176.903
-176.154
-175.342
-174.471
-173.542
-172.56
-171.529
-170.452
-169.335
-168.184
-167.005
-165.805
-164.592
-163.373
-162.157
-160.955
-159.774
-158.627
-157.523
-156.474
-155.491
-154.584
-153.766
-153.047
-152.438
-151.95
-151.594
-151.377
-151.311
-151.403
-151.661
-152.09
-152.698
-153.486
-154.459
-155.618
-156.961
-158.488
-160.195
-162.078
-164.129
-166.342
-168.706
-171.21
-173.843
-176.59
-179.434
-182.36
-185.348
-188.379
-191.432
-194.487
-197.521
-200.511
-203.435
-206.271
-208.993
-211.581
-214.009
-216.257
-218.3
-220.119
-221.692
-223
-224.024
-224.748
-225.155
-225.234
-224.972
-224.359
-223.387
-222.049
-220.341
-218.261
-215.808
-212.983
-209.791
-206.236
-202.327
-198.075
-193.492
-188.593
-183.393
-177.91
-172.164
-166.175
-159.965
-153.557
-146.975
-140.244
-133.391
-126.443
-119.428
-112.375
-105.313
-98.27
-91.275
-84.356
-77.54
-70.854
-64.324
-57.975
-51.833
-45.921
-40.263
-34.884
-29.808
-25.059
-20.657
-16.622
-12.971
-9.722
-6.894
-4.497
-2.54
-1.026
0.047
0.67
0.837
0.558
-0.152
-1.279
-2.803
-4.722
-7.037
-9.722
-12.74
-16.087
-19.759
-23.754
-28.087
-32.732
-37.632
-42.782
-48.205
-53.759
-59.276
-64.813
-70.307
-75.653
-81.078
-85.696
-88.675
-91.109
-93.297
-97.258
-105.385
-114.833
-123.717
-129.303
-127.841
-122.648
-116.5
-111.204
-110.031
-111.015
-112.127
-113.196
-112.959
-112.037
-111.556
-111.712
-112.64
-113.958
-114.947
-114.792
-113.224
-110.678
-107.153
-102.204
-95.937
-88.926
-82.286
-77.975
-77.29
-80.221
-86.836
-97.659
-111.602
-125.799
-138.119
-145.678
-146.772
-143.699
-134.111
-112.079
-73.855
-13.019
70.38
168.371
275.78
382.901
479.768
561.086
618.208
649.11
658.523
649.642
628.672
597.542
552.402
493.07
420.504
337.449
249.876
161.438
73.935
-9.964
-87.416
-155.637
-212.004
-255.449
-287.099
-308.736
-320.524
-322.396
-314.159
-294.44
-266.7
-237.416
-211.917
-197.563
-195.443
-199.477
-204.635
-204.195
-195.324
-182.122
-167.517
-153.701
-141.877
-130.236
-117.883
-105.771
-94.734
-85.47
-78.281
-72.728
-68.356
-65.141
-63.092
-61.885
-61.179
-60.692
-60.112
-59.334
-58.344
-57.034
-55.323
-53.223
-50.738
-47.907
-44.822
-41.547
-38.135
-34.65
-31.115
-27.533
-23.936
-20.365
-16.882
-13.568
-10.462
-7.58
-4.928
-2.505
-0.327
1.589
3.253
4.701
5.958
7.025
7.871
8.413
8.59
8.391
7.842
6.988
5.863
4.491
2.915
1.23
-0.416
-1.869
-2.995
-3.696
-3.866
-3.363
-2.016
0.388
4.027
8.996
15.351
23.141
32.421
43.245
55.638
69.503
84.66
100.932
118.128
136.082
154.602
173.426
192.285
210.903
229.048
246.562
263.305
279.115
293.815
307.227
319.185
329.644
338.632
346.166
352.302
357.1
360.658
363.156
364.765
365.618
365.811
365.392
364.406
362.935
361.075
358.917
356.569
354.078
351.454
348.732
345.901
342.936
339.784
336.334
332.49
328.209
323.473
318.292
312.687
306.653
300.197
293.334
286.065
278.401
270.364
261.96
253.222
244.202
234.963
225.595
216.182
206.782
197.442
188.202
179.089
170.135
161.362
152.781
144.406
136.259
128.36
120.732
113.391
106.343
99.59
93.128
86.948
81.046
75.414
70.044
64.932
60.07
55.454
51.083
46.951
43.051
39.372
35.901
32.625
29.527
26.593
23.805
21.146
18.598
16.145
13.772
11.462
9.198
6.964
4.745
2.524
0.287
-1.98
-4.291
-6.657
-9.089
-11.596
-14.184
-16.859
-19.624
-22.481
-25.429
-28.468
-31.594
-34.804
-38.092
-41.451
-44.874
-48.35
-51.869
-55.418
-58.984
-62.55
-66.1
-69.616
-73.079
-76.47
-79.77
-82.957
-86.011
-88.911
-91.634
-94.161
-96.468
-98.536
-100.345
-101.875
-103.107
-104.026
-104.617
-104.867
-104.764
-104.301
-103.469
-102.266
-100.688
-98.736
-96.412
-93.719
-90.664
-87.257
-83.507
-79.429
-75.037
-70.351
-65.389
-60.175
-54.731
-49.084
-43.262
-37.293
-31.208
-25.04
-18.82
-12.585
-6.369
-0.206
5.866
11.812
17.596
23.186
28.546
33.646
38.455
42.944
47.088
50.861
54.242
57.21
59.749
61.843
63.48
64.651
65.348
65.569
65.312
64.579
63.375
61.706
59.584
57.02
54.029
50.63
46.842
42.69
38.197
33.391
28.301
22.959
17.397
11.649
5.75
-0.267
-6.366
-12.513
-18.671
-24.808
-30.889
-36.883
-42.757
-48.481
-54.025
-59.362
-64.468
-69.318
-73.891
-78.168
-82.133
-85.77
-89.068
-92.016
-94.607
-96.835
-98.698
-100.195
-101.33
-102.107
-102.536
-102.624
-102.386
-101.836
-100.992
-99.872
-98.498
-96.891
-95.072
-93.069
-90.907
-88.613
-86.214
-83.736
-81.21
-78.666
-76.139
-73.661
-71.264
-68.978
-66.833
-64.857
-63.075
-61.506
-60.168
-59.073
-58.232
-57.657
-57.36
-57.351
-57.639
-58.224
-59.1
-60.26
-61.684
-63.357
-65.264
-67.387
-69.72
-72.263
-75.014
-77.977
-81.153
-84.536
-88.105
-91.818
-95.621
-99.458
-103.288
-107.093
-110.858
-114.538
-118.067
-121.365
-124.337
-126.936
-129.099
-130.697
-131.679
-132.055
-131.94
-131.678
-131.618
-131.87
-132.498
-133.505
-134.634
-135.729
-136.479
-136.044
-133.708
-129.149
-122.264
-113.503
-103.791
-93.702
-84.016
-76.114
-71.236
-70.571
-74.934
-84.047
-97.092
-113.345
-131.69
-150.716
-168.717
-183.092
-191.361
-191.742
-182.534
-162.646
-131.57
-88.233
-32.179
35.202
112.2
195.512
279.702
361.906
440.322
512.675
579.547
637.512
678.574
696.64
684.895
642.564
577.595
498.385
414.007
329.652
244.81
159.738
75.324
-5.539
-77.974
-139.419
-188.805
-225.967
-252.219
-268.479
-275.711
-275.878
-270.729
-261.545
-249.317
-234.413
-216.881
-196.949
-174.668
-149.954
-123.102
-94.878
-66.709
-40.322
-17.134
1.792
15.704
24.181
27.19
25.529
20.69
14.139
7.288
0.276
-7.077
-13.427
-18.356
-20.165
-17.199
-12.708
-8.769
-8.243
-14.768
-24.934
-35.827
-45.172
-49.281
-50.064
-49.654
-48.54
-48.245
-48.064
-47.054
-45.596
-43.813
-42.028
-40.619
-39.522
-38.631
-37.995
-37.655
-37.651
-38.026
-38.784
-39.918
-41.441
-43.364
-45.676
-48.333
-51.272
-54.405
-57.638
-60.893
-64.12
-67.278
-70.341
-73.298
-76.125
-78.79
-81.273
-83.53
-85.518
-87.198
-88.514
-89.407
-89.841
-89.796
-89.276
-88.315
-86.928
-85.106
-82.827
-80.038
-76.707
-72.838
-68.448
-63.567
-58.238
-52.503
-46.444
-40.198
-33.861
-27.481
-21.055
-14.5
-7.763
-0.844
6.252
13.496
20.877
28.436
36.228
44.297
52.719
61.596
71.075
81.382
92.694
105.08
118.53
132.93
148.171
164.197
180.929
198.26
216.068
234.186
252.423
270.611
288.526
305.872
322.329
337.517
351.088
362.819
372.563
380.256
385.865
389.342
390.679
389.936
387.191
382.546
376.135
368.087
358.589
347.923
336.365
324.214
311.76
299.209
286.727
274.451
262.475
250.88
239.724
229.018
218.76
208.955
199.582
190.618
182.005
173.627
165.387
157.205
149.002
140.733
132.374
123.897
115.308
106.637
97.91
89.169
80.458
71.806
63.253
54.847
46.638
38.696
31.073
23.804
16.921
10.445
4.387
-1.242
-6.448
-11.255
-15.68
-19.741
-23.457
-26.839
-29.906
-32.678
-35.173
-37.405
-39.386
-41.129
-42.65
-43.967
-45.089
-46.022
-46.764
-47.308
-47.651
-47.793
-47.735
-47.475
-47.014
-46.36
-45.532
-44.559
-43.468
-42.275
-40.98
-39.589
-38.114
-36.592
-35.086
-33.674
-32.421
-31.369
-30.534
-29.905
-29.49
-29.283
-29.185
-29.096
-28.947
-28.802
-28.949
-29.733
-31.384
-33.938
-37.415
-41.722
-46.525
-51.132
-54.32
-54.763
-52.159
-47.517
-41.948
-35.77
-26.384
-9.524
16.967
50.437
80.189
93.337
80.047
38.513
-19.363
-77.754
-121.303
-140.425
-139.074
-125.581
-109.326
-96.156
-83.032
-65.535
-41.499
-15.504
1.696
1.204
-20.006
-54.802
-90.002
-113.743
-119.421
-109.355
-91.38
-74.838
-66.512
-67.71
-76.04
-86.645
-95.655
-101.9
-105.693
-108.517
-111.297
-113.951
-116.274
-118.035
-119.272
-120.256
-121.153
-122.006
-122.827
-123.596
-124.282
-124.852
-125.268
-125.501
-125.552
-125.431
-125.141
-124.672
-124.016
-123.166
-122.123
-120.886
-119.449
-117.803
-115.944
-113.873
-111.599
-109.128
-106.465
-103.613
-100.576
-97.36
-93.973
-90.424
-86.723
-82.88
-78.905
-74.808
-70.604
-66.306
-61.925
-57.477
-52.972
-48.427
-43.855
-39.275
-34.702
-30.152
-25.643
-21.193
-16.819
-12.538
-8.368
-4.325
-0.423
3.32
6.89
10.272
13.451
16.411
19.136
21.612
23.823
25.755
27.397
28.738
29.769
30.484
30.88
30.957
30.712
30.145
29.253
28.037
26.5
24.647
22.484
20.019
17.262
14.227
10.935
7.407
3.655
-0.313
-4.501
-8.91
-13.528
-18.338
-23.325
-28.464
-33.727
-39.071
-44.429
-49.731
-54.916
-59.932
-64.74
-69.298
-73.539
-77.387
-80.757
-83.576
-85.811
-87.449
-88.465
-88.861
-88.666
-87.932
-86.797
-85.428
-83.965
-82.549
-81.307
-80.348
-79.883
-80.205
-81.511
-83.868
-87.141
-91.011
-95.23
-99.592
-103.704
-106.995
-108.96
-109.414
-108.763
-107.805
-107.331
-108.136
-110.933
-116.432
-124.38
-132.895
-139.425
-141.995
-141.173
-139.154
-136.294
-128.055
-104.091
-54.122
26.137
131.955
249.662
365.243
469.509
558.436
632.866
692.868
736.1
759.504
760.125
737.301
692.321
627.83
547.712
455.955
357.013
255.677
155.907
61.358
-24.421
-99.127
-161.294
-209.947
-245.643
-269.649
-283.014
-287.606
-285.865
-279.682
-270.913
-261.227
-250.932
-240.255
-229.969
-220.038
-209.994
-199.678
-188.674
-176.815
-165.019
-153.793
-142.846
-132.326
-122.447
-113.237
-105.071
-98.066
-91.654
-85.75
-80.826
-77.061
-74.656
-73.745
-74.063
-75.439
-77.907
-81.161
-84.697
-88.191
-91.344
-93.987
-96.169
-97.88
-99.076
-99.806
-100.132
-100.079
-99.667
-98.884
-97.72
-96.24
-94.559
-92.836
-91.245
-89.911
-88.925
-88.349
-88.21
-88.512
-89.233
-90.331
-91.762
-93.511
-95.584
-97.984
-100.703
-103.707
-106.94
-110.329
-113.785
-117.221
-120.55
-123.694
-126.589
-129.184
-131.436
-133.316
-134.797
-135.842
-136.409
-136.459
-135.952
-134.856
-133.136
-130.755
-127.681
-123.9
-119.419
-114.255
-108.421
-101.929
-94.792
-87.034
-78.688
-69.779
-60.317
-50.291
-39.695
-28.542
-16.87
-4.742
7.776
20.642
33.834
47.334
61.108
75.118
89.334
103.755
118.395
133.227
148.162
163.057
177.77
192.198
206.269
219.935
233.14
245.806
257.843
269.174
279.747
289.505
298.369
306.219
312.924
318.419
322.726
325.939
328.148
329.408
329.75
329.196
327.795
325.61
322.699
319.098
314.832
309.945
304.517
298.669
292.535
286.194
279.664
272.914
265.927
258.711
251.292
243.694
235.922
227.984
219.908
211.749
203.564
195.392
187.246
179.117
170.991
162.883
154.828
146.879
139.079
131.457
124.039
116.853
109.931
103.298
96.958
90.902
85.115
79.592
74.335
69.35
64.638
60.194
56.008
52.07
48.37
44.898
41.642
38.586
35.716
33.017
30.482
28.107
25.885
23.812
21.881
20.084
18.417
16.875
15.453
14.145
12.944
11.845
10.847
9.946
9.142
8.43
7.811
7.284
6.846
6.498
6.238
6.064
5.974
5.966
6.037
6.186
6.408
6.699
7.057
7.476
7.952
8.479
9.05
9.659
10.298
10.961
11.639
12.324
13.008
13.683
14.341
14.976
15.579
16.144
16.664
17.133
17.545
17.894
18.176
18.387
18.524
18.583
18.564
18.465
18.288
18.034
17.704
17.3
16.827
16.289
15.69
15.037
14.335
13.591
12.812
12.007
11.183
10.349
9.511
8.679
7.86
7.061
6.291
5.554
4.858
4.208
3.608
3.063
2.576
2.15
1.784
1.481
1.239
1.058
0.935
0.868
0.853
0.883
0.953
1.056
1.186
1.341
1.508
1.676
1.846
2.016
2.184
2.35
2.5
2.611
2.688
2.737
2.725
2.624
2.414
2.065
1.597
1.052
0.407
-0.383
-1.198
-1.901
-2.569
-3.188
-3.727
-4.472
-4.622
-3.399
-1.895
-0.431
-1.018
-6.064
-12.881
-19.673
-23.773
-21.521
-16.133
-10.337
-5.997
-6.202
-8.727
-11.318
-13.467
-13.799
-13.103
-12.394
-11.476
-10.475
-9.323
-7.813
-6.081
-4.24
-2.257
-0.131
2.119
4.489
6.975
9.57
12.282
15.122
18.065
21.088
24.176
27.315
30.486
33.675
36.863
40.028
43.153
46.222
49.215
52.115
54.9
57.547
60.035
62.343
64.45
66.336
67.983
69.372
70.488
71.323
71.865
72.105
72.035
71.643
70.921
69.865
68.472
66.741
64.673
62.271
59.542
56.506
53.178
49.57
45.685
41.518
37.069
32.349
27.376
22.172
16.764
11.188
5.495
-0.243
-5.954
-11.576
-17.057
-22.364
-27.457
-32.27
-36.733
-40.761
-44.285
-47.266
-49.68
-51.503
-52.743
-53.441
-53.673
-53.564
-53.24
-52.81
-52.383
-52.072
-52.001
-52.312
-53.186
-54.843
-57.42
-60.882
-65.03
-69.488
-73.809
-77.61
-80.424
-81.606
-80.757
-77.979
-73.85
-69.518
-66.177
-64.485
-64.906
-67.983
-73.686
-81.053
-88.166
-91.899
-88.83
-76.467
-52.85
-16.097
34.864
99.824
177.152
263.352
353.737
444.029
530.171
607.677
672.305
720.644
750.219
760.047
750.757
723.228
678.505
618.676
546.439
464.639
376.396
284.84
192.491
101.928
16.077
-62.688
-132.587
-192.045
-239.898
-275.845
-299.905
-312.393
-314.57
-307.918
-293.592
-273.235
-248.933
-222.197
-194.522
-167.653
-142.447
-119.552
-100.08
-84.35
-71.963
-62.777
-56.148
-50.907
-46.564
-42.669
-38.402
-33.642
-28.655
-23.537
-18.828
-15.306
-13.218
-12.732
-14.059
-16.965
-21.071
-26.058
-31.4
-36.569
-41.301
-45.389
-48.647
-51.017
-52.459
-52.967
-52.645
-51.619
-49.976
-47.819
-45.276
-42.51
-39.736
-37.149
-34.871
-32.981
-31.528
-30.552
-30.099
-30.206
-30.87
-32.071
-33.791
-36.012
-38.72
-41.886
-45.447
-49.314
-53.381
-57.561
-61.786
-66
-70.153
-74.198
-78.09
-81.797
-85.299
-88.573
-91.588
-94.309
-96.696
-98.717
-100.35
-101.576
-102.38
-102.747
-102.659
-102.103
-101.068
-99.544
-97.521
-94.987
-91.934
-88.356
-84.255
-79.637
-74.512
-68.892
-62.794
-56.237
-49.244
-41.84
-34.053
-25.91
-17.442
-8.681
0.339
9.581
19.009
28.583
38.266
48.016
57.793
67.555
77.261
86.87
96.342
105.636
114.712
123.533
132.061
140.261
148.097
155.537
162.551
169.109
175.186
180.758
185.804
190.306
194.249
197.62
200.41
202.613
204.224
205.243
205.67
205.51
204.77
203.459
201.588
199.173
196.229
192.775
188.833
184.425
179.575
174.311
168.66
162.651
156.316
149.687
142.794
135.673
128.355
120.875
113.266
105.561
97.792
89.991
82.189
74.415
66.696
59.061
51.534
44.138
36.894
29.823
22.941
16.263
9.804
3.573
-2.419
-8.165
-13.661
-18.904
-23.894
-28.63
-33.117
-37.359
-41.365
-45.142
-48.701
-52.054
-55.214
-58.194
-61.009
-63.674
-66.206
-68.619
-70.929
-73.152
-75.303
-77.396
-79.446
-81.465
-83.464
-85.455
-87.447
-89.447
-91.461
-93.496
-95.554
-97.639
-99.749
-101.885
-104.045
-106.224
-108.418
-110.62
-112.821
-115.012
-117.183
-119.322
-121.416
-123.453
-125.419
-127.3
-129.082
-130.751
-132.296
-133.702
-134.958
-136.054
-136.98
-137.728
-138.291
-138.665
-138.847
-138.836
-138.632
-138.238
-137.66
-136.902
-135.973
-134.884
-133.645
-132.271
-130.775
-129.176
-127.49
-125.736
-123.937
-122.112
-120.286
-118.48
-116.72
-115.028
-113.429
-111.946
-110.604
-109.423
-108.426
-107.633
-107.062
-106.73
-106.653
-106.841
-107.307
-108.057
-109.098
-110.431
-112.057
-113.975
-116.179
-118.663
-121.418
-124.431
-127.691
-131.181
-134.885
-138.783
-142.856
-147.08
-151.433
-155.891
-160.428
-165.018
-169.636
-174.254
-178.846
-183.386
-187.848
-192.207
-196.441
-200.525
-204.44
-208.165
-211.684
-214.982
-218.045
-220.865
-223.431
-225.739
-227.786
-229.571
-231.095
-232.361
-233.375
-234.144
-234.677
-234.985
-235.081
-234.979
-234.692
-234.239
-233.636
-232.902
-232.056
-231.116
-230.104
-229.037
-227.936
-226.819
-225.705
-224.611
-223.553
-222.548
-221.609
-220.751
-219.983
-219.317
-218.759
-218.315
-217.992
-217.79
-217.709
-217.75
-217.908
-218.179
-218.559
-219.042
-219.618
-220.279
-221.015
-221.816
-222.671
-223.568
-224.495
-225.438
-226.385
-227.324
-228.242
-229.128
-229.971
-230.763
-231.498
-232.171
-232.777
-233.314
-233.778
-234.169
-234.484
-234.723
-234.884
-234.965
-234.968
-234.896
-234.76
-234.566
-234.322
-234.035
-233.714
-233.369
-233.011
-232.646
-232.271
-231.892
-231.515
-231.159
-230.853
-230.616
-230.455
-230.374
-230.374
-230.449
-230.586
-230.758
-230.912
-231.001
-230.982
-230.827
-230.527
-230.055
-229.366
-228.405
-227.102
-225.42
-223.352
-220.892
-218.041
-214.824
-211.295
-207.548
-203.722
-199.936
-196.307
-192.932
-189.895
-187.312
-185.3
-184.014
-183.669
-184.335
-185.896
-188.156
-190.796
-193.441
-195.805
-197.43
-197.604
-195.961
-192.646
-188.059
-182.905
-178.011
-173.829
-170.669
-169.305
-169.293
-168.365
-165.24
-158.674
-148.216
-136.34
-121.214
-96.69
-57.19
3.554
84.583
176.788
271.341
359.611
437.16
503.997
558.566
599.193
623.883
630.349
618.902
590.49
546.162
488.678
421.084
346.641
269.138
191.274
114.85
42.341
-23.585
-80.921
-127.989
-164.344
-190.655
-207.278
-214.614
-213.913
-207.011
-196.1
-183.49
-170.455
-157.381
-144.65
-132.471
-120.764
-109.16
-96.871
-83.008
-67.308
-50.081
-31.802
-13.009
5.801
24.155
41.468
57.109
70.695
82.141
91.464
98.742
104.069
107.489
109.121
109.234
108.073
105.863
102.862
99.259
95.246
91.085
86.947
82.928
79.114
75.532
72.219
69.278
66.761
64.683
63.049
61.806
60.898
60.281
59.856
59.508
59.126
58.567
57.744
56.63
55.197
53.447
51.385
48.983
46.243
43.198
39.874
36.312
32.557
28.632
24.588
20.506
16.462
12.559
8.887
5.485
2.387
-0.334
-2.622
-4.423
-5.686
-6.425
-6.672
-6.384
-5.502
-4.129
-2.402
-0.24
2.34
5.299
8.933
12.403
14.891
17.528
20.646
26.342
37.125
50.182
63.625
74.651
79.418
81.271
83.038
86.648
95.307
106.663
118.337
129.772
139.506
148.336
157.299
166.162
175.028
183.799
192.23
200.436
208.504
216.374
224.014
231.418
238.564
245.426
251.986
258.209
264.058
269.533
274.634
279.35
283.674
287.603
291.129
294.253
296.979
299.303
301.226
302.75
303.878
304.615
304.965
304.934
304.528
303.754
302.619
301.131
299.298
297.13
294.636
291.826
288.71
285.301
281.611
277.651
273.435
268.978
264.293
259.395
254.3
249.025
243.586
238
232.285
226.46
220.545
214.558
208.521
202.455
196.382
190.323
184.302
178.34
172.461
166.687
161.042
155.547
150.225
145.098
140.186
135.509
131.087
126.936
123.074
119.514
116.27
113.351
110.766
108.522
106.622
105.069
103.86
102.994
102.465
102.263
102.38
102.8
103.508
104.486
105.713
107.164
108.816
110.638
112.603
114.679
116.831
119.027
121.229
123.402
125.509
127.511
129.372
131.053
132.519
133.734
134.664
135.275
135.539
135.425
134.909
133.968
132.582
130.734
128.41
125.601
122.299
118.503
114.213
109.434
104.174
98.446
92.267
85.655
78.635
71.233
63.48
55.409
47.056
38.461
29.664
20.711
11.646
2.518
-6.624
-15.732
-24.755
-33.641
-42.342
-50.807
-58.988
-66.838
-74.31
-81.362
-87.953
-94.043
-99.598
-104.584
-108.973
-112.738
-115.858
-118.314
-120.093
-121.183
-121.579
-121.278
-120.282
-118.596
-116.231
-113.199
-109.519
-105.211
-100.3
-94.814
-88.785
-82.247
-75.237
-67.795
-59.962
-51.783
-43.303
-34.568
-25.626
-16.525
-7.313
1.961
11.25
20.506
29.684
38.737
47.623
56.3
64.728
72.87
80.691
88.159
95.244
101.921
108.164
113.954
119.275
124.111
128.452
132.292
135.627
138.457
140.786
142.621
143.972
144.853
145.28
145.274
144.856
144.051
142.886
141.391
139.596
137.534
135.241
132.751
130.101
127.328
124.471
121.567
118.653
115.766
112.943
110.219
107.627
105.2
102.97
100.965
99.211
97.735
96.558
95.699
95.175
94.997
95.176
95.719
96.628
97.903
99.54
101.532
103.868
106.536
109.517
112.792
116.337
120.127
124.131
128.318
132.651
137.09
141.594
146.12
150.623
155.057
159.376
163.535
167.489
171.196
174.615
177.705
180.424
182.728
184.579
185.941
186.78
187.068
186.778
185.887
184.379
182.251
179.498
176.112
172.082
167.389
162.021
155.984
149.29
141.959
134.02
125.511
116.483
107.015
97.18
87.05
76.689
66.14
55.46
44.73
34.049
23.53
13.28
3.368
-6.156
-15.242
-23.864
-32.022
-39.743
-47.102
-54.194
-61.078
-67.8
-74.41
-80.967
-87.575
-94.416
-101.717
-109.583
-117.978
-126.721
-135.433
-143.711
-151.21
-157.443
-161.774
-163.914
-163.962
-162.354
-160.346
-159.324
-159.913
-162.762
-167.798
-173.238
-178.325
-182.585
-185.159
-187.183
-186.071
-175.255
-148.458
-98.195
-24.054
66.073
163.869
259.552
347.897
429.832
504.277
569.318
622.373
659.02
677.135
677.156
659.677
625.697
576.945
515.465
443.721
364.803
281.99
197.896
115.133
36.701
-34.978
-97.996
-150.636
-191.994
-222.119
-241.3
-250.121
-249.814
-241.731
-227.193
-207.972
-185.839
-162.015
-137.557
-113.7
-91.551
-72.046
-56.141
-44.157
-35.881
-31.215
-29.913
-31.196
-33.984
-37.22
-39.807
-41.155
-41.205
-39.925
-37.418
-34.128
-30.726
-27.816
-25.905
-25.181
-25.477
-26.58
-28.267
-30.24
-32.147
-33.742
-34.868
-35.486
-35.705
-35.642
-35.394
-35.068
-34.764
-34.547
-34.474
-34.595
-34.94
-35.561
-36.497
-37.767
-39.386
-41.351
-43.648
-46.255
-49.136
-52.245
-55.543
-58.997
-62.582
-66.276
-70.053
-73.886
-77.745
-81.599
-85.419
-89.175
-92.841
-96.391
-99.805
-103.065
-106.16
-109.079
-111.813
-114.35
-116.678
-118.787
-120.668
-122.315
-123.723
-124.886
-125.805
-126.482
-126.92
-127.126
-127.104
-126.864
-126.412
-125.759
-124.914
-123.888
-122.692
-121.339
-119.841
-118.213
-116.467
-114.62
-112.685
-110.677
-108.612
-106.504
-104.368
-102.218
-100.069
-97.932
-95.822
-93.751
-91.729
-89.767
-87.876
-86.063
-84.338
-82.709
-81.181
-79.762
-78.456
-77.268
-76.202
-75.262
-74.452
-73.775
-73.233
-72.829
-72.565
-72.443
-72.464
-72.629
-72.939
-73.394
-73.993
-74.736
-75.622
-76.649
-77.816
-79.12
-80.56
-82.133
-83.836
-85.667
-87.624
-89.702
-91.9
-94.215
-96.642
-99.178
-101.82
-104.563
-107.402
-110.332
-113.348
-116.443
-119.611
-122.845
-126.137
-129.48
-132.864
-136.281
-139.721
-143.177
-146.638
-150.095
-153.537
-156.957
-160.343
-163.688
-166.981
-170.213
-173.376
-176.46
-179.456
-182.356
-185.15
-187.83
-190.387
-192.812
-195.098
-197.237
-199.222
-201.046
-202.703
-204.188
-205.495
-206.62
-207.559
-208.31
-208.871
-209.24
-209.416
-209.399
-209.191
-208.793
-208.207
-207.436
-206.482
-205.35
-204.043
-202.566
-200.925
-199.124
-197.17
-195.07
-192.831
-190.46
-187.968
-185.363
-182.654
-179.853
-176.97
-174.016
-171.002
-167.941
-164.845
-161.726
-158.597
-155.471
-152.362
-149.283
-146.246
-143.266
-140.356
-137.528
-134.796
-132.172
-129.669
-127.299
-125.075
-123.009
-121.112
-119.395
-117.868
-116.543
-115.427
-114.529
-113.856
-113.414
-113.207
-113.24
-113.514
-114.031
-114.79
-115.789
-117.026
-118.495
-120.191
-122.104
-124.226
-126.546
-129.05
-131.725
-134.555
-137.523
-140.61
-143.797
-147.063
-150.387
-153.745
-157.114
-160.468
-163.783
-167.032
-170.189
-173.228
-176.122
-178.847
-181.375
-183.684
-185.749
-187.547
-189.057
-190.26
-191.138
-191.672
-191.85
-191.658
-191.086
-190.127
-188.774
-187.025
-184.88
-182.341
-179.412
-176.101
-172.417
-168.373
-163.984
-159.266
-154.239
-148.924
-143.346
-137.529
-131.501
-125.291
-118.927
-112.441
-105.863
-99.227
-92.563
-85.903
-79.28
-72.724
-66.266
-59.934
-53.756
-47.759
-41.967
-36.402
-31.084
-26.032
-21.262
-16.785
-12.614
-8.756
-5.216
-1.998
0.898
3.476
5.739
7.697
9.358
10.738
11.85
12.71
13.339
13.755
13.98
14.037
13.949
13.742
13.438
13.064
12.645
12.205
11.769
11.36
10.999
10.706
10.502
10.403
10.425
10.58
10.88
11.333
11.949
12.731
13.682
14.803
16.092
17.544
19.151
20.904
22.788
24.785
26.878
29.048
31.273
33.532
35.803
38.065
40.301
42.491
44.616
46.653
48.58
50.375
52.023
53.505
54.809
55.923
56.834
57.542
58.051
58.358
58.462
58.35
58.001
57.405
56.559
55.468
54.141
52.592
50.843
48.931
46.915
44.849
42.788
40.771
38.828
37.013
35.396
34.057
33.093
32.577
32.548
33.037
34.072
35.647
37.75
40.336
43.292
46.525
49.945
53.451
56.955
60.316
63.312
65.659
67.11
67.573
67.147
66.113
64.821
63.64
63.004
63.542
65.796
69.882
75.343
81.006
85.42
87.29
86.247
83.104
78.978
75.536
72.697
66.63
54.574
36.334
17.237
13.916
44.226
118.913
239.211
388.56
541.128
674.723
773.999
837.078
872.942
892.556
903.915
908.378
901.98
878.792
835.228
772.449
694.501
606.381
512.416
415.668
318.208
222.47
131.929
49.669
-21.645
-79.785
-124.052
-154.54
-171.241
-174.951
-167.517
-151.102
-128.503
-102.766
-75.794
-49.118
-24.515
-3.225
13.941
26.593
35.273
41.021
44.408
46.144
47.326
48.714
51.109
55.069
60.412
66.644
73.305
79.69
84.979
88.701
90.437
89.989
87.592
83.593
78.447
72.745
67.04
61.682
56.894
52.77
49.299
46.494
44.36
42.896
42.069
41.833
42.17
43.045
44.395
46.112
48.017
49.902
51.621
53.08
54.224
55.038
55.504
55.598
55.323
54.674
53.643
52.235
50.441
48.26
45.717
42.857
39.749
36.49
33.155
29.799
26.468
23.193
20.002
16.926
13.982
11.182
8.546
6.097
3.863
1.877
0.165
-1.255
-2.369
-3.169
-3.649
-3.798
-3.61
-3.076
-2.19
-0.944
0.67
2.661
5.036
7.796
10.937
14.455
18.34
22.584
27.172
32.089
37.317
42.837
48.629
54.673
60.944
67.419
74.071
80.871
87.792
94.803
101.873
108.969
116.06
123.111
130.091
136.965
143.702
150.27
156.638
162.774
168.65
174.235
179.503
184.426
188.977
193.134
196.872
200.172
203.015
205.384
207.265
208.646
209.517
209.87
209.7
209.002
207.776
206.022
203.744
200.948
197.642
193.835
189.542
184.777
179.557
173.902
167.833
161.372
154.543
147.373
139.888
132.116
124.087
115.831
107.378
98.76
90.01
81.16
72.245
63.295
54.342
45.417
36.551
27.775
19.124
10.621
2.291
-5.832
-13.714
-21.327
-28.639
-35.638
-42.319
-48.653
-54.612
-60.214
-65.471
-70.391
-74.996
-79.258
-83.127
-86.629
-89.811
-92.555
-94.72
-96.4
-97.595
-98.288
-98.8
-98.31
-96.022
-93.11
-89.945
-88.675
-91.872
-96.731
-101.393
-103.078
-97.96
-89.465
-80.502
-73.072
-70.465
-70.368
-70.435
-70.162
-68.125
-65.183
-62.431
-59.684
-57.094
-54.606
-52.017
-49.483
-47.131
-44.935
-42.895
-41.036
-39.359
-37.863
-36.547
-35.393
-34.378
-33.511
-32.801
-32.242
-31.831
-31.562
-31.429
-31.427
-31.552
-31.793
-32.14
-32.584
-33.114
-33.72
-34.392
-35.12
-35.894
-36.705
-37.544
-38.403
-39.273
-40.147
-41.018
-41.879
-42.724
-43.548
-44.345
-45.112
-45.847
-46.547
-47.211
-47.837
-48.428
-48.982
-49.501
-49.987
-50.443
-50.87
-51.273
-51.656
-52.022
-52.378
-52.728
-53.078
-53.433
-53.799
-54.18
-54.581
-55.005
-55.457
-55.939
-56.453
-57
-57.582
-58.199
-58.852
-59.538
-60.255
-61.002
-61.774
-62.567
-63.374
-64.19
-65.007
-65.818
-66.615
-67.389
-68.13
-68.83
-69.478
-70.063
-70.574
-71
-71.328
-71.546
-71.642
-71.603
-71.416
-71.074
-70.569
-69.893
-69.036
-67.986
-66.737
-65.291
-63.639
-61.76
-59.638
-57.256
-54.614
-51.734
-48.624
-45.262
-41.667
-37.9
-34.011
-30.054
-26.046
-21.925
-17.678
-13.389
-9.004
-4.263
0.89
6.354
12.148
17.982
24.314
32.829
43.262
53.986
62.517
64.023
58.458
50.72
45.577
49.822
64.308
82.485
99.257
109.26
111.196
109.909
108.48
108.879
111.846
115.403
118.562
121.399
123.819
126.099
128.327
130.223
131.69
132.769
133.45
133.717
133.582
133.061
132.179
130.982
129.489
127.681
125.559
123.131
120.406
117.396
114.112
110.566
106.78
102.776
98.567
94.161
89.555
84.752
79.767
74.619
69.327
63.919
58.426
52.896
47.402
42.004
36.761
31.719
26.906
22.374
18.186
14.41
11.125
8.385
6.215
4.634
3.656
3.259
3.406
4.031
4.993
6.158
7.389
8.538
9.499
10.153
10.318
9.758
8.304
5.956
2.923
-0.459
-3.914
-7.215
-10.051
-11.891
-12.269
-11.209
-9.288
-7.415
-6.299
-6.332
-7.885
-11.382
-17.137
-23.777
-27.912
-27.138
-19.967
-6.935
8.708
29.22
60.753
108.347
177.952
266.876
364.306
461.627
549.713
623.016
682.051
725.823
752.902
762.693
753.478
724.247
675.856
610.631
531.798
443.526
350.541
256.319
163.973
77.614
0.473
-65.006
-116.309
-154.068
-180.389
-195.057
-199.589
-194.114
-176.786
-153.062
-128.952
-110.387
-106.938
-116.513
-129.974
-139.663
-132.788
-107.011
-73.163
-38.689
-13.637
-3.081
1.848
6.531
14.644
29.702
46.415
61.096
73.313
81.456
86.798
90.699
92.746
93.14
92.128
89.707
86.214
82.039
77.35
72.353
67.366
62.574
58.032
53.81
49.92
46.37
43.278
40.712
38.669
37.149
36.096
35.444
35.151
35.118
35.223
35.35
35.355
35.147
34.7
33.985
32.993
31.72
30.138
28.236
26.025
23.512
20.714
17.663
14.404
10.994
7.483
3.966
0.584
-2.554
-5.358
-7.779
-9.852
-11.572
-12.835
-13.689
-14.396
-15.018
-15.455
-15.728
-15.552
-15.387
-16.915
-19.906
-22.781
-23.126
-16.205
-1.979
14.69
29.078
34.464
29.946
21.954
15.483
15.782
24.117
35.678
47.38
57.247
64.5
71.046
77.823
84.715
91.773
98.683
105.32
111.92
118.541
125.11
131.603
138.004
144.277
150.384
156.275
161.883
167.168
172.131
176.759
181.032
184.934
188.448
191.56
194.265
196.552
198.41
199.828
200.801
201.324
201.396
201.016
200.185
198.908
197.188
195.033
192.45
189.449
186.04
182.236
178.05
173.497
168.594
163.359
157.809
151.965
145.848
139.478
132.878
126.07
119.076
111.919
104.623
97.211
89.707
82.136
74.521
66.886
59.257
51.657
44.11
36.639
29.266
22.013
14.903
7.954
1.187
-5.38
-11.73
-17.845
-23.712
-29.316
-34.644
-39.688
-44.436
-48.881
-53.018
-56.842
-60.349
-63.539
-66.41
-68.964
-71.205
-73.136
-74.764
-76.097
-77.143
-77.915
-78.425
-78.688
-78.719
-78.537
-78.16
-77.611
-76.909
-76.08
-75.148
-74.139
-73.079
-71.996
-70.919
-69.877
-68.899
-68.014
-67.253
-66.644
-66.217
-66.002
-66.027
-66.319
-66.907
-67.816
-69.074
-70.704
-72.729
-75.171
-78.05
-81.385
-85.191
-89.482
-94.271
-99.565
-105.372
-111.696
-118.536
-125.892
-133.756
-142.122
-150.976
-160.305
-170.09
-180.311
-190.943
-201.96
-213.333
-225.03
-237.017
-249.258
-261.714
-274.345
-287.109
-299.961
-312.857
-325.751
-338.594
-351.34
-363.941
-376.348
-388.515
-400.393
-411.938
-423.104
-433.847
-444.127
-453.903
-463.139
-471.802
-479.861
-487.289
-494.063
-500.164
-505.578
-510.293
-514.304
-517.607
-520.204
-522.1
-523.306
-523.834
-523.701
-522.929
-521.543
-519.572
-517.049
-514.01
-510.492
-506.537
-502.189
-497.493
-492.497
-487.248
-481.797
-476.194
-470.49
-464.737
-458.986
-453.288
-447.69
-442.241
-436.985
-431.963
-427.215
-422.774
-418.672
-414.936
-411.588
-408.648
-406.133
-404.056
-402.426
-401.25
-400.533
-400.276
-400.478
-401.129
-402.218
-403.726
-405.631
-407.906
-410.521
-413.443
-416.638
-420.073
-423.714
-427.527
-431.483
-435.545
-439.675
-443.825
-447.945
-451.988
-455.919
-459.707
-463.331
-466.782
-470.065
-473.193
-476.184
-479.046
-481.773
-484.342
-486.712
-488.847
-490.71
-492.292
-493.599
-494.638
-495.409
-495.908
-496.125
-496.026
-495.558
-494.645
-493.199
-491.164
-488.525
-485.326
-481.662
-477.64
-473.376
-468.939
-464.364
-459.702
-455.024
-450.413
-445.941
-441.681
-437.701
-434.145
-431.255
-429.164
-427.832
-427.023
-426.407
-425.814
-425.313
-425.04
-424.961
-425.096
-425.678
-427.267
-430.58
-435.848
-442.575
-449.884
-457.127
-463.81
-469.367
-472.921
-473.343
-470.093
-463.612
-454.94
-444.9
-433.971
-422.5
-410.977
-400.178
-390.569
-381.905
-373.443
-364.561
-354.97
-344.589
-333.38
-321.147
-307.734
-293.279
-278.186
-262.845
-247.528
-232.427
-217.726
-203.619
-190.227
-177.493
-165.11
-152.667
-139.793
-126.07
-110.997
-94.231
-75.636
-55.498
-34.816
-14.792
3.409
19.565
34.681
49.66
65.703
81.611
93.609
101.369
106.596
116.8
147.087
207.02
301.174
426.501
566.593
705.389
828.425
924.169
991.776
1034.743
1059.55
1073.032
1077.419
1071.572
1051.705
1016.196
967.086
908.264
845.086
781.307
718.49
658.205
602.48
552.774
510.279
475.767
448.803
429.119
417.034
412.075
412.803
418.021
426.439
436.777
448.99
462.674
476.521
489.919
502.791
514.896
526.378
537.319
546.767
554.318
560.496
565.376
568.948
571.31
572.115
571.167
568.884
565.261
559.814
552.424
543.018
531.597
518.55
504.176
488.581
472.14
455.365
438.585
422.086
406.066
390.563
375.706
361.692
348.599
336.435
325.188
314.8
305.232
296.435
288.29
280.609
273.198
265.912
258.669
251.434
244.184
236.889
229.519
222.056
214.508
206.884
199.193
191.442
183.641
175.828
168.064
160.434
153.035
145.936
139.19
132.833
126.894
121.395
116.357
111.79
107.69
104.064
100.92
98.272
96.133
94.511
93.402
92.799
92.69
93.064
93.912
95.22
96.977
99.17
101.785
104.811
108.237
112.047
116.221
120.735
125.561
130.671
136.035
141.621
147.394
153.322
159.368
165.5
171.683
177.884
184.068
190.2
196.248
202.178
207.956
213.552
218.934
224.073
228.941
233.51
237.756
241.656
245.19
248.339
251.085
253.416
255.317
256.779
257.795
258.357
258.465
258.118
257.318
256.07
254.382
252.264
249.728
246.788
243.459
239.759
235.707
231.323
226.628
221.646
216.398
210.91
205.207
199.314
193.256
187.059
180.75
174.354
167.896
161.401
154.894
148.4
141.94
135.538
129.215
122.99
116.883
110.911
105.089
99.431
93.95
88.657
83.56
78.668
73.985
69.515
65.261
61.221
57.396
53.782
50.375
47.168
44.156
41.329
38.68
36.199
33.875
31.699
29.657
27.738
25.93
24.22
22.596
21.045
19.554
18.111
16.704
15.323
13.956
12.594
11.228
9.849
8.45
7.025
5.569
4.079
2.55
0.983
-0.624
-2.268
-3.947
-5.657
-7.393
-9.15
-10.921
-12.698
-14.474
-16.24
-17.987
-19.706
-21.387
-23.02
-24.595
-26.101
-27.529
-28.868
-30.109
-31.243
-32.261
-33.156
-33.921
-34.549
-35.035
-35.374
-35.563
-35.598
-35.478
-35.203
-34.773
-34.192
-33.461
-32.587
-31.575
-30.432
-29.167
-27.788
-26.306
-24.731
-23.075
-21.348
-19.565
-17.737
-15.878
-14
-12.119
-10.247
-8.397
-6.583
-4.818
-3.114
-1.481
0.067
1.522
2.873
4.111
5.228
6.216
7.068
7.778
8.342
8.756
9.018
9.125
9.077
8.875
8.521
8.016
7.365
6.569
5.635
4.568
3.372
2.055
0.624
-0.914
-2.551
-4.28
-6.092
-7.979
-9.933
-11.947
-14.013
-16.125
-18.275
-20.457
-22.664
-24.891
-27.131
-29.38
-31.632
-33.882
-36.126
-38.36
-40.581
-42.786
-44.973
-47.138
-49.28
-51.397
-53.487
-55.549
-57.58
-59.579
-61.546
-63.48
-65.38
-67.245
-69.076
-70.871
-72.629
-74.349
-76.028
-77.664
-79.253
-80.792
-82.276
-83.703
-85.066
-86.362
-87.586
-88.732
-89.794
-90.767
-91.646
-92.425
-93.095
-93.652
-94.089
-94.403
-94.588
-94.639
-94.553
-94.325
-93.953
-93.434
-92.766
-91.947
-90.974
-89.846
-88.564
-87.13
-85.548
-83.822
-81.959
-79.968
-77.859
-75.644
-73.339
-70.96
-68.522
-66.04
-63.53
-61.007
-58.487
-55.986
-53.521
-51.109
-48.763
-46.497
-44.326
-42.271
-40.35
-38.578
-36.964
-35.503
-34.204
-33.079
-32.149
-31.439
-30.967
-30.734
-30.751
-31.036
-31.601
-32.447
-33.557
-34.874
-36.342
-37.922
-39.595
-41.374
-43.251
-45.174
-47.061
-48.812
-50.37
-51.744
-52.945
-53.924
-54.588
-54.912
-55.06
-55.412
-56.345
-58.035
-60.401
-63.264
-66.728
-70.965
-75.845
-80.833
-85.067
-87.85
-89.264
-89.907
-89.979
-89.465
-88.563
-87.861
-88.843
-93.112
-101.099
-112.324
-126.252
-142.33
-159.996
-178.29
-194.84
-206.629
-211.348
-207.264
-193.276
-168.646
-132.303
-83.614
-23.478
46.053
122.257
201.779
281.671
359.038
429.871
490.064
536.275
566.016
578.231
573.195
551.225
513.005
460.875
398.041
328.018
254.433
180.098
107.168
38.011
-25.012
-80.569
-128.149
-167.646
-199.247
-223.004
-239.022
-247.739
-249.926
-246.242
-236.986
-222.654
-204.1
-182.298
-158.301
-133.393
-108.843
-85.815
-65.692
-49.375
-37.048
-28.711
-24.043
-22.15
-21.883
-22.143
-21.737
-19.913
-16.51
-11.503
-5.092
2.163
9.54
16.419
22.275
26.87
30.308
32.767
34.463
35.704
36.82
38.026
39.447
41.1
42.873
44.651
46.332
47.802
48.957
49.734
50.074
49.933
49.283
48.077
46.281
43.882
40.873
37.266
33.089
28.38
23.187
17.571
11.59
5.295
-1.263
-8.037
-14.973
-22.016
-29.104
-36.174
-43.162
-50.004
-56.633
-62.987
-69.007
-74.638
-79.826
-84.523
-88.677
-92.241
-95.166
-97.408
-98.922
-99.673
-99.624
-98.745
-97.012
-94.405
-90.911
-86.522
-81.232
-75.044
-67.962
-59.997
-51.164
-41.483
-30.979
-19.68
-7.622
5.159
18.62
32.715
47.395
62.606
78.291
94.392
110.847
127.592
144.563
161.692
178.912
196.156
213.355
230.442
247.349
264.011
280.362
296.339
311.881
326.931
341.431
355.33
368.578
381.128
392.936
403.964
414.175
423.538
432.023
439.605
446.265
451.984
456.751
460.555
463.392
465.261
466.163
466.106
465.098
463.153
460.288
456.52
451.874
446.373
440.046
432.922
425.034
416.414
407.099
397.126
386.533
375.359
363.643
351.427
338.752
325.657
312.185
298.377
284.273
269.913
255.339
240.589
225.703
210.718
195.671
180.598
165.536
150.517
135.574
120.739
106.042
91.511
77.173
63.055
49.181
35.573
22.253
9.239
-3.451
-15.8
-27.795
-39.421
-50.668
-61.527
-71.988
-82.046
-91.693
-100.927
-109.744
-118.144
-126.126
-133.691
-140.842
-147.582
-153.916
-159.851
-165.392
-170.548
-175.327
-179.739
-183.795
-187.505
-190.879
-193.933
-196.68
-199.133
-201.309
-203.218
-204.874
-206.292
-207.491
-208.476
-209.254
-209.831
-210.213
-210.418
-210.473
-210.376
-210.125
-209.759
-209.307
-208.796
-208.259
-207.681
-207.022
-206.312
-205.601
-204.775
-203.699
-202.458
-201.047
-199.441
-197.941
-195.74
-192.056
-188.008
-183.937
-181.902
-184.367
-188.605
-192.796
-194.235
-189.202
-180.989
-172.387
-165.308
-162.913
-162.949
-163.13
-162.953
-161.029
-158.174
-155.437
-152.626
-149.883
-147.149
-144.22
-141.245
-138.345
-135.494
-132.694
-129.968
-127.325
-124.766
-122.299
-119.913
-117.594
-115.363
-113.238
-111.223
-109.329
-107.562
-105.928
-104.436
-103.094
-101.905
-100.872
-99.999
-99.286
-98.734
-98.346
-98.119
-98.052
-98.142
-98.386
-98.78
-99.317
-99.994
-100.803
-101.738
-102.792
-103.958
-105.227
-106.593
-108.047
-109.582
-111.189
-112.861
-114.589
-116.367
-118.185
-120.036
-121.913
-123.809
-125.717
-127.63
-129.542
-131.447
-133.339
-135.214
-137.068
-138.896
-140.693
-142.457
-144.184
-145.872
-147.517
-149.116
-150.667
-152.167
-153.612
-155.001
-156.331
-157.598
-158.799
-159.931
-160.989
-161.972
-162.874
-163.691
-164.42
-165.056
-165.594
-166.032
-166.365
-166.589
-166.701
-166.696
-166.571
-166.324
-165.953
-165.454
-164.825
-164.064
-163.171
-162.146
-160.987
-159.698
-158.28
-156.739
-155.082
-153.316
-151.45
-149.493
-147.454
-145.344
-143.173
-140.949
-138.682
-136.381
-134.056
-131.723
-129.395
-127.085
-124.807
-122.574
-120.397
-118.29
-116.263
-114.318
-112.457
-110.69
-109.028
-107.495
-106.109
-104.878
-103.805
-102.892
-102.129
-101.502
-100.982
-100.52
-100.068
-99.584
-99.034
-98.401
-97.658
-96.757
-95.643
-94.25
-92.53
-90.468
-88.044
-85.24
-82.079
-78.612
-74.931
-71.18
-67.455
-63.832
-60.404
-57.256
-54.509
-52.318
-50.79
-50.056
-50.292
-51.497
-53.574
-56.327
-59.264
-61.887
-63.822
-64.487
-63.313
-60.259
-55.507
-49.618
-43.787
-38.82
-35.069
-33.164
-33.492
-35.512
-38.161
-39.413
-36.106
-25.899
-7.201
21.905
62.774
115.626
179.794
252.785
330.246
408.368
483.722
552.019
609.258
651.99
677.276
684.107
673.402
645.991
602.805
546.136
478.683
403.591
324.628
244.683
165.729
90.087
20.331
-41.816
-95.084
-138.765
-173.261
-198.949
-215.998
-225.014
-227.267
-224.015
-216.239
-205.023
-190.884
-174.026
-156.137
-139.047
-122.645
-107.507
-92.302
-74.938
-58.797
-46.166
-39.753
-42.715
-50.339
-58.5
-64.182
-63.449
-58.267
-50.773
-41.522
-32.419
-23.523
-14.536
-6.212
1.311
7.98
13.682
18.702
23.384
28.014
32.795
37.82
43.094
48.529
53.989
59.258
64.257
69.178
74.019
78.602
82.902
86.561
90.09
95.351
101.976
108.142
110.999
105.117
90.649
73.136
58.043
53.119
59.154
68.846
76.537
76.205
66.627
53.327
39.787
28.324
19.776
11.98
3.937
-4.207
-12.484
-20.51
-28.141
-35.628
-43.015
-50.198
-57.14
-63.813
-70.167
-76.149
-81.693
-86.714
-91.177
-95.085
-98.414
-101.122
-103.177
-104.562
-105.297
-105.409
-104.893
-103.763
-102.09
-99.98
-97.54
-94.824
-91.811
-88.476
-84.887
-81.023
-76.627
-71.497
-65.634
-59.146
-52.384
-44.788
-34.641
-21.32
-6.023
6.87
10.937
3.604
-11.831
-26.346
-29.27
-16.043
9.304
36.586
55.951
63.094
61.247
57.702
56.432
58.703
61.641
60.63
57.27
53.466
52.081
56.982
64.855
72.7
78.589
79.472
77.567
75.127
72.684
71.656
71.324
70.727
70.072
69.221
68.248
67.376
66.481
65.465
64.368
63.2
61.956
60.648
59.291
57.893
56.476
55.064
53.649
52.221
50.782
49.33
47.861
46.374
44.861
43.313
41.727
40.096
38.415
36.677
34.876
33.004
31.057
29.03
26.916
24.713
22.417
20.025
17.535
14.947
12.26
9.475
6.594
3.62
0.556
-2.593
-5.821
-9.122
-12.488
-15.91
-19.381
-22.89
-26.426
-29.977
-33.533
-37.079
-40.603
-44.091
-47.529
-50.903
-54.199
-57.402
-60.5
-63.478
-66.324
-69.026
-71.572
-73.952
-76.155
-78.172
-79.995
-81.618
-83.034
-84.239
-85.228
-85.999
-86.55
-86.883
-86.996
-86.893
-86.577
-86.052
-85.325
-84.401
-83.29
-81.999
-80.541
-78.926
-77.168
-75.28
-73.276
-71.172
-68.985
-66.73
-64.425
-62.086
-59.73
-57.375
-55.037
-52.732
-50.477
-48.286
-46.175
-44.157
-42.245
-40.452
-38.788
-37.263
-35.887
-34.666
-33.607
-32.715
-31.994
-31.445
-31.069
-30.866
-30.833
-30.966
-31.259
-31.705
-32.295
-33.019
-33.864
-34.817
-35.864
-36.99
-38.178
-39.412
-40.674
-41.948
-43.214
-44.456
-45.655
-46.796
-47.861
-48.835
-49.702
-50.448
-51.061
-51.528
-51.84
-51.987
-51.961
-51.756
-51.366
-50.789
-50.022
-49.066
-47.922
-46.594
-45.086
-43.408
-41.57
-39.585
-37.466
-35.226
-32.879
-30.443
-27.936
-25.376
-22.783
-20.176
-17.576
-15.004
-12.482
-10.036
-7.683
-5.439
-3.321
-1.34
0.488
2.141
3.605
4.865
5.911
6.732
7.32
7.664
7.762
7.617
7.236
6.634
5.819
4.793
3.563
2.126
0.503
-1.268
-3.149
-5.09
-7.066
-9.081
-11.12
-13.156
-15.162
-17.084
-18.925
-20.772
-22.567
-24.139
-25.335
-25.947
-25.978
-25.721
-25.276
-24.531
-23.655
-22.95
-22.775
-23.721
-25.78
-28.252
-30.773
-33.253
-35.366
-36.804
-37.081
-35.322
-31.503
-26.492
-20.817
-14.815
-8.862
-3.11
2.036
5.782
8.028
9.341
10.083
10.554
10.95
11.177
11.353
11.843
12.692
13.689
14.691
15.522
16.118
16.582
16.915
17.038
16.94
16.626
16.116
15.478
14.738
13.889
12.948
11.906
10.765
9.553
8.29
7.032
5.855
4.821
4.042
3.652
3.7
4.18
4.975
5.805
6.437
6.711
6.409
5.428
3.954
2.424
1.596
2.385
5.449
11.191
19.972
31.93
46.615
62.922
79.197
93.717
105.173
112.704
115.489
112.646
104.038
90.562
73.785
55.544
37.458
20.655
6.617
-2.262
-3.907
3.055
19.717
46.537
83.94
133.082
194.273
266.034
346.365
432.565
521.102
608.972
692.617
766.814
826.901
869.516
891.786
892.662
872.448
830.999
769.638
692.009
602.015
504.09
403.206
302.855
206.217
117.504
39.678
-25.68
-77.479
-116.398
-143.925
-160.77
-168.267
-168.817
-164.49
-157.403
-149.264
-140.05
-129.569
-118.218
-106.204
-93.73
-80.886
-67.224
-52.786
-38.808
-26.354
-16.052
-8.072
-1.783
3.277
7.069
9.819
12.235
14.866
18.046
21.687
25.024
27.478
28.901
29.21
28.372
26.5
23.768
20.468
17.128
14.109
11.543
9.511
7.98
6.881
6.191
5.862
5.815
6.062
6.622
7.461
8.548
9.78
10.992
12.079
12.962
13.565
13.862
13.845
13.513
12.915
12.105
11.111
9.942
8.58
7.005
5.23
3.283
1.214
-0.909
-3.029
-5.091
-7.037
-8.824
-10.419
-11.799
-12.959
-13.902
-14.621
-15.101
-15.325
-15.267
-14.915
-14.259
-13.291
-12.008
-10.411
-8.502
-6.291
-3.784
-0.989
2.091
5.453
9.097
13.019
17.215
21.677
26.397
31.366
36.573
42.003
47.643
53.477
59.49
65.666
71.992
78.449
85.022
91.693
98.444
105.258
112.116
118.999
125.887
132.762
139.603
146.391
153.108
159.734
166.25
172.64
178.883
184.963
190.862
196.561
202.043
207.289
212.282
217.003
221.436
225.564
229.37
232.84
235.96
238.717
241.098
243.091
244.685
245.873
246.644
246.992
246.912
246.398
245.449
244.064
242.242
239.987
237.3
234.186
230.653
226.706
222.355
217.61
212.481
206.982
201.128
194.932
188.414
181.59
174.481
167.107
159.489
151.651
143.615
135.405
127.045
118.561
109.978
101.321
92.616
83.887
75.161
66.462
57.814
49.241
40.766
32.411
24.197
16.145
8.273
0.601
-6.855
-14.078
-21.053
-27.767
-34.207
-40.361
-46.222
-51.78
-57.029
-61.966
-66.585
-70.886
-74.869
-78.534
-81.886
-84.928
-87.666
-90.108
-92.262
-94.139
-95.75
-97.108
-98.226
-99.119
-99.801
-100.289
-100.6
-100.75
-100.757
-100.638
-100.413
-100.099
-99.714
-99.278
-98.808
-98.323
-97.841
-97.378
-96.951
-96.576
-96.268
-96.042
-95.911
-95.887
-95.982
-96.206
-96.568
-97.075
-97.733
-98.547
-99.52
-100.653
-101.946
-103.398
-105.005
-106.762
-108.664
-110.703
-112.869
-115.154
-117.544
-120.027
-122.589
-125.216
-127.89
-130.594
-133.313
-136.026
-138.716
-141.363
-143.947
-146.449
-148.849
-151.127
-153.264
-155.24
-157.036
-158.633
-160.016
-161.167
-162.07
-162.712
-163.08
-163.163
-162.95
-162.435
-161.61
-160.472
-159.018
-157.247
-155.163
-152.769
-150.071
-147.077
-143.797
-140.245
-136.434
-132.38
-128.1
-123.614
-118.941
-114.106
-109.132
-104.044
-98.871
-93.638
-88.376
-83.115
-77.883
-72.711
-67.629
-62.666
-57.854
-53.22
-48.794
-44.604
-40.674
-37.031
-33.697
-30.694
-28.04
-25.75
-23.838
-22.314
-21.186
-20.459
-20.135
-20.212
-20.686
-21.554
-22.808
-24.437
-26.426
-28.758
-31.414
-34.374
-37.611
-41.093
-44.787
-48.659
-52.67
-56.789
-60.975
-65.191
-69.395
-73.547
-77.607
-81.544
-85.316
-88.876
-92.178
-95.173
-97.83
-100.134
-102.067
-103.604
-104.728
-105.425
-105.688
-105.527
-104.929
-103.865
-102.309
-100.232
-97.628
-94.522
-90.935
-86.894
-82.412
-77.476
-72.094
-66.299
-60.107
-53.526
-46.56
-39.183
-31.434
-23.418
-15.23
-6.969
1.29
9.515
17.655
25.648
33.428
40.908
48.025
54.749
61.021
66.757
71.868
76.23
79.792
82.601
84.691
86.1
86.851
86.935
86.377
85.244
83.608
81.537
79.089
76.289
73.191
69.884
66.47
63.09
59.838
56.729
53.781
51.009
48.421
46.031
43.817
41.681
39.51
37.225
34.747
32.023
28.999
25.562
21.596
16.975
11.551
5.174
-2.208
-10.516
-19.521
-28.804
-37.911
-46.41
-53.77
-59.354
-62.768
-64.095
-63.844
-63.025
-62.653
-63.23
-65.134
-68.892
-74.52
-81.161
-87.238
-90.083
-86.547
-74.53
-52.464
-18.405
27.86
85.526
154.529
232.197
316.565
406.517
495.666
578.116
646.915
694.525
721.643
729.776
721.146
699.589
663.098
610.757
544.476
465.621
378.642
288.382
197.476
109.052
26.575
-47.391
-110.528
-161.032
-198.594
-223.804
-237.344
-240.604
-235.767
-225.092
-210.912
-195.47
-180.326
-166.342
-153.99
-143.336
-134.137
-125.921
-118.196
-110.493
-102.241
-93.307
-83.941
-74.411
-65.028
-56.132
-47.848
-40.288
-33.924
-28.97
-25.338
-22.941
-21.539
-20.908
-21.006
-21.728
-22.7
-23.603
-24.245
-24.482
-24.34
-23.864
-23.014
-21.798
-20.296
-18.614
-16.868
-15.17
-13.574
-12.122
-10.888
-9.946
-9.389
-9.303
-9.737
-10.707
-12.22
-14.265
-16.827
-19.877
-23.368
-27.239
-31.433
-35.9
-40.595
-45.472
-50.483
-55.573
-60.687
-65.767
-70.763
-75.626
-80.311
-84.775
-88.977
-92.877
-96.441
-99.641
-102.447
-104.833
-106.769
-108.223
-109.182
-109.634
-109.571
-108.989
-107.872
-106.205
-104
-101.277
-98.014
-94.202
-89.84
-84.918
-79.482
-73.6
-67.276
-60.494
-53.404
-46.182
-38.779
-31.242
-23.635
-15.695
-8.28
-2.223
3.567
9.394
17.296
29.725
43.884
57.894
68.982
73.35
74.289
74.585
76.138
82.11
90.193
98.051
105.146
110.046
113.55
116.693
119.263
121.385
122.981
123.823
124.048
123.784
123.004
121.716
119.939
117.651
114.849
111.563
107.766
103.393
98.428
92.849
86.664
79.961
72.778
65.06
56.909
48.611
40.243
31.75
23.19
14.305
5.651
-1.113
-6.327
-11.456
-18.957
-33.451
-54.59
-77.688
-98.062
-109.078
-110.342
-108.064
-107.037
-112.453
-125.157
-140.458
-155.478
-168.234
-178.126
-187.037
-195.801
-204.337
-212.69
-220.556
-227.85
-234.812
-241.507
-247.878
-253.92
-259.636
-265.008
-270.017
-274.634
-278.811
-282.531
-285.814
-288.665
-291.083
-293.072
-294.634
-295.774
-296.505
-296.835
-296.771
-296.319
-295.491
-294.296
-292.748
-290.859
-288.641
-286.109
-283.276
-280.157
-276.767
-273.119
-269.23
-265.114
-260.787
-256.264
-251.56
-246.69
-241.669
-236.512
-231.233
-225.848
-220.369
-214.812
-209.189
-203.514
-197.801
-192.062
-186.31
-180.557
-174.816
-169.098
-163.417
-157.783
-152.208
-146.704
-141.282
-135.953
-130.728
-125.618
-120.634
-115.786
-111.084
-106.538
-102.158
-97.953
-93.933
-90.105
-86.477
-83.058
-79.854
-76.87
-74.114
-71.588
-69.297
-67.244
-65.43
-63.856
-62.522
-61.426
-60.564
-59.934
-59.528
-59.339
-59.361
-59.583
-59.994
-60.582
-61.334
-62.235
-63.269
-64.42
-65.67
-66.999
-68.39
-69.821
-71.273
-72.724
-74.155
-75.544
-76.87
-78.114
-79.254
-80.273
-81.151
-81.87
-82.413
-82.765
-82.912
-82.841
-82.541
-82.002
-81.218
-80.182
-78.891
-77.343
-75.539
-73.482
-71.175
-68.626
-65.841
-62.831
-59.609
-56.189
-52.584
-48.812
-44.89
-40.838
-36.675
-32.421
-28.097
-23.723
-19.32
-14.908
-10.508
-6.14
-1.823
2.425
6.585
10.642
14.579
18.384
22.044
25.549
28.891
32.063
35.061
37.882
40.526
42.995
45.29
47.417
49.382
51.194
52.861
54.396
55.812
57.121
58.339
59.481
60.563
61.601
62.609
63.603
64.598
65.607
66.644
67.721
68.849
70.037
71.295
72.63
74.046
75.548
77.136
78.809
80.563
82.392
84.284
86.227
88.208
90.21
92.215
94.205
96.16
98.061
99.89
101.625
103.245
104.726
106.04
107.162
108.066
108.73
109.131
109.248
109.061
108.554
107.721
106.554
105.04
103.161
100.888
98.204
95.106
91.596
87.686
83.395
78.743
73.772
68.542
63.113
57.54
51.867
46.118
40.333
34.574
28.92
23.468
18.292
13.428
8.902
4.731
0.927
-2.522
-5.667
-8.606
-11.431
-14.221
-17.033
-19.908
-22.932
-26.204
-29.875
-34.153
-39.104
-44.634
-50.5
-56.293
-61.654
-66.327
-69.93
-71.912
-71.978
-70.222
-67.257
-64.218
-61.911
-60.611
-60.418
-61.423
-63.54
-66.077
-67.331
-64.657
-55.639
-38.681
-12.83
22.627
68.534
124.966
190.587
262.775
338.254
414.052
487.794
556.866
617.754
667.281
703.148
723.92
729.459
719.813
694.594
654.336
601.049
537.335
466.391
391.661
315.768
241.628
172.923
112.725
63.21
25.535
-0.607
-16.236
-22.274
-20.375
-13.002
-2.758
7.718
16.67
23.504
27.995
30.062
29.986
28.316
25.941
23.983
22.918
22.666
23.004
23.552
23.995
24.082
23.389
21.435
18.029
13.209
7.167
0.223
-7.378
-15.422
-23.649
-31.782
-39.533
-46.699
-53.175
-58.913
-63.887
-68.079
-71.462
-74.037
-75.86
-76.989
-77.491
-77.429
-76.851
-75.825
-74.43
-72.753
-70.888
-68.906
-66.848
-64.746
-62.622
-60.489
-58.36
-56.236
-54.097
-51.933
-49.735
-47.499
-45.224
-42.907
-40.533
-38.091
-35.568
-32.955
-30.245
-27.43
-24.503
-21.456
-18.285
-14.985
-11.555
-7.988
-4.276
-0.409
3.622
7.828
12.217
16.798
21.581
26.572
31.776
37.197
42.836
48.693
54.767
61.057
67.557
74.261
81.161
88.247
95.507
102.928
110.495
118.188
125.989
133.876
141.828
149.818
157.819
165.805
173.745
181.609
189.364
196.978
204.417
211.645
218.629
225.334
231.725
237.768
243.43
248.678
253.482
257.811
261.637
264.936
267.683
269.856
271.436
272.407
272.754
272.466
271.534
269.952
267.717
264.828
261.289
257.105
252.283
246.836
240.777
234.124
226.895
219.113
210.803
201.991
192.707
182.982
172.848
162.341
151.496
140.35
128.942
117.31
105.494
93.533
81.468
69.339
57.184
45.042
32.952
20.949
9.071
-2.649
-14.178
-25.484
-36.537
-47.308
-57.771
-67.901
-77.674
-87.071
-96.072
-104.66
-112.82
-120.541
-127.811
-134.622
-140.967
-146.842
-152.243
-157.171
-161.626
-165.61
-169.129
-172.187
-174.793
-176.956
-178.685
-179.991
-180.888
-181.389
-181.506
-181.256
-180.652
-179.711
-178.448
-176.881
-175.026
-172.901
-170.522
-167.909
-165.077
-162.046
-158.832
-155.455
-151.93
-148.277
-144.512
-140.653
-136.717
-132.721
-128.682
-124.617
-120.541
-116.47
-112.421
-108.408
-104.444
-100.546
-96.725
-92.994
-89.367
-85.855
-82.47
-79.223
-76.125
-73.186
-70.415
-67.822
-65.414
-63.199
-61.185
-59.377
-57.78
-56.399
-55.238
-54.298
-53.583
-53.093
-52.827
-52.784
-52.961
-53.356
-53.963
-54.776
-55.789
-56.994
-58.384
-59.947
-61.675
-63.557
-65.581
-67.735
-70.006
-72.381
-74.845
-77.386
-79.986
-82.632
-85.307
-87.995
-90.681
-93.349
-95.983
-98.567
-101.086
-103.524
-105.867
-108.101
-110.213
-112.19
-114.021
-115.695
-117.202
-118.535
-119.686
-120.651
-121.423
-122
-122.379
-122.559
-122.54
-122.323
-121.91
-121.303
-120.508
-119.53
-118.374
-117.047
-115.559
-113.917
-112.132
-110.213
-108.173
-106.023
-103.775
-101.441
-99.036
-96.571
-94.061
-91.518
-88.955
-86.386
-83.822
-81.276
-78.758
-76.279
-73.849
-71.476
-69.168
-66.933
-64.778
-62.707
-60.726
-58.839
-57.05
-55.36
-53.772
-52.288
-50.906
-49.626
-48.448
-47.369
-46.386
-45.495
-44.693
-43.975
-43.336
-42.769
-42.27
-41.832
-41.448
-41.111
-40.815
-40.553
-40.318
-40.104
-39.905
-39.714
-39.528
-39.342
-39.152
-38.956
-38.75
-38.534
-38.307
-38.067
-37.815
-37.552
-37.278
-36.995
-36.707
-36.416
-36.126
-35.843
-35.572
-35.318
-35.089
-34.892
-34.734
-34.624
-34.568
-34.575
-34.655
-34.817
-35.069
-35.423
-35.889
-36.48
-37.208
-38.084
-39.117
-40.316
-41.69
-43.243
-44.978
-46.894
-48.991
-51.269
-53.727
-56.362
-59.172
-62.147
-65.281
-68.563
-71.982
-75.522
-79.163
-82.882
-86.659
-90.481
-94.337
-98.224
-102.129
-106.031
-109.907
-113.736
-117.485
-121.121
-124.595
-127.84
-130.8
-133.424
-135.668
-137.496
-138.856
-139.684
-139.914
-139.482
-138.345
-136.484
-133.879
-130.518
-126.412
-121.577
-116.084
-110.055
-103.604
-96.862
-89.957
-82.988
-76.129
-69.613
-63.598
-58.152
-53.17
-48.335
-43.356
-38.025
-32.042
-25.059
-16.816
-7.219
3.255
13.587
22.823
30.206
35.24
37.689
37.465
34.882
31.396
29.479
31.791
40.98
59.038
87.324
127.201
179.464
243.369
316.768
396.6
478.941
560.223
637.32
706.379
763.558
805.95
831.448
838.958
828.846
801.609
757.58
698.366
626.408
544.379
455.684
363.919
271.813
182.312
99.054
24.838
-38.104
-87.812
-123.714
-146.234
-155.755
-153.36
-141.119
-121.054
-94.518
-63.506
-30.872
1.796
30.74
52.619
69.961
83.851
97.066
114.189
132.045
148.267
161.726
169.243
173.405
177.152
180.962
186.202
191.13
193.393
193.515
191.454
189.105
188.855
188.133
185.373
178.302
163.889
145.928
127.567
111.031
99.687
91.521
84.45
78.054
70.964
63.905
57.83
52.486
47.919
43.993
40.42
37.208
34.356
31.695
29.056
26.333
23.433
20.281
16.855
13.133
9.094
4.772
0.224
-4.503
-9.341
-14.228
-19.115
-23.93
-28.591
-33.014
-37.098
-40.763
-43.953
-46.619
-48.713
-50.207
-51.085
-51.335
-50.969
-49.985
-48.35
-46.035
-43.043
-39.335
-34.862
-29.619
-23.572
-16.706
-9.124
-0.918
7.923
17.246
26.757
36.456
46.41
56.473
66.995
77.651
86.794
94.717
102.905
113.542
131.918
159.27
190.368
218.867
235.257
234.288
222.813
210.573
207.859
222.489
249.732
280.043
306.252
322.136
328.924
332.409
335.463
340.258
346.973
353.467
359.123
364.044
368.107
371.624
374.652
376.901
378.283
378.822
378.469
377.209
375.084
372.13
368.389
363.932
358.794
352.982
346.528
339.468
331.833
323.663
314.993
305.858
296.298
286.359
276.086
265.521
254.71
243.696
232.521
221.228
209.859
198.454
187.052
175.691
164.405
153.228
142.192
131.325
120.653
110.202
99.991
90.04
80.365
70.979
61.892
53.114
44.649
36.5
28.668
21.152
13.948
7.05
0.451
-5.859
-11.891
-17.656
-23.17
-28.445
-33.499
-38.346
-43.003
-47.487
-51.814
-56
-60.061
-64.013
-67.868
-71.642
-75.348
-78.996
-82.597
-86.16
-89.694
-93.205
-96.699
-100.178
-103.645
-107.102
-110.547
-113.979
-117.396
-120.794
-124.167
-127.51
-130.815
-134.076
-137.285
-140.432
-143.509
-146.507
-149.417
-152.229
-154.936
-157.528
-159.999
-162.341
-164.548
-166.615
-168.537
-170.312
-171.936
-173.41
-174.732
-175.905
-176.929
-177.81
-178.552
-179.16
-179.641
-180.003
-180.255
-180.406
-180.466
-180.446
-180.358
-180.213
-180.023
-179.801
-179.56
-179.31
-179.065
-178.836
-178.635
-178.471
-178.355
-178.295
-178.299
-178.373
-178.524
-178.755
-179.069
-179.467
-179.951
-180.518
-181.166
-181.892
-182.689
-183.552
-184.474
-185.444
-186.455
-187.496
-188.555
-189.62
-190.68
-191.721
-192.73
-193.693
-194.597
-195.428
-196.173
-196.818
-197.35
-197.759
-198.032
-198.159
-198.131
-197.941
-197.58
-197.045
-196.33
-195.433
-194.353
-193.091
-191.649
-190.03
-188.24
-186.286
-184.174
-181.916
-179.521
-177.002
-174.37
-171.64
-168.825
-165.941
-163.004
-160.029
-157.034
-154.035
-151.05
-148.096
-145.19
-142.348
-139.587
-136.922
-134.367
-131.936
-129.641
-127.495
-125.507
-123.685
-122.037
-120.569
-119.285
-118.187
-117.276
-116.55
-116.006
-115.642
-115.45
-115.423
-115.554
-115.832
-116.248
-116.789
-117.443
-118.198
-119.037
-119.947
-120.91
-121.912
-122.933
-123.957
-124.965
-125.94
-126.864
-127.72
-128.492
-129.163
-129.717
-130.141
-130.421
-130.544
-130.499
-130.276
-129.866
-129.263
-128.462
-127.459
-126.253
-124.844
-123.231
-121.417
-119.407
-117.205
-114.817
-112.25
-109.511
-106.61
-103.557
-100.366
-97.048
-93.621
-90.101
-86.508
-82.864
-79.191
-75.508
-71.838
-68.204
-64.625
-61.121
-57.708
-54.404
-51.223
-48.185
-45.308
-42.606
-40.093
-37.78
-35.676
-33.791
-32.132
-30.699
-29.488
-28.497
-27.729
-27.194
-26.912
-26.893
-27.134
-27.63
-28.368
-29.333
-30.5
-31.825
-33.244
-34.695
-36.123
-37.486
-38.758
-39.892
-40.827
-41.492
-41.806
-41.716
-41.204
-40.252
-38.849
-37.016
-34.795
-32.27
-29.597
-26.916
-24.35
-22.034
-20.076
-18.595
-17.778
-17.841
-18.919
-21.035
-24.024
-27.554
-31.318
-35.011
-38.213
-40.392
-41.078
-40.079
-37.782
-35.067
-32.734
-31.424
-31.606
-33.606
-37.685
-43.606
-49.929
-54.236
-53.964
-46.558
-30.059
-2.984
36.372
88.949
153.906
229.035
311.006
395.606
479.165
557.995
627.223
682.488
720.628
739.265
737.908
717.391
678.079
621.219
549.824
467.043
376.55
282.604
188.178
95.911
9.42
-68.366
-135.381
-189.754
-231.149
-260.402
-278.052
-285.231
-284.166
-277.085
-266.448
-254.801
-243.381
-232.587
-222.808
-214.006
-205.742
-197.541
-188.601
-178.045
-165.792
-152.265
-137.912
-123.324
-109.028
-95.405
-82.999
-72.414
-63.936
-57.647
-53.528
-51.37
-50.987
-52.249
-54.87
-58.483
-62.712
-67.13
-71.442
-75.496
-79.164
-82.368
-85.06
-87.177
-88.702
-89.64
-89.952
-89.629
-88.684
-87.124
-85.034
-82.547
-79.822
-77.078
-74.488
-72.152
-70.145
-68.499
-67.217
-66.314
-65.773
-65.56
-65.671
-66.1
-66.833
-67.87
-69.173
-70.681
-72.322
-73.993
-75.602
-77.077
-78.359
-79.398
-80.163
-80.621
-80.749
-80.542
-79.98
-79.041
-77.703
-75.937
-73.722
-71.048
-67.908
-64.301
-60.232
-55.707
-50.731
-45.316
-39.471
-33.205
-26.531
-19.458
-11.999
-4.173
3.997
12.485
21.263
30.302
39.566
49.019
58.625
68.347
78.149
87.998
97.857
107.682
117.449
127.13
136.695
146.121
155.367
164.387
173.164
181.682
189.886
197.728
205.17
212.162
218.713
224.856
230.553
235.747
240.554
245.118
249.346
253.247
256.85
259.845
263.09
267.423
271.671
275.488
276.713
272.755
266.516
259.934
255.889
258.331
263.801
269.374
273.048
271.507
267.157
262.436
257.899
255.04
253.019
250.752
248.465
246.031
243.536
241.215
238.933
236.582
234.208
231.826
229.428
227.021
224.617
222.219
219.849
217.532
215.253
213
210.771
208.561
206.363
204.172
201.978
199.77
197.541
195.283
192.988
190.648
188.255
185.8
183.277
180.679
178.002
175.241
172.394
169.458
166.434
163.322
160.125
156.844
153.486
150.056
146.559
143.003
139.399
135.758
132.09
128.409
124.728
121.062
117.426
113.836
110.308
106.859
103.505
100.262
97.148
94.18
91.374
88.745
86.308
84.077
82.064
80.28
78.733
77.428
76.369
75.56
74.999
74.682
74.604
74.757
75.133
75.723
76.514
77.493
78.643
79.945
81.382
82.933
84.571
86.266
87.988
89.706
91.391
93.015
94.547
95.954
97.207
98.276
99.138
99.767
100.131
100.19
99.905
99.249
98.214
96.8
95.006
92.826
90.261
87.322
84.03
80.397
76.417
72.064
67.307
62.141
56.581
50.664
44.432
37.9
31.066
23.922
16.477
8.745
0.733
-7.585
-16.244
-25.24
-34.507
-43.923
-53.367
-62.754
-72.032
-81.169
-90.125
-98.834
-107.217
-115.207
-122.761
-129.828
-136.334
-142.164
-147.19
-151.349
-154.663
-157.224
-159.124
-160.411
-161.112
-161.245
-160.848
-159.979
-158.686
-156.996
-154.921
-152.498
-149.793
-146.916
-143.987
-141.074
-138.181
-135.266
-132.295
-129.267
-126.191
-123.081
-119.929
-116.73
-113.503
-110.289
-107.136
-104.073
-101.105
-98.211
-95.372
-92.592
-89.901
-87.344
-84.958
-82.766
-80.79
-79.051
-77.577
-76.389
-75.488
-74.857
-74.479
-74.346
-74.455
-74.809
-75.406
-76.238
-77.292
-78.554
-80.011
-81.651
-83.457
-85.413
-87.497
-89.693
-91.99
-94.382
-96.859
-99.413
-102.033
-104.71
-107.437
-110.206
-113.011
-115.84
-118.687
-121.545
-124.41
-127.279
-130.152
-133.029
-135.911
-138.806
-141.719
-144.657
-147.626
-150.635
-153.69
-156.8
-159.968
-163.2
-166.497
-169.866
-173.312
-176.845
-180.468
-184.186
-188
-191.911
-195.92
-200.026
-204.22
-208.49
-212.825
-217.22
-221.678
-226.213
-230.828
-235.518
-240.272
-245.077
-249.914
-254.758
-259.567
-264.278
-268.835
-273.184
-277.286
-281.117
-284.636
-287.789
-290.51
-292.72
-294.365
-295.422
-295.873
-295.703
-294.929
-293.576
-291.706
-289.458
-286.956
-284.296
-281.584
-278.898
-276.345
-274.114
-272.433
-271.444
-271.189
-271.584
-272.411
-273.416
-274.307
-274.632
-273.827
-271.509
-267.552
-262.111
-255.847
-249.735
-244.711
-241.75
-240.881
-240.629
-239.574
-237.114
-234.985
-236.3
-241.28
-244.859
-235.736
-202.007
-138.085
-47.85
55.667
158.626
252.012
333.075
404.202
466.17
516.939
553.223
570.836
568.442
547.164
508.013
453.035
384.981
306.408
220.741
131.952
42.958
-43.472
-123.834
-195.346
-255.813
-303.359
-337.692
-359.658
-370.005
-370.144
-362.519
-349.514
-333.68
-317.568
-302.445
-288.739
-276.789
-266.43
-257.036
-247.992
-238.432
-227.441
-214.904
-201.179
-186.695
-172.035
-157.714
-144.104
-131.704
-121.03
-112.275
-105.433
-100.403
-96.969
-95.011
-94.445
-95.07
-96.606
-98.75
-101.177
-103.62
-105.927
-107.978
-109.684
-111
-111.895
-112.386
-112.511
-112.297
-111.741
-110.799
-109.444
-107.687
-105.591
-103.267
-100.854
-98.496
-96.299
-94.343
-92.68
-91.331
-90.298
-89.558
-89.071
-88.8
-88.732
-88.875
-89.235
-89.811
-90.572
-91.473
-92.452
-93.432
-94.347
-95.131
-95.728
-96.098
-96.212
-96.049
-95.6
-94.86
-93.817
-92.452
-90.747
-88.68
-86.238
-83.414
-80.201
-76.604
-72.627
-68.28
-63.574
-58.521
-53.13
-47.412
-41.376
-35.029
-28.384
-21.453
-14.251
-6.8
0.882
8.772
16.845
25.076
33.439
41.908
50.456
59.059
67.689
76.321
84.93
93.49
101.976
110.363
118.629
126.749
134.702
142.467
150.023
157.353
164.44
171.27
177.827
184.101
190.08
195.753
201.113
206.151
210.861
215.236
219.271
222.963
226.308
229.307
231.958
234.263
236.224
237.844
239.126
240.076
240.697
240.997
240.981
240.657
240.031
239.113
237.911
236.434
234.691
232.692
230.447
227.964
225.255
222.327
219.191
215.857
212.334
208.632
204.761
200.731
196.555
192.242
187.804
183.254
178.603
173.864
169.049
164.173
159.247
154.284
149.299
144.304
139.312
134.336
129.389
124.485
119.635
114.852
110.149
105.536
101.025
96.628
92.357
88.222
84.235
80.405
76.744
73.262
69.968
66.871
63.981
61.303
58.845
56.611
54.607
52.834
51.295
49.991
48.92
48.08
47.469
47.082
46.914
46.959
47.208
47.655
48.289
49.102
50.083
51.221
52.506
53.924
55.465
57.115
58.862
60.69
62.587
64.538
66.527
68.539
70.561
72.575
74.568
76.526
78.433
80.278
82.047
83.729
85.314
86.792
88.154
89.393
90.504
91.48
92.319
93.017
93.573
93.985
94.254
94.381
94.366
94.212
93.922
93.498
92.945
92.267
91.469
90.557
89.536
88.415
87.2
85.898
84.519
83.07
81.56
79.997
78.389
76.744
75.071
73.376
71.666
69.949
68.228
66.509
64.796
63.093
61.401
59.723
58.059
56.411
54.779
53.161
51.558
49.968
48.391
46.824
45.266
43.715
42.168
40.622
39.074
37.522
35.962
34.39
32.803
31.198
29.572
27.92
26.242
24.532
22.79
21.014
19.2
17.349
15.46
13.533
11.569
9.571
7.539
5.479
3.393
1.285
-0.84
-2.977
-5.121
-7.266
-9.406
-11.535
-13.646
-15.732
-17.786
-19.8
-21.768
-23.681
-25.531
-27.313
-29.018
-30.639
-32.171
-33.605
-34.936
-36.157
-37.262
-38.244
-39.097
-39.816
-40.396
-40.833
-41.123
-41.263
-41.25
-41.083
-40.76
-40.281
-39.645
-38.851
-37.899
-36.791
-35.527
-34.109
-32.539
-30.82
-28.954
-26.946
-24.8
-22.521
-20.111
-17.576
-14.918
-12.142
-9.252
-6.252
-3.147
0.058
3.357
6.741
10.201
13.727
17.311
20.944
24.617
28.322
32.053
35.806
39.579
43.371
47.176
50.99
54.808
58.627
62.445
66.257
70.061
73.855
77.641
81.423
85.206
88.993
92.779
96.554
100.3
104.004
107.661
111.265
114.814
118.317
121.786
125.249
128.752
132.335
136.031
139.871
143.879
148.088
152.533
157.245
162.264
167.616
173.301
179.316
185.639
192.223
199.023
205.947
212.84
219.555
225.939
231.831
237.105
241.586
245.031
247.312
248.44
248.513
247.772
246.502
244.932
243.434
242.566
242.661
243.623
245.117
246.59
247.217
246.34
243.517
237.812
229.598
221.43
214.614
210.12
208.319
206.419
206.546
216.155
241.79
290.606
362.004
445.939
532.735
613.069
681.844
739.131
783.654
813.96
828.11
823.716
800.9
760.421
703.699
633.958
554.346
468.229
379.576
291.235
205.442
125.13
52.787
-9.78
-60.743
-99.354
-126.124
-141.514
-146.186
-141.735
-129.848
-112.3
-91.688
-70.168
-48.767
-28.306
-9.412
7.87
23.424
37.18
50.157
63.47
77.381
91.93
106.957
122.033
137.05
152.012
166.129
178.364
188.173
195.268
199.67
201.602
201.033
197.829
192.239
184.794
175.96
166.108
155.435
144.031
132.121
120.074
108.188
96.626
85.459
74.701
64.382
54.585
45.359
36.681
28.48
20.659
13.129
5.855
-1.2
-8.102
-14.949
-21.879
-29.004
-36.373
-43.997
-51.866
-59.964
-68.274
-76.754
-85.328
-93.902
-102.386
-110.699
-118.779
-126.556
-133.946
-140.852
-147.167
-152.802
-157.693
-161.785
-165.033
-167.399
-168.849
-169.367
-168.956
-167.621
-165.366
-162.194
-158.107
-153.118
-147.249
-140.528
-132.988
-124.664
-115.592
-105.815
-95.377
-84.33
-72.725
-60.616
-48.055
-35.103
-21.823
-8.283
5.445
19.29
33.18
47.04
60.795
74.37
87.692
100.691
113.297
125.443
137.064
148.097
158.484
168.167
177.097
185.223
192.502
198.894
204.366
208.886
212.429
214.975
216.508
217.017
216.497
214.948
212.374
208.784
204.194
198.623
192.094
184.636
176.282
167.069
157.037
146.229
134.693
122.477
109.635
96.218
82.283
67.886
53.084
37.934
22.496
6.826
-9.018
-24.98
-41.002
-57.032
-73.016
-88.902
-104.641
-120.187
-135.492
-150.514
-165.214
-179.552
-193.494
-207.008
-220.064
-232.637
-244.703
-256.242
-267.238
-277.675
-287.543
-296.833
-305.54
-313.661
-321.195
-328.146
-334.518
-340.317
-345.553
-350.235
-354.376
-357.989
-361.089
-363.691
-365.811
-367.468
-368.68
-369.466
-369.845
-369.838
-369.467
-368.751
-367.713
-366.373
-364.755
-362.881
-360.77
-358.445
-355.927
-353.242
-350.414
-347.467
-344.423
-341.3
-338.12
-334.914
-331.697
-328.476
-325.256
-322.045
-318.861
-315.747
-312.727
-309.793
-306.983
-304.374
-302.026
-300.001
-298.321
-296.929
-295.817
-295.082
-294.66
-294.278
-293.889
-293.605
-293.416
-293.636
-293.747
-291.993
-288.705
-285.523
-285.001
-292.001
-306.3
-322.873
-336.806
-341.199
-335.447
-326.088
-318.349
-318.016
-326.224
-337.929
-350.075
-360.249
-368.43
-378.497
-390.837
-403.674
-414.102
-416.399
-411.115
-403.812
-399.961
-407.178
-425.48
-447.684
-468.211
-480.942
-485.193
-486.32
-487.522
-491.122
-497.56
-504.554
-511.232
-517.522
-523.051
-528.107
-532.815
-536.792
-540.26
-542.728
-542.442
-539.814
-536.459
-534.989
-540.426
-552.54
-566.217
-576.121
-575.028
-562.61
-545.574
-529.416
-519.259
-514.369
-510.026
-504.695
-498.76
-496.355
-499.34
-503.854
-505.09
-496.383
-476.886
-452.937
-429.781
-412.83
-403.069
-395.741
-387.907
-377.584
-364.131
-349.484
-334.517
-319.161
-303.527
-287.349
-270.563
-253.453
-236.12
-218.538
-200.742
-182.766
-164.62
-146.312
-127.84
-109.18
-90.342
-71.372
-52.298
-33.145
-13.938
5.299
24.538
43.744
62.888
81.944
100.882
119.672
138.282
156.678
174.826
192.692
210.24
227.434
244.239
260.617
276.531
291.944
306.819
321.12
334.808
347.845
360.196
371.823
382.689
392.759
401.996
410.364
417.832
424.366
429.937
434.516
438.08
440.605
442.075
442.475
441.792
440.016
437.141
433.163
428.082
421.903
414.635
406.29
396.887
386.452
375.017
362.62
349.301
335.097
320.042
304.178
287.556
270.234
252.275
233.751
214.741
195.339
175.658
155.805
135.883
115.982
96.183
76.569
57.226
38.257
19.771
1.866
-15.37
-31.865
-47.556
-62.395
-76.368
-89.503
-101.875
-113.551
-124.569
-134.935
-144.647
-153.738
-162.261
-170.308
-177.964
-185.307
-192.452
-199.495
-206.428
-213.084
-219.074
-223.861
-226.917
-227.777
-225.988
-221.201
-213.372
-203.133
-191.586
-179.896
-169.367
-160.029
-151.75
-145.856
-142.167
-141.216
-142.949
-141.695
-132.885
-111.471
-71.716
-15.543
54.498
135.154
220.428
308.624
397.639
483.859
564.322
633.666
687.056
721.922
736.534
731.076
706.577
663.589
603.788
530.038
445.633
354.533
260.618
166.865
76.663
-6.052
-78.229
-137.457
-183.46
-217.502
-239.679
-250.877
-251.194
-241.221
-226.569
-211.744
-201.108
-198.746
-201.539
-206.685
-211.798
-212.918
-211.072
-207.292
-201.618
-195.639
-189.055
-181.442
-173.494
-165.508
-158.07
-151.911
-147.134
-143.612
-141.185
-139.521
-138.376
-137.619
-137.1
-136.632
-136.002
-134.943
-133.243
-130.868
-127.696
-123.43
-118.006
-111.52
-103.991
-95.796
-86.524
-74.634
-60.594
-46.025
-33.532
-27.951
-29.106
-32.378
-33.158
-24.819
-7.008
13.874
32.88
44.678
48.33
48.584
48.367
49.68
53.129
56.783
59.774
62.182
63.967
65.445
66.719
67.555
67.906
67.849
67.411
66.614
65.5
64.114
62.517
60.792
59.002
57.173
55.347
53.581
51.925
50.435
49.168
48.166
47.474
47.146
47.231
47.781
48.851
50.483
52.708
55.553
59.035
63.163
67.937
73.34
79.337
85.904
93.015
100.647
108.789
117.411
126.481
135.971
145.842
156.071
166.656
177.596
188.895
200.589
212.707
225.298
238.435
252.147
266.44
281.301
296.685
312.551
328.845
345.476
362.349
379.347
396.31
413.069
429.436
445.16
460.005
473.728
486.057
496.792
505.771
512.85
517.943
520.982
521.919
520.767
517.566
512.365
505.275
496.425
485.981
474.186
461.267
447.445
432.971
418.036
402.806
387.445
372.071
356.777
341.654
326.756
312.117
297.784
283.768
270.063
256.646
243.442
230.395
217.47
204.623
191.842
179.128
166.481
153.927
141.514
129.281
117.276
105.552
94.142
83.092
72.453
62.276
52.629
43.564
35.112
27.302
20.15
13.661
7.839
2.671
-1.869
-5.806
-9.164
-11.971
-14.249
-16.025
-17.332
-18.203
-18.674
-18.78
-18.552
-18.022
-17.222
-16.182
-14.933
-13.502
-11.914
-10.192
-8.364
-6.457
-4.496
-2.506
-0.509
1.473
3.419
5.311
7.132
8.869
10.51
12.045
13.464
14.759
15.925
16.957
17.85
18.605
19.218
19.691
20.024
20.219
20.278
20.205
20.003
19.675
19.225
18.658
17.979
17.194
16.307
15.325
14.253
13.099
11.867
10.565
9.197
7.77
6.289
4.76
3.188
1.577
-0.067
-1.739
-3.436
-5.152
-6.882
-8.623
-10.369
-12.115
-13.857
-15.59
-17.308
-19.005
-20.677
-22.315
-23.915
-25.468
-26.968
-28.407
-29.777
-31.072
-32.282
-33.4
-34.418
-35.328
-36.122
-36.792
-37.33
-37.727
-37.977
-38.072
-38.004
-37.768
-37.357
-36.766
-35.989
-35.023
-33.864
-32.509
-30.956
-29.203
-27.251
-25.1
-22.75
-20.206
-17.47
-14.548
-11.445
-8.167
-4.723
-1.122
2.628
6.516
10.53
14.659
18.89
23.21
27.605
32.061
36.564
41.099
45.652
50.207
54.75
59.267
63.742
68.164
72.516
76.788
80.964
85.034
88.985
92.807
96.489
100.022
103.396
106.606
109.644
112.505
115.183
117.675
119.978
122.089
124.006
125.73
127.26
128.597
129.741
130.696
131.465
132.05
132.455
132.682
132.735
132.617
132.334
131.886
131.277
130.51
129.587
128.51
127.282
125.904
124.378
122.704
120.882
118.911
116.788
114.508
112.065
109.455
106.67
103.705
100.554
97.212
93.675
89.941
86.008
81.875
77.537
72.988
68.226
63.248
58.055
52.648
47.028
41.198
35.167
28.951
22.563
16.011
9.295
2.407
-4.652
-11.868
-19.222
-26.696
-34.266
-41.905
-49.565
-57.182
-64.691
-72.037
-79.181
-86.095
-92.734
-99.03
-104.9
-110.261
-115.056
-119.263
-122.863
-125.826
-128.149
-129.852
-130.994
-131.697
-132.073
-132.201
-132.174
-132.088
-132.051
-132.251
-132.931
-134.238
-136.212
-138.706
-141.385
-143.956
-146.151
-147.59
-147.795
-146.36
-143.134
-138.601
-133.797
-129.675
-127.015
-126.336
-127.918
-132.001
-138.385
-145.647
-151.31
-152.584
-146.597
-131.213
-104.922
-65.995
-13.349
52.469
129.538
214.54
303.079
391.317
475.515
550.838
612.805
657.909
683.341
688.237
673.279
638.887
586.281
518.435
438.59
350.461
258.468
165.908
75.515
-9.272
-85.702
-152.112
-207.084
-250.263
-282.459
-304.257
-316.541
-321.076
-319.433
-312.982
-303.187
-290.888
-276.325
-259.866
-241.875
-222.51
-202.317
-182.125
-162.632
-144.739
-129.476
-117.586
-109.438
-105.1
-103.945
-104.78
-106.594
-108.393
-109.267
-108.676
-106.305
-102.046
-96.33
-89.977
-83.55
-77.486
-72.028
-67.101
-62.653
-58.628
-54.769
-50.731
-46.312
-41.406
-36.044
-30.407
-24.629
-18.813
-13.085
-7.562
-2.35
2.462
6.811
10.661
13.981
16.747
18.941
20.545
21.564
22.016
21.93
21.35
20.309
18.835
16.959
14.711
12.122
9.229
6.066
2.665
-0.934
-4.682
-8.54
-12.484
-16.484
-20.518
-24.551
-28.523
-32.389
-36.137
-39.707
-42.997
-45.927
-48.407
-50.388
-51.919
-53.007
-53.553
-53.635
-53.536
-53.274
-52.742
-51.99
-50.659
-49.305
-49.759
-51.547
-52.947
-51.168
-40.876
-22.395
-1.183
17.105
24.779
21.492
14.37
9.23
11.501
20.463
31.104
41.625
52.286
67.159
87.999
110.985
131.225
141.967
142.551
139.234
137.191
141.825
153.861
168.483
182.767
194.637
203.481
211.186
218.522
225.382
231.819
237.514
242.369
246.624
250.329
253.423
255.903
257.77
259.001
259.576
259.466
258.626
257.046
254.753
251.763
248.086
243.739
238.737
233.104
226.871
220.067
212.718
204.857
196.516
187.732
178.543
168.99
159.113
148.953
138.553
127.956
117.206
106.345
95.417
84.464
73.527
62.648
51.867
41.221
30.747
20.481
10.455
0.702
-8.751
-17.875
-26.647
-35.045
-43.048
-50.641
-57.808
-64.54
-70.827
-76.662
-82.043
-86.97
-91.442
-95.466
-99.046
-102.193
-104.917
-107.23
-109.148
-110.687
-111.865
-112.701
-113.217
-113.432
-113.371
-113.055
-112.508
-111.753
-110.815
-109.718
-108.485
-107.141
-105.708
-104.211
-102.671
-101.11
-99.55
-98.009
-96.509
-95.065
-93.696
-92.417
-91.243
-90.186
-89.259
-88.473
-87.837
-87.358
-87.043
-86.897
-86.927
-87.135
-87.525
-88.095
-88.842
-89.769
-90.878
-92.157
-93.596
-95.186
-96.91
-98.773
-100.783
-102.92
-105.164
-107.538
-110.056
-112.728
-115.574
-118.56
-121.631
-124.801
-128.111
-131.424
-134.585
-137.671
-140.665
-143.528
-146.569
-148.924
-149.758
-150.247
-150.741
-153.41
-160.851
-170.175
-179.457
-185.831
-185.363
-181.525
-177.26
-174.584
-176.83
-181.612
-186.511
-190.991
-193.578
-195.129
-196.746
-198.222
-199.701
-201.113
-202.241
-203.236
-204.221
-205.165
-206.068
-206.953
-207.826
-208.687
-209.542
-210.381
-211.189
-211.985
-212.79
-213.609
-214.454
-215.334
-216.255
-217.231
-218.273
-219.388
-220.582
-221.862
-223.235
-224.707
-226.282
-227.964
-229.758
-231.665
-233.688
-235.828
-238.085
-240.457
-242.943
-245.537
-248.237
-251.034
-253.921
-256.887
-259.922
-263.014
-266.152
-269.321
-272.506
-275.693
-278.867
-282.012
-285.111
-288.149
-291.108
-293.971
-296.722
-299.346
-301.827
-304.15
-306.302
-308.268
-310.036
-311.597
-312.94
-314.055
-314.932
-315.564
-315.944
-316.068
-315.934
-315.539
-314.886
-313.978
-312.824
-311.434
-309.819
-307.991
-305.965
-303.753
-301.373
-298.841
-296.17
-293.375
-290.474
-287.484
-284.423
-281.311
-278.163
-274.994
-271.821
-268.659
-265.525
-262.428
-259.38
-256.394
-253.487
-250.682
-248.008
-245.483
-243.116
-240.923
-238.909
-237.078
-235.428
-233.936
-232.56
-231.266
-230.016
-228.777
-227.516
-226.174
-224.682
-222.972
-220.979
-218.673
-216.031
-213.015
-209.593
-205.751
-201.504
-196.939
-192.173
-187.314
-182.472
-177.741
-173.278
-169.327
-166.07
-163.587
-161.791
-160.382
-159.101
-157.802
-156.254
-154.124
-151.137
-147.146
-142.567
-138.352
-135.322
-134.092
-135.023
-138.244
-143.881
-151.675
-160.13
-166.91
-169.613
-165.505
-152.438
-129.017
-93.348
-45.023
13.814
81.81
157.413
239.172
328.315
421.071
508.642
582.322
632.208
655.963
659.336
648.056
628.232
601.292
564.557
517.791
461.813
399.384
334.954
271.138
210.108
154.432
105.491
64.507
32.684
10.139
-3.212
-7.574
-3.944
6.088
21.172
39.961
60.815
82.331
103.211
122.643
140.249
155.782
168.958
179.182
187.072
194.763
202.832
210.395
215.262
212.961
203.829
192.841
184.554
184.96
193.953
204.913
212.993
213.248
204.759
192.118
178.376
165.814
155.604
146.343
137.342
128.743
120.523
113.045
106.504
100.734
95.645
91.238
87.5
84.385
81.86
79.851
78.202
76.808
75.589
74.456
73.383
72.37
71.393
70.451
69.559
68.692
67.838
66.993
66.135
65.273
64.438
63.665
63.021
62.567
62.345
62.386
62.709
63.315
64.207
65.378
66.81
68.494
70.429
72.611
75.045
77.73
80.658
83.819
87.199
90.779
94.543
98.474
102.557
106.779
111.129
115.595
120.172
124.852
129.622
134.472
139.387
144.351
149.348
154.363
159.379
164.379
169.348
174.271
179.134
183.923
188.624
193.224
197.709
202.066
206.281
210.342
214.235
217.949
221.472
224.793
227.903
230.791
233.449
235.871
238.049
239.978
241.652
243.066
244.217
245.101
245.717
246.062
246.138
245.945
245.485
244.761
243.777
242.538
241.049
239.316
237.345
235.145
232.723
230.088
227.25
224.219
221.006
217.623
214.083
210.398
206.581
202.647
198.608
194.48
190.276
186.011
181.699
177.354
172.991
168.624
164.267
159.935
155.641
151.399
147.221
143.121
139.111
135.202
131.406
127.734
124.194
120.798
117.553
114.468
111.549
108.803
106.235
103.848
101.647
99.634
97.808
96.168
94.714
93.442
92.352
91.44
90.701
90.127
89.71
89.442
89.315
89.319
89.442
89.671
89.99
90.39
90.859
91.387
91.964
92.57
93.188
93.8
94.392
94.954
95.475
95.936
96.32
96.61
96.795
96.868
96.818
96.63
96.28
95.74
94.991
94.021
92.824
91.403
89.745
87.807
85.557
82.962
80.018
76.765
73.232
69.392
65.22
60.72
55.965
51.135
46.275
41.23
35.814
29.853
23.42
16.735
9.814
2.648
-4.654
-11.793
-17.929
-23.092
-27.883
-31.693
-34.709
-34.948
-30.047
-23.487
-18.096
-18.401
-29.329
-46.561
-66.028
-84.534
-97.683
-107.53
-115.808
-121.526
-125.148
-125.878
-123.333
-119.012
-113.724
-107.907
-102.281
-97.593
-94.574
-93.535
-94.125
-95.442
-96.805
-98.034
-99.033
-99.629
-99.527
-98.483
-96.548
-94.106
-91.502
-88.832
-86.058
-83.229
-80.498
-77.871
-75.384
-73.04
-70.518
-68.586
-68.037
-67.844
-67.721
-65.686
-59.361
-51.408
-43.607
-38.616
-40.059
-44.729
-49.929
-53.806
-53.251
-50.432
-47.552
-45.072
-44.363
-44.669
-44.936
-45.297
-45.736
-46.463
-47.585
-48.967
-50.516
-51.937
-54.077
-57.738
-61.727
-65.68
-67.414
-64.335
-59.333
-54.304
-52.084
-56.591
-64.344
-72.386
-78.693
-79.923
-78.446
-76.676
-75.145
-75.312
-76.326
-77.105
-77.871
-78.502
-79.077
-79.793
-80.505
-81.127
-81.684
-82.127
-82.401
-82.463
-82.316
-82.049
-81.719
-81.278
-80.802
-80.594
-80.749
-81.184
-81.95
-82.761
-84.143
-87.974
-94.003
-100.46
-104.656
-101.308
-90.357
-77.22
-67.157
-67.652
-79.722
-96.182
-111.442
-119.624
-119.263
-115.694
-112.332
-111.357
-113.629
-116.993
-120.358
-123.814
-127.259
-130.992
-135.097
-139.235
-143.237
-147.093
-150.745
-154.137
-157.247
-160.041
-162.478
-164.538
-166.175
-167.328
-167.978
-168.121
-167.756
-166.921
-165.675
-164.107
-162.368
-160.607
-158.958
-157.567
-156.568
-156.092
-156.324
-157.481
-159.66
-162.806
-166.721
-171.041
-175.413
-179.552
-183.055
-185.35
-186.06
-185.189
-183.136
-180.735
-178.756
-177.494
-177.169
-178.179
-180.519
-183.471
-185.567
-184.391
-177.389
-162.85
-139.33
-105.085
-58.959
-0.853
68.25
145.582
227.419
310.599
391.664
466.05
529.376
577.832
608.187
619.264
611.268
584.077
538.667
477.805
404.71
323.419
238.674
153.984
72.402
-2.191
-66.829
-119.668
-159.219
-185.633
-200.275
-204.127
-198.684
-186.469
-169.727
-150.721
-131.742
-113.741
-96.978
-81.855
-68.305
-55.879
-44.192
-32.536
-20.171
-7.071
6.482
20.199
33.635
46.404
58.159
68.385
76.529
82.316
85.737
86.945
86.217
83.836
80.076
75.297
69.977
64.53
59.233
54.271
49.713
45.605
42.047
39.126
36.9
35.436
34.748
34.823
35.656
37.189
39.314
41.887
44.696
47.546
50.313
52.911
55.294
57.444
59.33
60.933
62.257
63.293
64.031
64.47
64.597
64.421
63.978
63.322
62.532
61.684
60.83
60.011
59.256
58.582
58.009
57.544
57.186
56.938
56.813
56.823
56.99
57.329
57.849
58.554
59.446
60.523
61.786
63.235
64.87
66.692
68.705
70.91
73.316
75.925
78.739
81.754
84.967
88.369
91.955
95.713
99.631
103.699
107.902
112.227
116.66
121.186
125.787
130.448
135.149
139.871
144.596
149.301
153.966
158.569
163.088
167.502
171.788
175.926
179.893
183.668
187.232
190.564
193.645
196.457
198.981
201.199
203.096
204.657
205.867
206.715
207.19
207.282
206.985
206.293
205.202
203.71
201.814
199.516
196.819
193.727
190.247
186.385
182.151
177.558
172.618
167.346
161.758
155.873
149.708
143.284
136.622
129.745
122.677
115.441
108.061
100.564
92.976
85.321
77.627
69.92
62.225
54.569
46.977
39.474
32.083
24.828
17.73
10.81
4.089
-2.416
-8.688
-14.712
-20.473
-25.958
-31.159
-36.066
-40.67
-44.967
-48.953
-52.626
-55.988
-59.041
-61.782
-64.214
-66.342
-68.172
-69.718
-70.987
-71.982
-72.719
-73.229
-73.54
-73.684
-73.678
-73.51
-73.195
-72.779
-72.26
-71.594
-70.751
-69.695
-68.438
-67.078
-65.656
-64.106
-62.528
-61.247
-60.349
-59.756
-59.521
-59.333
-59.794
-62.838
-68.105
-73.821
-77.124
-72.558
-60.345
-46.005
-34.996
-35.071
-46.883
-63.069
-77.928
-85.349
-84.136
-79.778
-75.686
-74.135
-75.866
-78.635
-81.388
-84.198
-86.974
-90.038
-93.473
-96.963
-100.401
-103.829
-107.227
-110.569
-113.857
-117.091
-120.286
-123.482
-126.686
-129.863
-132.993
-136.068
-139.077
-142.013
-144.866
-147.622
-150.273
-152.814
-155.239
-157.544
-159.722
-161.77
-163.681
-165.452
-167.08
-168.568
-169.915
-171.115
-172.171
-173.098
-173.919
-174.658
-175.32
-175.888
-176.352
-176.738
-177.04
-177.19
-177.086
-176.627
-175.777
-174.613
-173.198
-171.491
-169.579
-167.771
-166.309
-165.327
-164.789
-164.263
-164.306
-166.587
-171.617
-178.319
-182.589
-178.062
-161.967
-137.842
-114.153
-101.096
-104.906
-121.977
-143.62
-162.293
-170.808
-170.208
-165.33
-156.126
-146.538
-136.631
-123.658
-112.651
-103.826
-98.319
-100.015
-104.159
-108.511
-111.555
-109.287
-104.266
-98.818
-93.408
-89.91
-87.413
-84.533
-81.553
-78.442
-75.288
-72.196
-68.761
-64.74
-60.235
-55.553
-50.192
-42.648
-32.306
-20.117
-9.77
-6.739
-13.298
-26.632
-39.031
-41.532
-30.272
-8.551
14.96
31.885
38.737
37.536
33.836
31.927
33.177
36.861
41.072
44.875
48.351
51.65
54.937
58.107
60.904
63.248
65.151
66.587
67.538
68.003
68.005
67.589
66.792
65.608
64.013
61.984
59.514
56.6
53.247
49.456
45.244
40.636
35.687
30.47
25.058
19.525
13.937
8.346
2.807
-2.618
-7.861
-12.836
-17.472
-21.714
-25.519
-28.859
-31.723
-34.135
-36.186
-38.024
-39.802
-41.66
-43.686
-45.958
-48.572
-51.612
-55.187
-59.413
-64.342
-70.063
-76.688
-84.134
-92.246
-100.755
-109.037
-116.441
-122.436
-126.276
-127.311
-125.511
-120.865
-113.525
-104.569
-94.916
-84.955
-75.722
-67.004
-56.289
-43.002
-27.14
-8.783
8.502
26.495
52.851
94.6
159.926
248.538
350.1
454.182
550.467
634.249
706.703
767.075
814.141
845.539
857.855
850.905
825.422
782.066
723.447
652.42
572.068
486.486
398.922
311.732
227.948
150.918
83.202
26.775
-17.508
-50.084
-71.381
-81.885
-82.934
-76.678
-65.481
-51.451
-35.936
-19.659
-3.39
11.958
25.605
37.382
47.575
56.253
63.041
67.501
69.418
69.053
67.185
64.317
60.575
56.265
51.91
47.935
44.666
42.055
39.542
36.774
33.716
30.315
26.559
22.516
18.207
13.8
9.694
6.122
3.16
0.838
-0.929
-2.242
-3.151
-3.763
-4.227
-4.643
-5.103
-5.683
-6.425
-7.389
-8.63
-10.179
-12.061
-14.289
-16.858
-19.756
-22.959
-26.428
-30.131
-34.044
-38.138
-42.39
-46.771
-51.249
-55.793
-60.371
-64.949
-69.494
-73.97
-78.342
-82.581
-86.657
-90.545
-94.223
-97.663
-100.839
-103.726
-106.298
-108.531
-110.404
-111.895
-112.985
-113.661
-113.91
-113.724
-113.098
-112.03
-110.517
-108.561
-106.169
-103.346
-100.103
-96.452
-92.408
-87.989
-83.217
-78.114
-72.707
-67.022
-61.09
-54.942
-48.611
-42.132
-35.54
-28.869
-22.157
-15.438
-8.749
-2.124
4.401
10.794
17.022
23.054
28.861
34.416
39.691
44.666
49.317
53.626
57.575
61.15
64.339
67.131
69.519
71.498
73.063
74.216
74.958
75.295
75.233
74.781
73.951
72.758
71.215
69.342
67.156
64.678
61.928
58.929
55.702
52.271
48.658
44.887
40.979
36.957
32.843
28.657
24.42
20.15
15.868
11.589
7.331
3.108
-1.064
-5.174
-9.208
-13.158
-17.014
-20.769
-24.415
-27.95
-31.368
-34.669
-37.852
-40.918
-43.868
-46.707
-49.438
-52.067
-54.599
-57.042
-59.403
-61.689
-63.907
-66.065
-68.17
-70.23
-72.249
-74.236
-76.196
-78.134
-80.054
-81.962
-83.86
-85.753
-87.641
-89.527
-91.412
-93.296
-95.178
-97.057
-98.931
-100.798
-102.655
-104.496
-106.318
-108.115
-109.88
-111.607
-113.288
-114.914
-116.477
-117.967
-119.376
-120.693
-121.91
-123.016
-124.003
-124.862
-125.584
-126.162
-126.587
-126.853
-126.952
-126.878
-126.627
-126.192
-125.571
-124.76
-123.758
-122.561
-121.171
-119.586
-117.808
-115.839
-113.682
-111.34
-108.817
-106.12
-103.254
-100.228
-97.05
-93.731
-90.281
-86.711
-83.034
-79.263
-75.413
-71.496
-67.528
-63.523
-59.498
-55.467
-51.447
-47.455
-43.505
-39.614
-35.798
-32.071
-28.451
-24.949
-21.581
-18.359
-15.296
-12.403
-9.692
-7.172
-4.853
-2.743
-0.849
0.822
2.268
3.483
4.466
5.217
5.735
6.022
6.083
5.92
5.539
4.947
4.149
3.156
1.976
0.62
-0.901
-2.575
-4.389
-6.33
-8.381
-10.53
-12.766
-15.073
-17.439
-19.849
-22.286
-24.74
-27.203
-29.653
-32.071
-34.439
-36.737
-38.962
-41.121
-43.193
-45.155
-47.032
-48.841
-50.593
-52.313
-53.974
-55.523
-56.986
-58.406
-59.66
-60.601
-61.317
-61.801
-62.027
-62.313
-61.815
-59.711
-57.184
-54.597
-54.119
-58.348
-64.419
-70.424
-73.523
-69.809
-62.747
-55.274
-49.405
-48.464
-50.084
-51.861
-53.266
-52.836
-51.427
-50.136
-48.76
-47.441
-46.111
-44.553
-42.917
-41.323
-39.737
-38.157
-36.6
-35.068
-33.558
-32.069
-30.584
-29.083
-27.581
-26.093
-24.622
-23.174
-21.758
-20.384
-19.065
-17.816
-16.649
-15.573
-14.603
-13.749
-13.023
-12.432
-11.985
-11.69
-11.557
-11.6
-11.829
-12.253
-12.882
-13.724
-14.783
-16.067
-17.575
-19.3
-21.237
-23.383
-25.745
-28.343
-31.19
-34.289
-37.639
-41.229
-45.042
-49.053
-53.219
-57.473
-61.747
-65.976
-70.104
-74.095
-77.901
-81.467
-84.717
-87.559
-89.91
-91.716
-92.942
-93.577
-93.63
-93.137
-92.18
-90.886
-89.408
-87.905
-86.505
-85.323
-84.493
-84.144
-84.494
-85.825
-88.278
-91.867
-96.464
-101.723
-107.252
-112.678
-117.393
-120.644
-122.001
-121.3
-118.762
-115.288
-111.936
-109.603
-109.236
-110.864
-113.041
-114.22
-113.355
-111.221
-109.599
-107.867
-101.137
-78.913
-31.401
45.22
148.165
265.533
386.118
503.433
611.193
708.42
791.89
854.959
897.214
917.337
915.923
897.222
860.107
804.467
732.868
646.999
551.47
451.592
350.49
251.362
157.713
72.303
-2.577
-65.156
-114.878
-152.147
-177.425
-191.702
-196.707
-194.344
-186.494
-174.747
-160.317
-144.085
-126.742
-108.925
-91.28
-74.082
-57.526
-42.203
-28.44
-16.42
-6.449
1.742
8.929
15.493
21.803
28.494
35.715
43.462
51.797
60.215
67.885
74.351
79.247
82.241
83.395
82.852
80.776
77.581
73.743
69.571
65.315
61.173
57.241
53.604
50.328
47.432
44.944
42.905
41.354
40.311
39.765
39.671
39.954
40.551
41.407
42.457
43.636
44.868
46.058
47.142
48.091
48.864
49.415
49.713
49.731
49.468
48.959
48.238
47.341
46.312
45.194
44.037
42.904
41.855
40.962
40.28
39.851
39.718
39.918
40.484
41.445
42.817
44.601
46.803
49.43
52.484
55.965
59.868
64.181
68.891
73.982
79.435
85.233
91.354
97.777
104.479
111.434
118.617
126.003
133.562
141.26
149.061
156.926
164.815
172.687
180.499
188.207
195.768
203.138
210.276
217.139
223.689
229.884
235.687
241.061
245.972
250.387
254.277
257.615
260.376
262.54
264.09
265.011
265.292
264.925
263.905
262.23
259.904
256.93
253.318
249.081
244.234
238.798
232.793
226.248
219.189
211.649
203.663
195.267
186.5
177.402
168.015
158.383
148.55
138.561
128.46
118.294
108.107
97.944
87.849
77.864
68.031
58.387
48.973
39.821
30.967
22.44
14.268
6.478
-0.91
-7.874
-14.4
-20.473
-26.084
-31.227
-35.897
-40.095
-43.823
-47.088
-49.898
-52.265
-54.204
-55.732
-56.869
-57.635
-58.054
-58.152
-57.954
-57.488
-56.783
-55.867
-54.769
-53.519
-52.145
-50.677
-49.14
-47.562
-45.97
-44.385
-42.833
-41.332
-39.903
-38.563
-37.327
-36.207
-35.215
-34.358
-33.644
-33.075
-32.654
-32.38
-32.25
-32.259
-32.399
-32.661
-33.035
-33.508
-34.065
-34.691
-35.369
-36.082
-36.812
-37.539
-38.246
-38.913
-39.521
-40.054
-40.492
-40.821
-41.023
-41.085
-40.994
-40.738
-40.307
-39.694
-38.892
-37.897
-36.706
-35.318
-33.736
-31.962
-30.002
-27.863
-25.555
-23.089
-20.478
-17.737
-14.882
-11.932
-8.906
-5.824
-2.708
0.419
3.535
6.615
9.637
12.576
15.41
18.115
20.67
23.052
25.243
27.221
28.972
30.477
31.723
32.697
33.389
33.79
33.893
33.692
33.187
32.375
31.258
29.839
28.125
26.121
23.839
21.29
18.486
15.444
12.181
8.715
5.066
1.257
-2.692
-6.756
-10.912
-15.134
-19.399
-23.681
-27.956
-32.2
-36.387
-40.497
-44.505
-48.391
-52.135
-55.718
-59.123
-62.334
-65.336
-68.116
-70.663
-72.967
-75.019
-76.813
-78.344
-79.609
-80.607
-81.337
-81.802
-82.006
-81.955
-81.656
-81.119
-80.353
-79.37
-78.182
-76.803
-75.247
-73.528
-71.662
-69.664
-67.551
-65.339
-63.044
-60.682
-58.269
-55.819
-53.348
-50.87
-48.398
-45.946
-43.526
-41.15
-38.829
-36.575
-34.398
-32.308
-30.313
-28.423
-26.644
-24.983
-23.446
-22.036
-20.758
-19.615
-18.61
-17.745
-17.023
-16.447
-16.023
-15.755
-15.647
-15.703
-15.928
-16.324
-16.895
-17.643
-18.566
-19.664
-20.937
-22.387
-24.018
-25.833
-27.833
-30.017
-32.387
-34.94
-37.677
-40.593
-43.674
-46.913
-50.304
-53.848
-57.56
-61.448
-65.507
-69.728
-74.1
-78.599
-83.206
-87.879
-92.557
-97.181
-101.694
-106.049
-110.222
-114.178
-117.863
-121.215
-124.152
-126.608
-128.557
-129.986
-130.884
-131.268
-131.176
-130.687
-129.935
-129.061
-128.191
-127.439
-126.914
-126.735
-127.024
-127.956
-129.745
-132.498
-136.196
-140.657
-145.536
-150.487
-155.197
-159.213
-161.955
-162.994
-162.154
-159.793
-156.756
-153.734
-151.22
-149.585
-149.046
-149.743
-151.449
-152.842
-151.712
-145.848
-133.047
-111.61
-80.391
-38.057
16.283
82.121
157.8
240.755
326.678
410.682
488.678
556.798
614.157
662.622
701.385
726.255
729.293
700.91
638.058
547.304
441.416
333.686
232.947
140.895
55.049
-24.9
-97.265
-159.423
-207.996
-242.373
-264.194
-274.765
-275.986
-270.493
-260.44
-248.104
-235.737
-224.141
-213.386
-203.653
-194.69
-185.91
-176.801
-166.614
-154.658
-141.057
-126.361
-111.096
-95.872
-81.209
-67.49
-55.223
-44.906
-36.734
-30.698
-26.696
-24.551
-24.11
-25.255
-27.741
-31.214
-35.301
-39.612
-43.877
-47.949
-51.715
-55.09
-58.016
-60.466
-62.448
-63.998
-65.127
-65.8
-65.999
-65.718
-65.015
-64.004
-62.835
-61.69
-60.704
-59.971
-59.555
-59.487
-59.775
-60.409
-61.356
-62.563
-64.006
-65.684
-67.596
-69.743
-72.094
-74.599
-77.192
-79.79
-82.319
-84.712
-86.909
-88.865
-90.548
-91.933
-93.008
-93.77
-94.21
-94.309
-94.048
-93.406
-92.368
-90.928
-89.081
-86.83
-84.181
-81.145
-77.734
-73.963
-69.843
-65.39
-60.614
-55.527
-50.144
-44.482
-38.56
-32.401
-26.028
-19.469
-12.751
-5.902
1.047
8.067
15.128
22.202
29.258
36.267
43.2
50.029
56.725
63.26
69.607
75.739
81.63
87.257
92.596
97.625
102.325
106.678
110.667
114.279
117.5
120.319
122.725
124.71
126.266
127.388
128.071
128.311
128.108
127.463
126.378
124.857
122.906
120.532
117.744
114.551
110.965
106.998
102.663
97.975
92.951
87.608
81.965
76.041
69.858
63.436
56.799
49.968
42.966
35.819
28.548
21.178
13.734
6.24
-1.279
-8.799
-16.294
-23.741
-31.114
-38.39
-45.546
-52.558
-59.405
-66.066
-72.52
-78.749
-84.734
-90.458
-95.907
-101.066
-105.922
-110.464
-114.684
-118.574
-122.127
-125.34
-128.21
-130.737
-132.922
-134.767
-136.277
-137.458
-138.316
-138.862
-139.104
-139.056
-138.73
-138.142
-137.307
-136.243
-134.969
-133.504
-131.869
-130.085
-128.174
-126.158
-124.06
-121.904
-119.711
-117.506
-115.311
-113.148
-111.041
-109.009
-107.074
-105.256
-103.572
-102.039
-100.675
-99.493
-98.507
-97.728
-97.167
-96.834
-96.734
-96.875
-97.258
-97.887
-98.761
-99.879
-101.235
-102.825
-104.64
-106.671
-108.907
-111.333
-113.936
-116.7
-119.605
-122.634
-125.766
-128.979
-132.251
-135.558
-138.877
-142.183
-145.452
-148.659
-151.78
-154.79
-157.665
-160.383
-162.921
-165.256
-167.367
-169.236
-170.842
-172.169
-173.201
-173.923
-174.325
-174.396
-174.128
-173.515
-172.556
-171.247
-169.591
-167.59
-165.251
-162.583
-159.594
-156.298
-152.709
-148.844
-144.722
-140.363
-135.789
-131.025
-126.093
-121.019
-115.83
-110.553
-105.214
-99.841
-94.462
-89.105
-83.798
-78.568
-73.442
-68.445
-63.602
-58.936
-54.469
-50.221
-46.209
-42.449
-38.956
-35.74
-32.812
-30.181
-27.85
-25.822
-24.099
-22.677
-21.555
-20.723
-20.174
-19.896
-19.876
-20.1
-20.553
-21.22
-22.081
-23.12
-24.316
-25.651
-27.104
-28.654
-30.279
-31.957
-33.666
-35.388
-37.101
-38.789
-40.433
-42.016
-43.525
-44.947
-46.27
-47.484
-48.577
-49.541
-50.371
-51.061
-51.609
-52.009
-52.264
-52.378
-52.357
-52.212
-51.95
-51.576
-51.106
-50.556
-49.929
-49.23
-48.462
-47.625
-46.736
-45.825
-44.897
-43.956
-43.046
-42.203
-41.46
-40.86
-40.393
-40.022
-39.765
-39.655
-39.571
-39.391
-39.212
-39.05
-38.899
-39.061
-38.757
-37.236
-35.613
-34.214
-35.052
-40.517
-47.876
-55.331
-60.206
-58.836
-54.476
-49.855
-46.822
-48.448
-52.415
-56.36
-59.661
-60.787
-60.454
-59.667
-58.227
-56.316
-53.876
-50.65
-46.758
-42.311
-37.285
-31.723
-25.711
-19.311
-12.674
-6.044
0.341
6.19
11.248
15.384
18.436
20.233
20.675
19.698
17.44
14.294
10.591
6.589
2.69
-0.664
-3.067
-4.209
-4.42
-4.563
-5.4
-7.618
-11.699
-17.907
-26.396
-36.762
-47.399
-55.888
-59.546
-55.42
-41.146
-14.823
24.667
76.628
139.322
211.239
292.809
385.122
486.98
592.296
688.299
761.427
803.833
815.792
805.751
783.183
752.938
714.633
664.369
600.246
523.599
437.981
348.566
258.894
171.421
88.904
13.296
-53.753
-110.722
-156.949
-192.374
-217.109
-231.831
-237.783
-236.458
-229.345
-217.648
-202.503
-184.914
-165.715
-145.8
-126.086
-107.06
-89.213
-73.382
-59.981
-49.206
-41.239
-35.684
-31.757
-29.026
-27.046
-25.119
-23.018
-20.748
-18.302
-16.172
-15.105
-15.457
-17.456
-21.325
-26.928
-34.022
-42.391
-51.536
-60.852
-69.991
-78.694
-86.783
-94.233
-100.961
-106.874
-111.996
-116.374
-120.049
-123.087
-125.525
-127.397
-128.817
-129.907
-130.794
-131.635
-132.519
-133.499
-134.623
-135.915
-137.406
-139.128
-141.084
-143.257
-145.631
-148.185
-150.901
-153.759
-156.703
-159.673
-162.598
-165.395
-168.009
-170.401
-172.529
-174.366
-175.887
-177.067
-177.894
-178.366
-178.473
-178.205
-177.549
-176.49
-175.024
-173.152
-170.876
-168.202
-165.134
-161.675
-157.829
-153.604
-149.001
-144.027
-138.684
-132.977
-126.914
-120.505
-113.765
-106.708
-99.355
-91.722
-83.831
-75.706
-67.37
-58.846
-50.16
-41.336
-32.398
-23.374
-14.291
-5.175
3.945
13.041
22.083
31.044
39.894
48.605
57.149
65.499
73.629
81.514
89.127
96.446
103.448
110.109
116.409
122.329
127.85
132.957
137.635
141.871
145.656
148.98
151.837
154.222
156.133
157.567
158.525
159.009
159.023
158.572
157.663
156.307
154.514
152.296
149.669
146.648
143.252
139.5
135.41
131.005
126.307
121.339
116.124
110.686
105.051
99.245
93.291
87.217
81.046
74.806
68.519
62.211
55.905
49.624
43.39
37.224
31.148
25.181
19.343
13.651
8.121
2.771
-2.387
-7.338
-12.072
-16.579
-20.848
-24.875
-28.652
-32.175
-35.441
-38.449
-41.198
-43.688
-45.923
-47.905
-49.639
-51.13
-52.385
-53.41
-54.214
-54.806
-55.194
-55.39
-55.403
-55.244
-54.925
-54.457
-53.853
-53.126
-52.288
-51.352
-50.331
-49.238
-48.085
-46.886
-45.651
-44.393
-43.123
-41.851
-40.586
-39.339
-38.118
-36.931
-35.784
-34.684
-33.637
-32.648
-31.719
-30.855
-30.059
-29.331
-28.673
-28.086
-27.57
-27.123
-26.744
-26.431
-26.182
-25.992
-25.859
-25.776
-25.74
-25.744
-25.783
-25.851
-25.941
-26.048
-26.165
-26.285
-26.404
-26.515
-26.612
-26.69
-26.744
-26.769
-26.762
-26.718
-26.633
-26.505
-26.331
-26.108
-25.834
-25.508
-25.128
-24.693
-24.201
-23.652
-23.046
-22.383
-21.663
-20.887
-20.057
-19.173
-18.238
-17.252
-16.218
-15.136
-14.008
-12.836
-11.62
-10.36
-9.058
-7.714
-6.326
-4.895
-3.42
-1.9
-0.334
1.284
2.957
4.687
6.48
8.332
10.251
12.243
14.302
16.425
18.614
20.857
23.163
25.559
28.042
30.609
33.3
36.136
39.121
42.298
45.658
49.126
52.706
56.426
60.137
63.713
67.286
70.821
74.238
77.97
81.309
83.346
85.253
87.406
91.644
101.363
114.508
128.017
138.703
140.552
134.468
126.156
119.471
120.483
130.634
144.146
157.612
167.605
171.719
173.348
174.621
176.186
179.391
183.174
186.602
189.985
193.136
196.11
199.127
202.032
204.696
207.143
209.349
211.267
212.9
214.258
215.334
216.147
216.717
217.03
217.082
216.878
216.422
215.716
214.769
213.584
212.16
210.505
208.629
206.55
204.292
201.883
199.34
196.677
193.906
191.03
188.058
185.009
181.889
178.701
175.465
172.204
168.968
165.836
162.862
160.081
157.503
155.118
152.964
151.12
149.673
148.711
148.273
148.342
148.964
150.253
152.228
154.794
157.653
160.407
162.867
165.096
167.208
169.191
170.952
172.5
174.272
176.919
180.864
186.107
192.188
198.769
205.804
213.204
220.42
226.524
230.447
231.432
229.583
225.051
217.918
208.479
197.324
185.738
175.906
170.306
170.879
179.564
197.943
227.128
268.304
321.858
386.652
460.485
540.625
623.56
705.967
784.766
855.97
915.608
960.753
989.242
999.843
992.698
967.964
925.817
867.951
796.986
715.923
628.417
538.057
447.724
360.873
281.466
212.573
156.512
114.423
85.957
70.198
66.102
71.676
84.027
100.193
117.287
133.454
148.077
160.894
171.841
181.315
190.101
199.241
209.87
222.424
236.603
251.949
267.851
283.681
298.902
312.843
324.79
334.353
341.391
345.927
348.167
348.289
346.436
342.862
337.87
331.759
324.867
317.456
309.743
301.974
294.33
286.964
280.01
273.553
267.681
262.472
257.956
254.139
251.014
248.529
246.621
245.216
244.177
243.379
242.697
241.985
241.157
240.156
238.933
237.468
235.741
233.731
231.447
228.918
226.168
223.236
220.157
216.967
213.737
210.54
207.454
204.569
201.95
199.646
197.705
196.165
195.054
194.403
194.229
194.538
195.339
196.646
198.47
200.823
203.707
207.116
211.042
215.473
220.398
225.802
231.671
237.986
244.73
251.882
259.424
267.334
275.588
284.154
293.002
302.094
311.395
320.866
330.467
340.156
349.891
359.631
369.333
378.958
388.463
397.809
406.954
415.86
424.488
432.8
440.76
448.334
455.49
462.196
468.426
474.154
479.357
484.013
488.107
491.624
494.55
496.877
498.599
499.713
500.217
500.116
499.414
498.12
496.244
493.8
490.804
487.273
483.228
478.69
473.682
468.229
462.356
456.092
449.463
442.501
435.233
427.691
419.907
411.912
403.737
395.414
386.974
378.45
369.87
361.265
352.665
344.096
335.586
327.161
318.846
310.662
302.634
294.78
287.121
279.673
272.453
265.476
258.756
252.305
246.133
240.25
234.664
229.383
224.412
219.755
215.416
211.398
207.7
204.323
201.266
198.525
196.098
193.979
192.162
190.64
189.405
188.449
187.762
187.333
187.15
187.201
187.473
187.953
188.625
189.475
190.486
191.641
192.923
194.315
195.796
197.349
198.953
200.588
202.232
203.866
205.466
207.012
208.48
209.85
211.099
212.204
213.146
213.902
214.453
214.779
214.862
214.684
214.228
213.48
212.425
211.051
209.346
207.303
204.912
202.167
199.066
195.605
191.785
187.606
183.072
178.189
172.964
167.407
161.528
155.342
148.864
142.111
