Name,John Breau
Date of Birth,"Dec 20, 1971"
Recorded Date,2023-08-10 14:55:06 -0500
Classification,Sinus Rhythm
Symptoms,
Software Version,1.90
Device,"Watch6,3"
Sample Rate,512 hertz


Lead,Lead I
Unit,µV

31.752
5.957
-18.074
-39.148
-55.868
-67.467
-74.199
-77.161
-77.392
-75.329
-71.072
-65.412
-59.734
-54.805
-51.168
-47.221
-39.56
-28.899
-17.987
-11.318
-16.986
-33.951
-53.861
-68.302
-65.634
-45.901
-20.172
2.465
13.076
13.136
10.764
8.701
7.506
-0.239
-19.154
-41.602
-59.812
-60.498
-38.022
-6.262
23.894
40.1
34.748
20.125
5.105
-4.422
-2.495
4.458
11.475
17.883
21.35
23.53
26.167
28.543
30.724
32.669
34.043
35.044
35.873
36.502
36.959
37.343
37.684
37.953
38.149
38.257
38.25
38.153
37.988
37.746
37.433
37.058
36.621
36.131
35.599
35.024
34.41
33.761
33.076
32.356
31.599
30.803
29.965
29.08
28.141
27.144
26.083
24.957
23.763
22.496
21.153
19.725
18.205
16.585
14.858
13.017
11.056
8.969
6.754
4.417
1.964
-0.601
-3.282
-6.092
-9.042
-12.136
-15.377
-18.762
-22.281
-25.919
-29.646
-33.413
-37.172
-40.873
-44.476
-47.954
-51.273
-54.392
-57.257
-59.79
-61.928
-63.621
-64.825
-65.508
-65.672
-65.337
-64.576
-63.505
-62.216
-60.81
-59.397
-58.086
-57.016
-56.328
-56.162
-56.714
-58.24
-60.932
-64.816
-69.686
-75.121
-80.681
-85.937
-90.369
-93.31
-94.214
-93.084
-90.621
-87.976
-86.164
-86.008
-88.283
-93.599
-102.493
-113.436
-121.985
-124.922
-120.144
-107.885
-93.503
-76.285
-48.773
-2.561
76.635
193.666
337.71
492.787
633.295
737.576
799.507
822.25
819.71
805.776
785.64
757.467
713.333
648.756
565.209
467.524
363.296
257.472
152.235
50.285
-45.743
-133.464
-210.637
-276.281
-330.276
-372.312
-402.32
-420.966
-429.348
-428.795
-420.559
-405.552
-384.809
-359.443
-330.527
-299.146
-266.507
-233.947
-202.876
-174.656
-150.117
-129.891
-114.332
-103.352
-96.346
-92.114
-89.471
-87.393
-85.238
-82.647
-79.432
-75.624
-71.668
-68.476
-66.727
-66.852
-68.987
-72.887
-78.284
-84.894
-92.205
-99.515
-106.259
-112
-116.492
-119.751
-121.794
-122.642
-122.385
-121.134
-119.021
-116.189
-112.754
-108.807
-104.436
-99.728
-94.799
-89.796
-84.864
-80.145
-75.737
-71.688
-68.035
-64.801
-61.991
-59.599
-57.595
-55.93
-54.56
-53.447
-52.557
-51.859
-51.308
-50.847
-50.416
-49.952
-49.408
-48.753
-47.957
-46.995
-45.849
-44.503
-42.953
-41.203
-39.251
-37.089
-34.711
-32.108
-29.275
-26.213
-22.923
-19.405
-15.662
-11.697
-7.513
-3.116
1.488
6.292
11.29
16.475
21.836
27.361
33.034
38.838
44.754
50.762
56.84
62.965
69.114
75.263
81.387
87.463
93.467
99.373
105.159
110.799
116.269
121.547
126.609
131.433
135.999
140.285
144.272
147.943
151.281
154.272
156.903
159.163
161.043
162.536
163.637
164.341
164.649
164.56
164.077
163.206
161.952
160.326
158.338
156.002
153.333
150.346
147.061
143.497
139.674
135.613
131.338
126.871
122.237
117.46
112.566
107.579
102.526
97.432
92.321
87.219
82.149
77.133
72.194
67.352
62.627
58.037
53.6
49.331
45.244
41.352
37.667
34.196
30.949
27.93
25.142
22.587
20.266
18.175
16.312
14.671
13.245
12.027
11.007
10.174
9.518
9.026
8.684
8.479
8.396
8.422
8.542
8.742
9.007
9.323
9.679
10.059
10.453
10.848
11.233
11.597
11.931
12.225
12.471
12.661
12.791
12.854
12.848
12.769
12.615
12.388
12.087
11.715
11.275
10.77
10.206
9.588
8.923
8.219
7.482
6.72
5.943
5.158
4.374
3.598
2.839
2.104
1.4
0.734
0.113
-0.458
-0.972
-1.424
-1.809
-2.122
-2.361
-2.521
-2.6
-2.596
-2.508
-2.334
-2.075
-1.732
-1.307
-0.802
-0.22
0.435
1.157
1.942
2.784
3.675
4.609
5.578
6.576
7.593
8.623
9.658
10.691
11.715
12.722
13.706
14.661
15.58
16.458
17.289
18.068
18.79
19.451
20.048
20.576
21.032
21.414
21.72
21.947
22.095
22.164
22.153
22.065
21.899
21.66
21.35
20.973
20.533
20.036
19.488
18.893
18.259
17.592
16.897
16.183
15.456
14.722
13.989
13.262
12.547
11.852
11.18
10.539
9.933
9.366
8.844
8.371
7.95
7.586
7.281
7.038
6.858
6.745
6.697
6.716
6.802
6.951
7.163
7.434
7.76
8.138
8.563
9.028
9.528
10.057
10.607
11.172
11.743
12.315
12.878
13.427
13.952
14.448
14.908
15.325
15.693
16.005
16.256
16.44
16.553
16.588
16.542
16.41
16.189
15.875
15.467
14.963
14.361
13.662
12.866
11.976
10.992
9.918
8.758
7.515
6.195
4.804
3.348
1.833
0.266
-1.344
-2.992
-4.668
-6.367
-8.079
-9.799
-11.519
-13.231
-14.929
-16.606
-18.253
-19.865
-21.434
-22.952
-24.414
-25.812
-27.139
-28.391
-29.561
-30.645
-31.637
-32.533
-33.329
-34.022
-34.609
-35.088
-35.455
-35.71
-35.853
-35.882
-35.799
-35.605
-35.299
-34.884
-34.361
-33.731
-32.996
-32.158
-31.217
-30.176
-29.038
-27.806
-26.483
-25.073
-23.581
-22.012
-20.371
-18.665
-16.9
-15.083
-13.221
-11.324
-9.4
-7.459
-5.51
-3.565
-1.635
0.266
2.125
3.926
5.656
7.299
8.841
10.266
11.559
12.708
13.701
14.527
15.173
15.627
15.875
15.903
15.698
15.25
14.548
13.584
12.353
10.856
9.096
7.076
4.798
2.253
-0.568
-3.665
-7.04
-10.688
-14.593
-18.733
-23.073
-27.558
-32.133
-36.74
-41.329
-45.858
-50.285
-54.563
-58.638
-62.435
-65.882
-68.915
-71.479
-73.527
-75.043
-76.048
-76.6
-76.813
-76.798
-76.64
-76.445
-76.315
-76.38
-76.803
-77.743
-79.344
-81.795
-85.356
-90.163
-96.16
-103.043
-110.189
-116.929
-122.719
-126.96
-128.912
-128.158
-124.869
-119.829
-114.586
-110.712
-109.055
-110.216
-114.906
-123.089
-133.499
-143.678
-149.64
-146.999
-132.693
-104.226
-58.793
5.226
87.645
186.602
297.486
414.118
531.362
643.948
745.195
829.093
890.558
925.317
932.286
912.404
865.927
794.371
701.48
591.391
469.589
342.719
215.43
91.661
-23.487
-126.081
-213.203
-282.177
-332.872
-366.973
-385.371
-389.428
-381.528
-363.589
-338.45
-309.638
-278.831
-246.9
-215.226
-184.942
-157.457
-134.442
-115.99
-101.27
-90.183
-82.577
-78.051
-76.024
-74.863
-72.814
-69.348
-64.57
-58.621
-51.868
-44.545
-37.044
-30.512
-25.994
-23.9
-24.291
-26.861
-31.12
-36.753
-43.363
-50.298
-57.012
-63.09
-68.208
-72.307
-75.401
-77.474
-78.571
-78.752
-78.048
-76.531
-74.282
-71.363
-67.865
-63.878
-59.469
-54.742
-49.811
-44.812
-39.895
-35.159
-30.658
-26.429
-22.49
-18.862
-15.558
-12.558
-9.825
-7.322
-5.015
-2.881
-0.904
0.95
2.723
4.463
6.224
8.041
9.936
11.928
14.03
16.252
18.6
21.067
23.638
26.303
29.057
31.896
34.82
37.821
40.891
44.021
47.2
50.419
53.67
56.944
60.23
63.52
66.803
70.073
73.323
76.545
79.728
82.86
85.931
88.926
91.835
94.646
97.343
99.915
102.35
104.635
106.761
108.716
110.49
112.074
113.458
114.633
115.593
116.329
116.834
117.104
117.133
116.915
116.447
115.726
114.75
113.517
112.026
110.278
108.275
106.018
103.511
100.758
97.763
94.534
91.076
87.397
83.507
79.415
75.133
70.672
66.044
61.264
56.346
51.303
46.152
40.909
35.59
30.21
24.787
19.339
13.881
8.432
3.007
-2.375
-7.699
-12.948
-18.107
-23.159
-28.091
-32.888
-37.537
-42.025
-46.34
-50.471
-54.41
-58.145
-61.671
-64.98
-68.067
-70.927
-73.559
-75.96
-78.131
-80.072
-81.786
-83.277
-84.549
-85.609
-86.463
-87.119
-87.585
-87.871
-87.987
-87.942
-87.747
-87.414
-86.954
-86.379
-85.699
-84.928
-84.076
-83.156
-82.179
-81.157
-80.101
-79.022
-77.93
-76.835
-75.747
-74.676
-73.629
-72.614
-71.638
-70.708
-69.83
-69.007
-68.243
-67.542
-66.906
-66.337
-65.835
-65.402
-65.036
-64.737
-64.503
-64.334
-64.227
-64.179
-64.189
-64.252
-64.366
-64.528
-64.733
-64.977
-65.257
-65.568
-65.905
-66.264
-66.642
-67.032
-67.432
-67.837
-68.244
-68.648
-69.047
-69.437
-69.816
-70.182
-70.532
-70.866
-71.181
-71.477
-71.754
-72.011
-72.249
-72.467
-72.667
-72.849
-73.015
-73.165
-73.303
-73.429
-73.546
-73.657
-73.763
-73.869
-73.978
-74.092
-74.217
-74.355
-74.511
-74.689
-74.892
-75.123
-75.386
-75.684
-76.02
-76.394
-76.81
-77.269
-77.772
-78.32
-78.913
-79.55
-80.233
-80.959
-81.727
-82.535
-83.383
-84.266
-85.183
-86.131
-87.105
-88.104
-89.123
-90.157
-91.201
-92.251
-93.301
-94.345
-95.376
-96.388
-97.375
-98.329
-99.246
-100.119
-100.943
-101.712
-102.422
-103.069
-103.649
-104.159
-104.595
-104.957
-105.242
-105.45
-105.58
-105.632
-105.609
-105.513
-105.344
-105.102
-104.789
-104.407
-103.961
-103.456
-102.893
-102.269
-101.6
-100.901
-100.183
-99.464
-98.741
-97.999
-97.261
-96.551
-95.835
-95.09
-94.298
-93.428
-92.515
-91.624
-90.726
-89.763
-88.899
-88.322
-87.923
-87.713
-87.728
-87.561
-88.306
-91.023
-94.192
-97.349
-97.7
-91.901
-83.646
-75.396
-70.816
-74.944
-83.313
-92.139
-98.824
-99.081
-95.962
-92.561
-89.56
-88.841
-89.297
-89.509
-89.738
-89.793
-89.763
-89.927
-90.087
-90.085
-89.961
-89.72
-89.337
-88.816
-88.156
-87.353
-86.442
-85.459
-84.395
-83.247
-82.006
-80.651
-79.195
-77.657
-75.994
-74.171
-72.167
-69.949
-67.549
-65.029
-62.359
-59.481
-56.559
-53.785
-51.051
-48.374
-45.796
-42.917
-40.836
-40.618
-40.757
-40.802
-37.978
-28.964
-17.453
-5.912
1.995
1.234
-3.76
-9.228
-12.598
-9.611
-3.329
3.147
9.121
12.697
14.961
17.309
19.463
21.589
23.583
25.148
26.46
27.656
28.676
29.5
30.139
30.582
30.818
30.837
30.611
30.104
29.326
28.289
26.99
25.43
23.614
21.545
19.237
16.709
13.979
11.058
7.96
4.683
1.23
-2.393
-6.175
-10.1
-14.139
-18.263
-22.43
-26.58
-30.653
-34.589
-38.335
-41.847
-45.086
-47.999
-50.519
-52.565
-54.059
-54.936
-55.145
-54.654
-53.464
-51.597
-49.124
-46.151
-42.754
-39.035
-35.109
-31.095
-27.159
-23.492
-20.234
-17.584
-15.885
-15.32
-15.879
-17.348
-19.129
-20.592
-21.366
-21.014
-18.754
-14.153
-7.603
0.042
7.219
12.078
15.107
17.02
15.956
11.939
3.556
-10.069
-21.212
-23.515
-10.608
24.612
79.041
149.332
231.992
320.236
413.226
509.299
604.966
698.447
784.324
856.877
912.8
948.984
963.816
957.42
929.378
879.198
808.036
718.253
613.16
497.385
375.991
253.356
134.349
24.469
-71.758
-150.891
-210.961
-251.984
-275.354
-282.896
-277.225
-261.878
-240.46
-216.308
-192.148
-169.819
-150.071
-132.992
-118.434
-105.796
-94.325
-83.524
-72.741
-61.151
-48.673
-35.73
-22.682
-10.103
1.539
12.231
21.554
28.654
33.201
35.161
34.589
31.848
27.137
20.417
12.038
2.655
-7.229
-17.145
-26.761
-35.923
-44.338
-51.676
-57.777
-62.591
-66.144
-68.518
-69.745
-69.84
-68.885
-66.992
-64.31
-61.002
-57.195
-53.016
-48.597
-44.082
-39.647
-35.422
-31.487
-27.893
-24.654
-21.778
-19.275
-17.128
-15.291
-13.72
-12.364
-11.172
-10.111
-9.137
-8.199
-7.243
-6.205
-5.038
-3.711
-2.199
-0.483
1.454
3.627
6.043
8.7
11.597
14.736
18.121
21.758
25.649
29.793
34.193
38.843
43.735
48.857
54.194
59.722
65.417
71.246
77.169
83.149
89.145
95.12
101.043
106.882
112.612
118.204
123.624
128.853
133.889
138.74
143.427
147.971
152.392
156.721
161.003
165.279
169.585
173.944
178.359
182.827
187.335
191.868
196.42
200.944
205.359
209.559
213.412
216.794
219.606
221.726
223.018
223.353
222.609
220.683
217.511
213.024
207.158
199.861
191.074
180.81
169.146
156.197
142.13
127.1
111.239
94.714
77.723
60.462
43.134
25.93
9.015
-7.412
-23.127
-37.917
-51.565
-63.927
-74.932
-84.548
-92.785
-99.659
-105.173
-109.373
-112.343
-114.166
-114.936
-114.757
-113.725
-111.989
-109.751
-107.2
-104.525
-101.872
-99.329
-96.973
-94.859
-93.029
-91.52
-90.349
-89.507
-88.992
-88.809
-88.944
-89.387
-90.085
-90.95
-91.909
-92.895
-93.863
-94.794
-95.671
-96.484
-97.235
-97.94
-98.616
-99.288
-99.971
-100.667
-101.387
-102.144
-102.96
-103.871
-104.9
-106.059
-107.355
-108.784
-110.339
-112.012
-113.782
-115.62
-117.498
-119.386
-121.262
-123.105
-124.893
-126.602
-128.208
-129.688
-131.02
-132.188
-133.177
-133.971
-134.558
-134.93
-135.079
-135.007
-134.71
-134.189
-133.444
-132.477
-131.292
-129.893
-128.287
-126.481
-124.484
-122.305
-119.958
-117.457
-114.816
-112.051
-109.179
-106.217
-103.183
-100.096
-96.975
-93.837
-90.701
-87.584
-84.505
-81.479
-78.523
-75.652
-72.879
-70.217
-67.677
-65.271
-63.005
-60.888
-58.924
-57.119
-55.476
-53.996
-52.681
-51.529
-50.541
-49.713
-49.043
-48.527
-48.16
-47.935
-47.846
-47.886
-48.046
-48.318
-48.694
-49.163
-49.718
-50.349
-51.046
-51.801
-52.605
-53.448
-54.322
-55.219
-56.131
-57.051
-57.974
-58.892
-59.801
-60.697
-61.575
-62.434
-63.269
-64.078
-64.861
-65.615
-66.339
-67.033
-67.695
-68.327
-68.928
-69.497
-70.035
-70.543
-71.021
-71.469
-71.888
-72.279
-72.643
-72.978
-73.288
-73.571
-73.829
-74.061
-74.268
-74.45
-74.606
-74.737
-74.842
-74.92
-74.971
-74.992
-74.984
-74.944
-74.871
-74.763
-74.62
-74.439
-74.219
-73.959
-73.657
-73.313
-72.926
-72.495
-72.02
-71.501
-70.938
-70.331
-69.681
-68.988
-68.253
-67.477
-66.66
-65.803
-64.908
-63.975
-63.006
-62.002
-60.964
-59.894
-58.794
-57.664
-56.507
-55.323
-54.116
-52.885
-51.634
-50.364
-49.077
-47.776
-46.461
-45.135
-43.798
-42.453
-41.101
-39.741
-38.374
-37.001
-35.621
-34.236
-32.844
-31.447
-30.043
-28.634
-27.219
-25.798
-24.372
-22.94
-21.503
-20.061
-18.615
-17.165
-15.712
-14.255
-12.797
-11.338
-9.878
-8.418
-6.96
-5.502
-4.046
-2.593
-1.142
0.305
1.746
3.182
4.61
6.028
7.434
8.824
10.196
11.547
12.872
14.169
15.433
16.66
17.847
18.988
20.081
21.119
22.1
23.017
23.864
24.633
25.318
25.91
26.4
26.781
27.042
27.174
27.172
27.029
26.74
26.301
25.704
24.942
24.009
22.902
21.617
20.153
18.51
16.688
14.691
12.53
10.214
7.752
5.142
2.375
-0.554
-3.645
-6.892
-10.285
-13.809
-17.449
-21.174
-24.938
-28.692
-32.384
-35.967
-39.411
-42.672
-45.698
-48.418
-50.745
-52.601
-53.928
-54.687
-54.86
-54.438
-53.431
-51.89
-49.895
-47.558
-45.024
-42.425
-39.902
-37.619
-35.712
-34.409
-34.017
-34.713
-36.55
-39.376
-42.783
-46.41
-50.012
-53.164
-55.315
-56.087
-55.272
-53.351
-51.474
-50.538
-51.157
-53.718
-58.334
-65.064
-73.624
-82.35
-88.422
-88.968
-81.075
-62.64
-32.231
12.059
71.561
145.8
232.856
329.409
430.924
533.495
633.164
724.264
801.21
859.259
894.274
904.398
889.563
849.441
784.901
699.281
596.765
482.528
362.764
242.335
125.428
16.858
-79.528
-161.402
-227.256
-276.94
-311.635
-332.435
-340.709
-338.503
-327.872
-310.623
-288.242
-262.009
-232.915
-201.85
-169.88
-138.199
-107.588
-78.864
-53.202
-31.201
-13.133
0.758
10.991
18.656
24.352
28.736
32.835
37.048
41.539
46.476
51.333
55.245
57.843
58.891
58.118
55.72
51.969
47.123
41.819
36.783
32.474
29.22
27.211
26.428
26.851
28.461
31.119
34.649
38.893
43.687
48.912
54.455
60.175
65.913
71.503
76.805
81.712
86.157
90.103
93.535
96.453
98.875
100.834
102.37
103.534
104.376
104.938
105.274
105.445
105.518
105.569
105.665
105.855
106.178
106.664
107.334
108.21
109.304
110.619
112.164
113.943
115.964
118.239
120.773
123.568
126.623
129.932
133.487
137.283
141.313
145.565
150.028
154.686
159.525
164.529
169.68
174.955
180.334
185.79
191.3
196.841
202.386
207.912
213.39
218.794
224.093
229.257
234.257
239.059
243.635
247.955
251.992
255.721
259.119
262.166
264.844
267.13
269.002
270.434
271.408
271.911
271.938
271.493
270.589
269.249
267.5
265.373
262.892
260.075
256.927
253.439
249.604
245.409
240.86
235.975
230.773
225.268
219.468
213.377
206.979
200.25
193.155
185.648
177.705
169.328
160.552
151.447
142.102
132.624
123.099
113.592
104.163
94.866
85.755
76.889
68.341
60.194
52.549
45.526
39.218
33.684
28.939
24.949
21.647
18.933
16.724
14.951
13.559
12.502
11.74
11.232
10.933
10.789
10.726
10.645
10.463
10.115
9.568
8.829
7.93
6.927
5.871
4.8
3.742
2.709
1.706
0.73
-0.224
-1.167
-2.091
-2.974
-3.797
-4.542
-5.209
-5.811
-6.373
-6.931
-7.519
-8.166
-8.896
-9.723
-10.653
-11.687
-12.817
-14.032
-15.323
-16.689
-18.127
-19.636
-21.213
-22.85
-24.536
-26.26
-28.009
-29.768
-31.525
-33.268
-34.989
-36.679
-38.334
-39.952
-41.528
-43.06
-44.542
-45.97
-47.34
-48.645
-49.883
-51.047
-52.135
-53.143
-54.07
-54.913
-55.672
-56.347
-56.938
-57.446
-57.871
-58.215
-58.48
-58.668
-58.782
-58.824
-58.796
-58.703
-58.546
-58.33
-58.058
-57.732
-57.357
-56.934
-56.468
-55.961
-55.415
-54.833
-54.216
-53.567
-52.888
-52.181
-51.448
-50.69
-49.912
-49.113
-48.298
-47.468
-46.624
-45.771
-44.909
-44.041
-43.169
-42.298
-41.429
-40.565
-39.712
-38.871
-38.048
-37.247
-36.472
-35.729
-35.021
-34.354
-33.734
-33.166
-32.655
-32.209
-31.831
-31.53
-31.311
-31.182
-31.147
-31.213
-31.387
-31.674
-32.078
-32.606
-33.261
-34.046
-34.967
-36.024
-37.219
-38.555
-40.031
-41.645
-43.397
-45.284
-47.3
-49.443
-51.704
-54.079
-56.559
-59.135
-61.799
-64.541
-67.35
-70.215
-73.123
-76.062
-79.019
-81.979
-84.93
-87.857
-90.746
-93.582
-96.352
-99.042
-101.637
-104.126
-106.496
-108.734
-110.828
-112.768
-114.544
-116.146
-117.568
-118.801
-119.841
-120.685
-121.328
-121.77
-122.011
-122.052
-121.894
-121.54
-120.996
-120.265
-119.355
-118.272
-117.026
-115.625
-114.079
-112.4
-110.599
-108.687
-106.677
-104.581
-102.41
-100.176
-97.893
-95.57
-93.221
-90.856
-88.487
-86.124
-83.779
-81.46
-79.177
-76.939
-74.751
-72.62
-70.55
-68.546
-66.611
-64.747
-62.956
-61.24
-59.598
-58.031
-56.537
-55.116
-53.763
-52.476
-51.251
-50.083
-48.967
-47.898
-46.871
-45.879
-44.918
-43.983
-43.072
-42.182
-41.31
-40.458
-39.624
-38.81
-38.018
-37.247
-36.498
-35.771
-35.068
-34.393
-33.752
-33.151
-32.599
-32.108
-31.689
-31.357
-31.124
-30.996
-30.977
-31.067
-31.272
-31.606
-32.086
-32.731
-33.569
-34.632
-35.955
-37.572
-39.505
-41.758
-44.325
-47.191
-50.346
-53.79
-57.526
-61.564
-65.905
-70.535
-75.429
-80.55
-85.827
-91.153
-96.412
-101.479
-106.257
-110.691
-114.747
-118.408
-121.652
-124.458
-126.802
-128.66
-130.029
-130.927
-131.388
-131.477
-131.316
-131.078
-130.984
-131.293
-132.226
-133.966
-136.673
-140.449
-145.454
-151.916
-159.92
-169.388
-180.025
-191.28
-202.666
-213.865
-224.401
-233.574
-240.893
-246.26
-250.277
-254.303
-259.408
-265.959
-274.03
-283.704
-294.844
-306.57
-316.727
-321.834
-318.544
-304.627
-278.779
-239.944
-186.914
-119.389
-38.723
51.951
148.453
246.999
344.556
437.655
521.514
591.453
643.596
675.188
685.445
674.08
640.342
584.764
510.005
419.711
318.618
212.042
103.922
-1.93
-100.677
-188.352
-262.188
-320.185
-362.37
-390.18
-404.585
-407.077
-400.365
-387.048
-369.901
-351.76
-333.867
-316.47
-299.952
-284.247
-268.841
-253.286
-236.67
-217.921
-196.932
-174.146
-150.128
-125.705
-101.619
-78.488
-57.157
-38.471
-22.851
-10.425
-1.073
5.514
9.588
11.376
11.182
9.375
6.334
2.416
-2.075
-6.893
-11.793
-16.496
-20.691
-24.131
-26.665
-28.211
-28.769
-28.352
-26.975
-24.694
-21.601
-17.813
-13.477
-8.727
-3.68
1.542
6.815
11.995
16.912
21.443
25.513
29.081
32.14
34.688
36.723
38.27
39.38
40.11
40.517
40.651
40.553
40.272
39.872
39.422
39
38.669
38.471
38.446
38.622
39.027
39.685
40.609
41.802
43.268
45.017
47.057
49.403
52.063
55.034
58.318
61.91
65.806
70.003
74.495
79.272
84.325
89.641
95.211
101.022
107.057
113.297
119.719
126.297
133.005
139.815
146.697
153.618
160.545
167.447
174.29
181.04
187.664
194.127
200.396
206.437
212.216
217.701
222.859
227.66
232.074
236.072
239.628
242.717
245.314
247.4
248.954
249.96
250.402
250.27
249.553
248.245
246.34
243.838
240.741
237.052
232.78
227.933
222.525
216.571
210.091
203.104
195.633
187.704
179.345
170.584
161.454
151.986
142.217
132.181
121.915
111.46
100.852
90.133
79.342
68.519
57.705
46.94
36.264
25.714
15.33
5.148
-4.796
-14.468
-23.836
-32.869
-41.538
-49.819
-57.686
-65.119
-72.099
-78.61
-84.639
-90.176
-95.214
-99.747
-103.774
-107.293
-110.31
-112.829
-114.858
-116.408
-117.492
-118.125
-118.323
-118.108
-117.5
-116.515
-115.175
-113.501
-111.513
-109.245
-106.726
-103.973
-101.021
-97.919
-94.704
-91.427
-88.127
-84.789
-81.407
-78.024
-74.614
-71.122
-67.545
-63.836
-59.967
-56.084
-52.314
-48.627
-45.216
-42.48
-40.398
-38.836
-37.964
-37.239
-37.007
-39.606
-44.637
-49.83
-52.025
-43.444
-21.892
5.037
28.205
33.837
13.9
-21.485
-57.891
-80.196
-76.483
-53.575
-25.53
-2.775
5.459
1.025
-7.395
-15.511
-20.04
-20.655
-20.49
-20.42
-20.252
-20.134
-19.587
-18.51
-17.322
-16.149
-14.962
-13.841
-12.829
-11.884
-10.987
-10.108
-9.186
-8.213
-7.229
-6.244
-5.262
-4.3
-3.366
-2.474
-1.646
-0.894
-0.225
0.351
0.825
1.187
1.425
1.53
1.495
1.313
0.976
0.48
-0.179
-1.005
-2
-3.164
-4.497
-5.997
-7.661
-9.484
-11.461
-13.584
-15.844
-18.233
-20.739
-23.351
-26.055
-28.838
-31.685
-34.579
-37.505
-40.446
-43.385
-46.303
-49.183
-52.008
-54.76
-57.422
-59.976
-62.408
-64.703
-66.845
-68.822
-70.622
-72.233
-73.646
-74.853
-75.847
-76.622
-77.175
-77.504
-77.609
-77.491
-77.152
-76.599
-75.837
-74.874
-73.719
-72.384
-70.88
-69.222
-67.424
-65.503
-63.475
-61.36
-59.175
-56.941
-54.678
-52.405
-50.141
-47.908
-45.723
-43.606
-41.574
-39.644
-37.832
-36.154
-34.623
-33.252
-32.052
-31.032
-30.201
-29.564
-29.127
-28.892
-28.86
-29.031
-29.404
-29.974
-30.737
-31.686
-32.813
-34.108
-35.561
-37.159
-38.887
-40.731
-42.674
-44.699
-46.789
-48.925
-51.089
-53.263
-55.429
-57.567
-59.662
-61.694
-63.648
-65.507
-67.256
-68.88
-70.366
-71.7
-72.873
-73.875
-74.697
-75.333
-75.776
-76.022
-76.067
-75.91
-75.547
-74.981
-74.211
-73.24
-72.073
-70.714
-69.17
-67.45
-65.563
-63.52
-61.33
-59.006
-56.561
-54.005
-51.354
-48.621
-45.821
-42.967
-40.076
-37.164
-34.249
-31.35
-28.485
-25.671
-22.924
-20.261
-17.702
-15.267
-12.971
-10.827
-8.846
-7.041
-5.427
-4.017
-2.825
-1.852
-1.102
-0.577
-0.281
-0.222
-0.402
-0.81
-1.433
-2.254
-3.268
-4.486
-5.911
-7.536
-9.348
-11.328
-13.458
-15.73
-18.124
-20.593
-23.084
-25.53
-27.867
-30.064
-32.096
-33.95
-35.598
-36.966
-37.957
-38.485
-38.495
-37.985
-36.989
-35.5
-33.465
-30.94
-28.157
-25.552
-23.572
-22.438
-22.07
-22.275
-23.199
-25.059
-27.682
-30.375
-32.027
-31.742
-29.527
-25.984
-21.217
-15.032
-7.611
0.197
6.36
8.641
6.24
-0.518
-11.256
-25.601
-43.101
-62.51
-80.49
-92.689
-95.627
-86.599
-63.763
-25.701
29.526
102.835
192.551
295.244
406.41
520.789
633.868
740.964
835.729
912.353
966.618
995.492
998.279
975.936
929.048
859.248
770.466
667.031
553.654
435.634
316.83
200.462
90.656
-9.048
-96.343
-169.222
-226.769
-269.534
-297.969
-312.988
-316.754
-311.663
-300.175
-285.083
-268.678
-252.169
-236.426
-221.917
-208.428
-195.574
-182.775
-169.13
-153.89
-136.996
-118.799
-99.834
-80.856
-62.564
-45.631
-30.857
-18.95
-10.224
-4.676
-2.106
-2.163
-4.535
-8.934
-14.974
-22.215
-30.235
-38.657
-47.195
-55.622
-63.681
-71.072
-77.507
-82.774
-86.758
-89.43
-90.799
-90.884
-89.726
-87.411
-84.067
-79.849
-74.922
-69.436
-63.51
-57.271
-50.859
-44.436
-38.166
-32.17
-26.515
-21.238
-16.359
-11.897
-7.858
-4.22
-0.937
2.038
4.75
7.233
9.513
11.628
13.623
15.552
17.47
19.414
21.406
23.465
25.601
27.826
30.146
32.556
35.044
37.602
40.228
42.923
45.687
48.52
51.414
54.366
57.369
60.42
63.515
66.649
69.817
73.016
76.241
79.489
82.758
86.042
89.335
92.628
95.912
99.177
102.414
105.612
108.759
111.846
114.862
117.797
120.641
123.385
126.019
128.533
130.918
133.162
135.258
137.195
138.964
140.556
141.963
143.177
144.19
144.995
145.586
145.955
146.1
146.014
145.694
145.138
144.344
143.312
142.041
140.533
138.791
136.817
134.617
132.196
129.561
126.719
123.678
120.446
117.035
113.453
109.713
105.826
101.805
97.663
93.413
89.07
84.65
80.167
75.637
71.077
66.501
61.928
57.373
52.852
48.382
43.977
39.655
35.428
31.312
27.32
23.464
19.756
16.207
12.825
9.618
6.594
3.757
1.113
-1.336
-3.589
-5.644
-7.502
-9.164
-10.633
-11.913
-13.008
-13.924
-14.668
-15.246
-15.668
-15.943
-16.08
-16.089
-15.982
-15.769
-15.463
-15.077
-14.621
-14.109
-13.554
-12.968
-12.364
-11.753
-11.148
-10.558
-9.995
-9.466
-8.981
-8.546
-8.168
-7.852
-7.601
-7.42
-7.311
-7.275
-7.313
-7.423
-7.606
-7.857
-8.174
-8.552
-8.987
-9.474
-10.004
-10.573
-11.172
-11.793
-12.428
-13.068
-13.702
-14.322
-14.916
-15.474
-15.986
-16.442
-16.832
-17.147
-17.378
-17.519
-17.563
-17.504
-17.337
-17.059
-16.667
-16.159
-15.535
-14.797
-13.946
-12.985
-11.919
-10.754
-9.497
-8.159
-6.746
-5.267
-3.731
-2.15
-0.536
1.091
2.723
4.352
5.95
7.49
8.95
10.3
11.534
12.655
13.631
14.428
15.072
15.579
15.96
16.241
16.379
16.3
16.031
15.628
14.919
13.706
12.103
10.098
7.655
5.199
1.599
-4.239
-10.733
-17.396
-21.323
-19.039
-14.361
-9.83
-9.231
-17.771
-30.807
-44.4
-55.841
-60.67
-62.035
-63.126
-64.634
-68.493
-73.54
-78.287
-82.99
-87.436
-91.702
-96.06
-100.297
-104.237
-107.913
-111.318
-114.42
-117.208
-119.681
-121.836
-123.69
-125.272
-126.562
-127.544
-128.221
-128.593
-128.663
-128.438
-127.92
-127.112
-126.027
-124.677
-123.074
-121.234
-119.172
-116.904
-114.448
-111.821
-109.044
-106.136
-103.117
-100.007
-96.827
-93.596
-90.334
-87.06
-83.793
-80.551
-77.353
-74.215
-71.155
-68.187
-65.327
-62.589
-59.986
-57.53
-55.231
-53.098
-51.141
-49.366
-47.779
-46.385
-45.187
-44.185
-43.382
-42.775
-42.362
-42.137
-42.095
-42.227
-42.527
-42.983
-43.583
-44.317
-45.172
-46.137
-47.201
-48.353
-49.574
-50.855
-52.189
-53.565
-54.971
-56.391
-57.801
-59.186
-60.545
-61.857
-63.087
-64.203
-65.172
-65.984
-66.669
-67.221
-67.595
-67.81
-67.927
-68.002
-68.106
-68.247
-68.338
-68.376
-68.472
-68.504
-68.082
-67.142
-65.816
-64.067
-62.313
-59.615
-53.482
-44.677
-35.521
-30.06
-35.514
-50.913
-69.111
-82.857
-81.615
-65.102
-43.052
-22.863
-12.718
-14.076
-18.543
-20.684
-19.156
-13.791
-10.759
-15.128
-22.674
-30.719
-34.662
-28.73
-18.433
-8.254
-1.187
-2.166
-7.732
-14.299
-20.959
-25.449
-28.903
-32.857
-36.997
-41.493
-46.182
-50.72
-55.316
-60.111
-65.021
-69.956
-74.816
-79.522
-84.017
-88.264
-92.244
-95.909
-99.242
-102.245
-104.894
-107.156
-108.979
-110.274
-110.952
-110.957
-110.261
-108.875
-106.842
-104.207
-101.027
-97.377
-93.353
-89.087
-84.72
-80.405
-76.305
-72.567
-69.434
-67.234
-66.168
-66.292
-67.428
-69.117
-70.94
-72.615
-73.715
-73.704
-72.263
-69.321
-65.5
-62.119
-60.237
-60.506
-63.297
-68.685
-76.484
-86.034
-95.295
-101.007
-100.035
-89.528
-67.416
-32.434
16.687
80.603
158.075
246.243
341.54
439.587
536.46
628.773
712.109
781.849
834.424
867.048
877.903
866.775
833.402
777.347
699.874
603.609
492.125
370.14
242.575
113.541
-12.278
-129.236
-232.178
-316.966
-381.256
-424.632
-447.859
-451.913
-438.527
-411.175
-374.557
-333.595
-292.241
-253.361
-218.676
-189.552
-167.389
-152.24
-142.634
-136.478
-131.691
-126.419
-119.796
-111.318
-100.048
-85.746
-69.058
-50.981
-32.927
-16.405
-2.128
9.598
18.318
23.961
26.73
26.916
25.218
22.471
19.15
15.548
11.919
8.369
5.063
2.215
-0.109
-1.878
-3.015
-3.472
-3.194
-2.127
-0.309
2.181
5.252
8.79
12.699
16.909
21.344
25.934
30.604
35.268
39.844
44.247
48.381
52.174
55.578
58.567
61.148
63.344
65.18
66.697
67.941
68.944
69.741
70.36
70.818
71.148
71.382
71.563
71.745
71.97
72.272
72.674
73.191
73.833
74.608
75.516
76.549
77.703
78.97
80.353
81.864
83.509
85.294
87.214
89.248
91.379
93.6
95.895
98.251
100.647
103.057
105.472
107.901
110.348
112.825
115.322
117.814
120.278
122.693
125.048
127.358
129.621
131.822
133.961
136.048
138.097
140.145
142.179
144.143
145.987
147.663
149.14
150.423
151.5
152.354
152.963
153.291
153.319
153.052
152.465
151.52
150.172
148.357
146.074
143.389
140.352
137.011
133.398
129.515
125.383
121.045
116.527
111.855
107.049
102.105
97.056
91.954
86.853
81.82
76.876
71.988
67.14
62.324
57.536
52.792
48.093
43.422
38.784
34.195
29.673
25.244
20.913
16.667
12.495
8.382
4.334
0.375
-3.479
-7.218
-10.833
-14.319
-17.668
-20.862
-23.899
-26.788
-29.537
-32.155
-34.644
-37.002
-39.225
-41.316
-43.278
-45.115
-46.833
-48.433
-49.919
-51.298
-52.575
-53.756
-54.847
-55.847
-56.756
-57.577
-58.309
-58.957
-59.52
-59.997
-60.391
-60.701
-60.93
-61.076
-61.141
-61.123
-61.021
-60.835
-60.563
-60.205
-59.76
-59.228
-58.609
-57.903
-57.113
-56.24
-55.285
-54.253
-53.147
-51.971
-50.729
-49.426
-48.068
-46.66
-45.209
-43.721
-42.204
-40.665
-39.112
-37.553
-35.996
-34.449
-32.922
-31.423
-29.959
-28.539
-27.171
-25.864
-24.626
-23.465
-22.387
-21.401
-20.514
-19.73
-19.055
-18.494
-18.05
-17.726
-17.522
-17.438
-17.476
-17.631
-17.902
-18.285
-18.775
-19.367
-20.053
-20.826
-21.679
-22.602
-23.587
-24.623
-25.699
-26.807
-27.935
-29.074
-30.211
-31.338
-32.444
-33.518
-34.55
-35.531
-36.451
-37.3
-38.071
-38.754
-39.343
-39.831
-40.213
-40.484
-40.639
-40.678
-40.598
-40.4
-40.083
-39.65
-39.105
-38.451
-37.694
-36.841
-35.899
-34.876
-33.782
-32.627
-31.42
-30.173
-28.896
-27.599
-26.295
-24.994
-23.707
-22.445
-21.219
-20.042
-18.922
-17.871
-16.9
-16.018
-15.235
-14.559
-14
-13.564
-13.259
-13.091
-13.065
-13.185
-13.456
-13.879
-14.457
-15.189
-16.075
-17.112
-18.298
-19.628
-21.098
-22.702
-24.433
-26.284
-28.249
-30.319
-32.485
-34.74
-37.074
-39.477
-41.94
-44.452
-47.003
-49.582
-52.179
-54.782
-57.38
-59.963
-62.518
-65.035
-67.503
-69.911
-72.246
-74.5
-76.662
-78.721
-80.668
-82.495
-84.194
-85.757
-87.178
-88.453
-89.575
-90.541
-91.347
-91.991
-92.471
-92.783
-92.926
-92.898
-92.705
-92.35
-91.839
-91.173
-90.35
-89.375
-88.265
-87.021
-85.626
-84.067
-82.333
-80.429
-78.398
-76.256
-73.975
-71.589
-69.188
-66.842
-64.63
-62.572
-60.576
-58.619
-56.816
-55.073
-53.003
-50.521
-47.755
-44.66
-41.651
-38.002
-31.261
-21.871
-12.126
-5.661
-9.446
-23.31
-40.199
-53.171
-52.356
-36.785
-15.868
3.098
12.341
10.229
3.774
-2.63
-6.091
-5.615
-4.054
-2.769
-1.65
-0.811
0.165
1.396
2.491
3.326
3.967
4.4
4.6
4.577
4.343
3.933
3.414
2.805
2.071
1.195
0.182
-0.961
-2.214
-3.569
-5.035
-6.626
-8.347
-10.191
-12.151
-14.214
-16.379
-18.644
-20.994
-23.391
-25.788
-28.132
-30.373
-32.501
-34.51
-36.385
-38.101
-39.576
-40.711
-41.449
-41.761
-41.639
-41.113
-40.155
-38.666
-36.763
-34.734
-32.87
-31.522
-30.783
-30.397
-30.347
-30.987
-32.416
-34.401
-36.511
-37.805
-37.835
-37.162
-36.026
-34.137
-31.431
-28.021
-24.477
-22.655
-23.982
-28.344
-35.784
-46.328
-59.383
-74.548
-90.91
-105.387
-114.691
-117.055
-108.784
-86.816
-51.653
-1.942
59.309
124.958
196.681
275.679
364.687
471.246
586.613
696.011
786.033
839.709
857.036
848.55
822.005
787.404
745.725
690.395
619.663
533.124
433.221
326.315
216.312
105.773
-1.993
-103.705
-195.855
-275.044
-338.819
-386.057
-416.475
-430.43
-429.165
-415.128
-391.28
-360.667
-326.81
-292.648
-259.919
-229.655
-202.326
-177.728
-155.686
-136.17
-118.169
-100.394
-82.393
-64.449
-47.298
-31.517
-17.274
-4.217
7.939
17.337
22.369
24.323
23.652
23.398
26.918
29.671
28.4
19.384
-2.173
-30.531
-60.092
-87.017
-105.601
-118.275
-128.638
-136.049
-140.392
-137.998
-122.784
-96.646
-66.485
-39.856
-27.435
-30.541
-40.976
-51.929
-55.287
-49.14
-39.62
-30.299
-23.488
-19.762
-16.389
-12.364
-8.283
-4.345
-0.997
1.659
4.071
6.395
8.569
10.686
12.918
15.364
18.067
20.998
24.042
27.149
30.345
33.642
37.038
40.52
44.068
47.67
51.326
55.033
58.782
62.562
66.361
70.169
73.982
77.798
81.619
85.443
89.264
93.072
96.857
100.608
104.317
107.974
111.567
115.085
118.514
121.842
125.057
128.147
131.099
133.9
136.539
139.004
141.283
143.366
145.244
146.908
148.347
149.553
150.517
151.231
151.687
151.879
151.799
151.443
150.806
149.883
148.671
147.169
145.376
143.29
140.914
138.249
135.298
132.067
128.559
124.782
120.743
116.449
111.912
107.144
102.156
96.955
91.553
85.961
80.194
74.272
68.21
62.014
55.705
49.322
42.9
36.475
30.069
23.67
17.293
10.992
4.765
-1.439
-7.652
-13.917
-20.221
-26.457
-32.578
-38.662
-44.599
-50.027
-54.853
-59.168
-62.917
-66.453
-69.102
-68.699
-65.662
-61.982
-60.879
-68.478
-84.518
-102.824
-117.279
-119.198
-107.882
-91.589
-76.719
-70.136
-73.17
-79.676
-85.848
-89.139
-88.736
-87.166
-85.613
-84.004
-82.452
-80.6
-78.365
-76.108
-73.953
-71.86
-69.858
-67.98
-66.231
-64.611
-63.106
-61.671
-60.302
-59.036
-57.893
-56.879
-56.002
-55.267
-54.679
-54.249
-53.982
-53.872
-53.916
-54.111
-54.451
-54.93
-55.542
-56.276
-57.123
-58.073
-59.112
-60.228
-61.409
-62.639
-63.906
-65.193
-66.485
-67.77
-69.03
-70.254
-71.425
-72.532
-73.561
-74.501
-75.34
-76.067
-76.673
-77.148
-77.486
-77.679
-77.723
-77.615
-77.351
-76.932
-76.358
-75.632
-74.758
-73.74
-72.586
-71.301
-69.896
-68.38
-66.764
-65.059
-63.278
-61.434
-59.541
-57.614
-55.667
-53.715
-51.771
-49.851
-47.968
-46.135
-44.366
-42.674
-41.069
-39.564
-38.168
-36.892
-35.743
-34.729
-33.857
-33.13
-32.552
-32.125
-31.85
-31.725
-31.749
-31.917
-32.227
-32.67
-33.241
-33.931
-34.73
-35.629
-36.616
-37.678
-38.803
-39.977
-41.187
-42.419
-43.66
-44.896
-46.113
-47.299
-48.442
-49.53
-50.551
-51.495
-52.351
-53.112
-53.769
-54.316
-54.746
-55.055
-55.239
-55.298
-55.229
-55.034
-54.714
-54.271
-53.709
-53.033
-52.249
-51.363
-50.384
-49.321
-48.183
-46.981
-45.726
-44.429
-43.103
-41.759
-40.408
-39.063
-37.734
-36.432
-35.168
-33.951
-32.79
-31.694
-30.671
-29.728
-28.869
-28.102
-27.429
-26.854
-26.378
-26.003
-25.728
-25.554
-25.478
-25.499
-25.613
-25.816
-26.103
-26.47
-26.91
-27.415
-27.98
-28.596
-29.253
-29.945
-30.661
-31.393
-32.133
-32.872
-33.603
-34.316
-35.005
-35.663
-36.284
-36.861
-37.389
-37.864
-38.281
-38.636
-38.927
-39.153
-39.31
-39.399
-39.418
-39.368
-39.249
-39.062
-38.807
-38.486
-38.1
-37.65
-37.139
-36.569
-35.943
-35.262
-34.53
-33.75
-32.924
-32.055
-31.145
-30.197
-29.212
-28.193
-27.14
-26.055
-24.939
-23.792
-22.615
-21.407
-20.169
-18.901
-17.602
-16.27
-14.906
-13.508
-12.074
-10.605
-9.099
-7.555
-5.974
-4.354
-2.697
-1.003
0.727
2.492
4.289
6.117
7.973
9.853
11.754
13.671
15.599
17.531
19.462
21.384
23.289
25.168
27.01
28.805
30.539
32.202
33.779
35.258
36.624
37.864
38.967
39.922
40.719
41.348
41.796
42.052
42.106
41.946
41.564
40.954
40.108
39.026
37.711
36.167
34.4
32.413
30.199
27.755
25.082
22.181
19.062
15.738
12.234
8.581
4.829
1.028
-2.773
-6.53
-10.209
-13.772
-17.176
-20.371
-23.285
-25.849
-28.005
-29.696
-30.876
-31.531
-31.675
-31.356
-30.677
-29.726
-28.568
-27.293
-25.987
-24.76
-23.753
-23.108
-22.963
-23.507
-25.005
-27.599
-31.243
-35.667
-40.33
-44.661
-48.207
-50.45
-50.687
-48.537
-44.231
-38.523
-32.825
-28.54
-26.334
-26.711
-30.418
-37.466
-46.596
-55.563
-60.903
-58.584
-45.693
-20.001
21.393
79.386
151.762
237.095
332.966
436.751
549.717
666.868
776.024
865.368
921.28
939.5
927.856
894.363
847.217
789.067
716.487
629.239
529.078
420.082
308.535
198.223
92.206
-5.522
-92.274
-165.749
-223.972
-266.884
-295.033
-308.814
-309.488
-299.683
-282.106
-259.622
-235.547
-211.76
-189.143
-168.627
-150.602
-134.629
-120.453
-107.592
-94.513
-80.583
-66.006
-50.822
-35.503
-20.825
-6.883
6.408
18.052
27.313
34.166
38.181
40.493
43.833
47.74
50.176
48.137
35.424
12.812
-12.571
-33.946
-41.44
-33.774
-19.867
-6.581
-1.332
-6.017
-12.782
-16.32
-15.494
-9.999
-5.687
-7.563
-11.712
-15.704
-15.315
-5.152
9.498
24.307
36.44
41.226
41.874
41.707
41.47
43.207
45.824
47.869
49.64
50.981
52.035
53.129
54.102
54.835
55.423
55.938
56.409
56.874
57.369
57.921
58.572
59.373
60.315
61.378
62.567
63.881
65.327
66.915
68.647
70.517
72.526
74.673
76.958
79.381
81.939
84.628
87.444
90.385
93.447
96.629
99.924
103.324
106.821
110.401
114.054
117.766
121.52
125.301
129.091
132.872
136.626
140.335
143.98
147.541
151
154.337
157.532
160.567
163.422
166.079
168.519
170.723
172.676
174.36
175.759
176.859
177.645
178.106
178.23
178.007
177.427
176.482
175.167
173.477
171.408
168.96
166.132
162.927
159.351
155.409
151.11
146.465
141.486
136.187
130.582
124.689
118.527
112.115
105.474
98.626
91.595
84.405
77.082
69.652
62.139
54.573
46.978
39.382
31.813
24.296
16.858
9.527
2.327
-4.715
-11.576
-18.232
-24.659
-30.839
-36.75
-42.375
-47.7
-52.709
-57.392
-61.738
-65.74
-69.391
-72.689
-75.631
-78.219
-80.454
-82.341
-83.886
-85.097
-85.985
-86.56
-86.834
-86.823
-86.54
-86.002
-85.227
-84.231
-83.034
-81.657
-80.121
-78.446
-76.655
-74.77
-72.814
-70.81
-68.779
-66.743
-64.723
-62.74
-60.813
-58.961
-57.201
-55.55
-54.023
-52.633
-51.394
-50.316
-49.407
-48.676
-48.129
-47.77
-47.603
-47.629
-47.85
-48.265
-48.873
-49.671
-50.655
-51.82
-53.159
-54.664
-56.328
-58.138
-60.086
-62.157
-64.341
-66.623
-68.99
-71.428
-73.921
-76.456
-79.016
-81.588
-84.156
-86.706
-89.223
-91.694
-94.107
-96.449
-98.709
-100.876
-102.942
-104.897
-106.734
-108.445
-110.024
-111.464
-112.762
-113.912
-114.912
-115.759
-116.452
-116.99
-117.375
-117.607
-117.689
-117.625
-117.417
-117.072
-116.593
-115.987
-115.261
-114.422
-113.477
-112.434
-111.303
-110.091
-108.807
-107.46
-106.057
-104.607
-103.118
-101.597
-100.05
-98.486
-96.91
-95.329
-93.749
-92.176
-90.616
-89.074
-87.554
-86.062
-84.601
-83.174
-81.785
-80.437
-79.13
-77.869
-76.654
-75.487
-74.368
-73.299
-72.279
-71.312
-70.396
-69.525
-68.695
-67.902
-67.141
-66.417
-65.731
-65.07
-64.44
-63.864
-63.352
-62.926
-62.596
-62.317
-62.064
-61.856
-61.645
-61.347
-60.93
-60.325
-59.491
-58.56
-57.631
-56.645
-55.787
-55.469
-55.671
-56.251
-57.363
-58.445
-59.992
-64.464
-71.339
-78.278
-81.783
-73.871
-52.953
-26.778
-4.616
-0.201
-20.3
-54.666
-89.478
-110.183
-106.477
-85.29
-59.554
-38.937
-31.482
-35.269
-42.592
-49.666
-53.673
-54.335
-54.376
-54.54
-54.639
-54.825
-54.687
-54.126
-53.509
-52.957
-52.45
-52.067
-51.846
-51.743
-51.734
-51.791
-51.853
-51.907
-51.978
-52.066
-52.166
-52.282
-52.413
-52.558
-52.727
-52.917
-53.122
-53.339
-53.565
-53.795
-54.028
-54.259
-54.484
-54.698
-54.897
-55.073
-55.223
-55.339
-55.417
-55.449
-55.43
-55.353
-55.212
-55.002
-54.718
-54.354
-53.908
-53.374
-52.749
-52.032
-51.218
-50.305
-49.293
-48.179
-46.963
-45.643
-44.221
-42.698
-41.077
-39.358
-37.547
-35.646
-33.661
-31.597
-29.46
-27.256
-24.993
-22.679
-20.324
-17.937
-15.528
-13.11
-10.693
-8.291
-5.914
-3.576
-1.289
0.937
3.09
5.158
7.13
8.995
10.742
12.359
13.832
15.148
16.292
17.253
18.015
18.569
18.901
19.003
18.87
18.497
17.879
17.014
15.897
14.524
12.895
11.012
8.878
6.498
3.878
1.03
-2.027
-5.276
-8.699
-12.289
-16.045
-19.969
-24.054
-28.292
-32.669
-37.167
-41.762
-46.417
-51.076
-55.681
-60.168
-64.483
-68.58
-72.408
-75.911
-79.015
-81.637
-83.699
-85.139
-85.913
-85.995
-85.38
-84.093
-82.195
-79.778
-76.97
-73.92
-70.781
-67.745
-64.992
-62.683
-61.058
-60.404
-60.912
-62.675
-65.558
-69.149
-73.054
-76.901
-80.131
-82.127
-82.446
-80.879
-77.905
-74.687
-72.243
-71.409
-73.237
-78.461
-87.124
-99.034
-111.45
-120.048
-122.321
-115.026
-97.308
-70.159
-29.904
27.162
105.661
210.612
338.743
479.995
619.305
739.033
826.397
878.382
899.836
897.405
877.591
841.157
783.802
705.14
606.959
493.859
374.298
253.941
136.303
25.268
-76.401
-166.492
-242.503
-303.301
-349.506
-381.368
-399.167
-403.859
-396.418
-378.586
-353.114
-322.514
-288.525
-253.052
-218.177
-186.128
-159.151
-138.287
-123.342
-113.646
-108.477
-107.051
-108.172
-109.966
-110.521
-108.795
-104.579
-98.231
-90.327
-81.349
-72.006
-63.468
-56.763
-52.423
-50.547
-50.808
-52.705
-55.814
-59.641
-63.527
-66.944
-69.549
-71.115
-71.624
-71.133
-69.666
-67.296
-64.13
-60.243
-55.716
-50.656
-45.142
-39.273
-33.179
-26.964
-20.746
-14.664
-8.816
-3.291
1.846
6.57
10.872
14.738
18.172
21.188
23.808
26.073
28.024
29.693
31.124
32.361
33.456
34.474
35.464
36.464
37.502
38.601
39.78
41.065
42.469
43.997
45.658
47.451
49.392
51.496
53.76
56.177
58.739
61.43
64.26
67.248
70.373
73.614
77.01
80.586
84.36
88.364
92.554
96.858
101.303
105.925
110.531
114.901
119.122
123.17
127.01
131.026
134.041
134.963
135.387
135.795
139.119
148.797
160.886
172.83
180.838
179.473
173.187
166.027
160.676
161.557
165.872
169.287
170.017
167.6
163.64
162.392
166.905
173.69
180.2
182.491
175.749
164.583
152.72
142.743
138.953
138.315
137.747
136.574
132.907
127.833
122.797
117.573
112.361
107.081
101.473
95.756
90.102
84.472
78.861
73.275
67.734
62.304
57.019
51.855
46.826
42.002
37.462
33.313
29.549
25.999
22.583
19.346
16.176
12.794
9.154
5.274
1.216
-2.212
-5.665
-11.594
-19.43
-27.441
-31.431
-22.467
-1.487
22.543
39.561
33.46
3.675
-34.024
-66.23
-75.858
-59.787
-33.642
-8.743
4.684
3.481
-2.196
-4.62
-1.894
4.803
8.695
1.57
-16.569
-40.612
-64.008
-75.324
-68.832
-46.771
-13.37
19.795
40.174
42.418
25.693
-2.848
-30.019
-46.952
-50.299
-42.474
-31.352
-22.634
-18.076
-17.219
-17.578
-17.725
-17.819
-18.098
-18.792
-19.789
-20.718
-21.419
-21.909
-22.208
-22.319
-22.255
-22.06
-21.803
-21.534
-21.266
-20.975
-20.646
-20.282
-19.882
-19.445
-18.967
-18.442
-17.87
-17.257
-16.607
-15.922
-15.204
-14.457
-13.682
-12.885
-12.068
-11.237
-10.394
-9.545
-8.693
-7.842
-6.998
-6.163
-5.342
-4.539
-3.756
-2.997
-2.266
-1.564
-0.894
-0.26
0.336
0.89
1.4
1.862
2.273
2.628
2.926
3.162
3.333
3.437
3.471
3.433
3.322
3.135
2.871
2.529
2.11
1.612
1.036
0.381
-0.35
-1.158
-2.04
-2.996
-4.024
-5.121
-6.288
-7.521
-8.82
-10.182
-11.605
-13.088
-14.626
-16.218
-17.859
-19.544
-21.27
-23.031
-24.821
-26.634
-28.464
-30.306
-32.152
-33.995
-35.829
-37.648
-39.444
-41.21
-42.939
-44.625
-46.262
-47.843
-49.362
-50.815
-52.195
-53.497
-54.718
-55.852
-56.894
-57.842
-58.689
-59.434
-60.073
-60.602
-61.021
-61.329
-61.524
-61.608
-61.582
-61.449
-61.211
-60.872
-60.436
-59.91
-59.297
-58.606
-57.842
-57.015
-56.132
-55.203
-54.236
-53.241
-52.227
-51.205
-50.183
-49.172
-48.179
-47.215
-46.288
-45.408
-44.581
-43.818
-43.125
-42.511
-41.98
-41.541
-41.196
-40.951
-40.807
-40.768
-40.833
-41.003
-41.276
-41.651
-42.125
-42.694
-43.353
-44.095
-44.915
-45.803
-46.751
-47.75
-48.789
-49.858
-50.944
-52.038
-53.127
-54.199
-55.244
-56.249
-57.203
-58.094
-58.913
-59.647
-60.287
-60.823
-61.248
-61.554
-61.734
-61.782
-61.696
-61.471
-61.105
-60.597
-59.947
-59.155
-58.224
-57.156
-55.955
-54.626
-53.173
-51.603
-49.925
-48.146
-46.274
-44.321
-42.295
-40.208
-38.069
-35.89
-33.682
-31.456
-29.223
-26.994
-24.78
-22.591
-20.437
-18.329
-16.274
-14.28
-12.355
-10.504
-8.734
-7.05
-5.454
-3.951
-2.545
-1.238
-0.033
1.069
2.064
2.949
3.72
4.374
4.908
5.318
5.602
5.755
5.777
5.667
5.425
5.054
4.552
3.921
3.159
2.265
1.238
0.079
-1.213
-2.637
-4.19
-5.866
-7.658
-9.559
-11.568
-13.691
-15.936
-18.304
-20.798
-23.413
-26.139
-28.96
-31.848
-34.759
-37.646
-40.464
-43.171
-45.738
-48.132
-50.318
-52.251
-53.869
-55.114
-55.941
-56.307
-56.184
-55.568
-54.486
-53
-51.227
-49.277
-47.242
-45.226
-43.323
-41.652
-40.357
-39.575
-39.444
-40.132
-41.864
-44.765
-48.796
-53.704
-58.983
-64.083
-68.518
-71.754
-73.103
-72.12
-68.888
-64.01
-58.724
-54.308
-51.439
-50.637
-52.611
-57.543
-64.551
-71.669
-75.552
-72.47
-59.819
-35.43
3.213
57.889
128.918
214.877
311.841
414.361
517.703
617.285
707.36
782.245
837.031
868.021
874.255
856.984
817.342
756.576
677.691
584.546
481.601
373.914
265.124
157.491
53.78
-42.723
-129.515
-204.439
-266.04
-314.419
-349.404
-370.319
-377.39
-371.777
-355.168
-330.177
-299.771
-265.909
-230.781
-197.153
-167.173
-142.581
-124.429
-112.394
-105.294
-102.226
-101.874
-102.33
-102.157
-99.942
-94.635
-86.262
-75.437
-62.82
-49.47
-36.686
-25.263
-15.892
-9.038
-4.605
-2.352
-1.94
-2.769
-4.198
-5.847
-7.455
-8.879
-10.11
-11.047
-11.588
-11.705
-11.416
-10.746
-9.706
-8.29
-6.494
-4.365
-1.991
0.53
3.122
5.749
8.386
11.019
13.602
16.064
18.335
20.338
22.016
23.341
24.289
24.855
25.052
24.913
24.485
23.831
23.001
22.036
20.97
19.834
18.664
17.51
16.427
15.475
14.708
14.17
13.9
13.93
14.284
14.982
16.03
17.429
19.179
21.284
23.745
26.567
29.75
33.286
37.165
41.374
45.895
50.71
55.796
61.128
66.682
72.43
78.348
84.411
90.593
96.866
103.199
109.562
115.922
122.244
128.491
134.626
140.608
146.4
151.965
157.269
162.28
166.967
171.302
175.263
178.825
181.964
184.655
186.869
188.584
189.786
190.466
190.628
190.281
189.448
188.155
186.43
184.3
181.782
178.881
175.592
171.907
167.819
163.333
158.473
153.258
147.708
141.835
135.647
129.134
122.276
115.043
107.395
99.312
90.801
81.9
72.682
63.237
53.675
44.085
34.534
25.084
15.792
6.717
-2.085
-10.536
-18.553
-26.034
-32.859
-38.935
-44.201
-48.643
-52.293
-55.214
-57.505
-59.249
-60.511
-61.348
-61.804
-61.918
-61.73
-61.285
-60.636
-59.856
-59.042
-58.275
-57.62
-57.106
-56.73
-56.459
-56.236
-56.011
-55.746
-55.413
-55
-54.504
-53.926
-53.272
-52.553
-51.761
-50.877
-49.882
-48.76
-47.511
-46.149
-44.701
-43.205
-41.696
-40.207
-38.764
-37.385
-36.083
-34.86
-33.712
-32.628
-31.603
-30.64
-29.747
-28.927
-28.17
-27.479
-26.873
-26.359
-25.951
-25.639
-25.38
-25.167
-25.028
-24.932
-24.804
-24.587
-24.217
-23.69
-23.102
-22.472
-21.694
-20.882
-20.406
-20.317
-20.511
-21.034
-21.456
-22.611
-26.79
-33.324
-40.172
-43.701
-37.334
-21.938
-3.992
9.885
10.314
-2.659
-20.297
-35.891
-41.999
-37.831
-29.956
-22.247
-17.536
-16.461
-16.324
-16.023
-15.623
-15.05
-14.723
-14.715
-14.67
-14.498
-14.263
-13.958
-13.574
-13.131
-12.651
-12.174
-11.77
-11.46
-11.222
-11.053
-10.964
-10.957
-11.042
-11.221
-11.49
-11.851
-12.309
-12.871
-13.536
-14.307
-15.183
-16.164
-17.249
-18.436
-19.725
-21.112
-22.594
-24.169
-25.833
-27.579
-29.403
-31.299
-33.259
-35.277
-37.343
-39.449
-41.586
-43.745
-45.915
-48.088
-50.253
-52.401
-54.522
-56.608
-58.648
-60.635
-62.561
-64.419
-66.2
-67.901
-69.514
-71.036
-72.461
-73.788
-75.013
-76.133
-77.146
-78.051
-78.848
-79.535
-80.112
-80.581
-80.942
-81.198
-81.35
-81.403
-81.361
-81.228
-81.008
-80.707
-80.332
-79.888
-79.381
-78.818
-78.205
-77.549
-76.857
-76.134
-75.388
-74.623
-73.845
-73.06
-72.27
-71.482
-70.699
-69.924
-69.161
-68.413
-67.684
-66.976
-66.294
-65.641
-65.018
-64.43
-63.879
-63.367
-62.896
-62.468
-62.084
-61.745
-61.453
-61.207
-61.007
-60.854
-60.747
-60.684
-60.665
-60.689
-60.753
-60.855
-60.994
-61.168
-61.374
-61.61
-61.874
-62.165
-62.479
-62.814
-63.167
-63.536
-63.916
-64.303
-64.692
-65.079
-65.458
-65.823
-66.167
-66.486
-66.771
-67.016
-67.215
-67.361
-67.448
-67.467
-67.413
-67.279
-67.058
-66.744
-66.332
-65.816
-65.191
-64.452
-63.597
-62.621
-61.522
-60.296
-58.942
-57.459
-55.844
-54.098
-52.222
-50.216
-48.085
-45.831
-43.459
-40.976
-38.389
-35.706
-32.937
-30.092
-27.182
-24.219
-21.216
-18.187
-15.147
-12.11
-9.093
-6.114
-3.193
-0.35
2.395
5.021
7.507
9.831
11.973
13.914
15.638
17.128
18.371
19.351
20.053
20.462
20.565
20.352
19.813
18.943
17.737
16.193
14.319
12.125
9.62
6.808
3.684
0.246
-3.5
-7.548
-11.884
-16.486
-21.329
-26.374
-31.566
-36.844
-42.146
-47.414
-52.603
-57.664
-62.537
-67.151
-71.412
-75.237
-78.56
-81.315
-83.462
-84.983
-85.874
-86.179
-85.984
-85.362
-84.412
-83.252
-81.988
-80.765
-79.749
-79.096
-79.035
-79.858
-81.721
-84.609
-88.319
-92.4
-96.393
-99.938
-102.531
-103.48
-102.396
-99.432
-95.292
-91.293
-88.714
-88.152
-90.02
-94.945
-102.894
-112.647
-122.017
-127.615
-125.465
-112.583
-86.79
-45.53
11.814
82.961
166.617
260.612
362.635
473.751
588.759
696.417
785.856
844.3
868.181
864.811
841.471
806.459
762.674
705.897
634.752
549.561
452.639
349.616
244.168
138.36
34.851
-63.602
-154.25
-234.125
-300.718
-352.979
-390.319
-412.086
-418.843
-412.35
-394.405
-367.693
-335.648
-300.573
-264.534
-230.05
-198.521
-170.681
-147.595
-129.165
-114.256
-102.354
-92.635
-83.683
-74.983
-66.133
-56.281
-45.446
-34.205
-22.837
-12.074
-2.911
4.363
9.502
12.123
12.37
10.525
6.853
1.989
-3.384
-8.898
-14.205
-18.985
-23.091
-26.325
-28.55
-29.814
-30.192
-29.748
-28.552
-26.646
-24.084
-20.977
-17.447
-13.615
-9.586
-5.435
-1.254
2.845
6.745
10.323
13.505
16.259
18.565
20.418
21.828
22.811
23.409
23.682
23.685
23.469
23.081
22.557
21.943
21.294
20.669
20.128
19.723
19.488
19.455
19.653
20.102
20.819
21.811
23.073
24.609
26.42
28.51
30.884
33.541
36.478
39.689
43.165
46.898
50.875
55.087
59.517
64.152
68.975
73.969
79.12
84.409
89.814
95.311
100.875
106.481
112.102
117.708
123.272
128.764
134.154
139.414
144.515
149.431
154.134
158.598
162.798
166.709
170.311
173.581
176.501
179.054
181.223
182.996
184.36
185.307
185.83
185.923
185.583
184.81
183.606
181.972
179.915
177.441
174.559
171.28
167.617
163.585
159.2
154.48
149.445
144.117
138.518
132.672
126.605
120.34
113.906
107.328
100.634
93.849
87.002
80.119
73.227
66.35
59.513
52.741
46.055
39.478
33.029
26.728
20.593
14.638
8.881
3.333
-1.992
-7.085
-11.934
-16.533
-20.875
-24.955
-28.77
-32.317
-35.597
-38.61
-41.359
-43.849
-46.084
-48.071
-49.818
-51.333
-52.627
-53.708
-54.588
-55.277
-55.788
-56.131
-56.319
-56.362
-56.272
-56.059
-55.734
-55.307
-54.788
-54.185
-53.509
-52.767
-51.968
-51.119
-50.229
-49.303
-48.349
-47.373
-46.381
-45.379
-44.372
-43.364
-42.36
-41.362
-40.373
-39.396
-38.433
-37.485
-36.554
-35.639
-34.742
-33.863
-33.003
-32.161
-31.338
-30.534
-29.749
-28.984
-28.239
-27.516
-26.815
-26.138
-25.485
-24.859
-24.26
-23.689
-23.148
-22.637
-22.157
-21.707
-21.288
-20.9
-20.542
-20.213
-19.914
-19.642
-19.398
-19.18
-18.987
-18.818
-18.672
-18.547
-18.443
-18.357
-18.289
-18.236
-18.198
-18.173
-18.159
-18.155
-18.158
-18.168
-18.181
-18.196
-18.21
-18.221
-18.227
-18.226
-18.218
-18.2
-18.173
-18.135
-18.088
-18.032
-17.968
-17.897
-17.822
-17.743
-17.664
-17.587
-17.515
-17.452
-17.4
-17.364
-17.348
-17.353
-17.385
-17.447
-17.541
-17.67
-17.838
-18.048
-18.301
-18.6
-18.949
-19.349
-19.802
-20.311
-20.877
-21.501
-22.184
-22.926
-23.726
-24.585
-25.5
-26.469
-27.49
-28.56
-29.676
-30.834
-32.029
-33.256
-34.511
-35.788
-37.081
-38.384
-39.691
-40.995
-42.293
-43.576
-44.842
-46.083
-47.296
-48.476
-49.619
-50.72
-51.774
-52.779
-53.73
-54.624
-55.459
-56.231
-56.939
-57.581
-58.155
-58.661
-59.099
-59.469
-59.771
-60.006
-60.175
-60.28
-60.324
-60.31
-60.24
-60.117
-59.947
-59.732
-59.476
-59.183
-58.856
-58.499
-58.116
-57.709
-57.281
-56.835
-56.373
-55.9
-55.416
-54.925
-54.429
-53.93
-53.431
-52.933
-52.438
-51.949
-51.465
-50.99
-50.524
-50.068
-49.624
-49.192
-48.772
-48.365
-47.971
-47.589
-47.22
-46.863
-46.516
-46.179
-45.852
-45.533
-45.223
-44.921
-44.626
-44.338
-44.057
-43.784
-43.517
-43.257
-43.002
-42.753
-42.509
-42.269
-42.031
-41.795
-41.56
-41.323
-41.083
-40.838
-40.586
-40.325
-40.052
-39.764
-39.46
-39.136
-38.79
-38.419
-38.019
-37.589
-37.126
-36.626
-36.088
-35.508
-34.884
-34.212
-33.49
-32.714
-31.882
-30.99
-30.037
-29.019
-27.934
-26.782
-25.562
-24.272
-22.913
-21.487
-19.993
-18.435
-16.815
-15.137
-13.405
-11.625
-9.803
-7.946
-6.062
-4.16
-2.25
-0.347
1.539
3.392
5.199
6.944
8.612
10.188
11.658
13.01
14.23
15.304
16.219
16.959
17.509
17.855
17.981
17.878
17.532
16.937
16.094
15.002
13.663
12.077
10.234
8.124
5.745
3.093
0.17
-3.014
-6.44
-10.076
-13.872
-17.773
-21.729
-25.689
-29.62
-33.483
-37.235
-40.827
-44.188
-47.249
-49.95
-52.232
-54.039
-55.345
-56.16
-56.531
-56.566
-56.367
-56.012
-55.589
-55.187
-54.918
-54.924
-55.353
-56.346
-58.09
-60.837
-64.753
-69.833
-75.828
-82.179
-88.226
-93.383
-97.043
-98.464
-97.208
-93.436
-87.925
-82.232
-78.058
-76.462
-78.203
-84.072
-94.082
-106.942
-120.101
-129.448
-130.356
-119.367
-93.696
-50.59
11.615
92.719
190.588
300.643
416.653
532.973
644.338
744.781
828.585
891.195
929.31
941.635
929.165
893.066
834.384
755.69
660.466
552.489
436.375
316.701
196.687
79.842
-29.468
-127.912
-212.65
-281.283
-333.399
-369.736
-390.599
-397.044
-391.358
-375.669
-352.823
-326.145
-297.554
-268.209
-239.734
-213.543
-190.539
-171.694
-156.963
-145.385
-136.501
-130.03
-125.175
-120.898
-116.181
-109.878
-101.525
-91.429
-79.879
-67.217
-54.1
-41.342
-29.641
-19.68
-11.785
-5.852
-1.74
0.802
2.19
2.86
3.122
3.197
3.174
3.023
2.769
2.419
1.943
1.308
0.498
-0.446
-1.441
-2.381
-3.18
-3.801
-4.241
-4.488
-4.518
-4.303
-3.814
-3.046
-2.018
-0.736
0.795
2.568
4.574
6.777
9.12
11.544
13.98
16.389
18.754
21.065
23.319
25.514
27.652
29.747
31.828
33.916
36.027
38.176
40.373
42.644
45.019
47.534
50.228
53.129
56.25
59.601
63.182
66.99
71.018
75.251
79.666
84.243
88.964
93.815
98.78
103.843
108.98
114.169
119.384
124.6
129.796
134.946
140.029
145.021
149.901
154.65
159.25
163.682
167.926
171.963
175.769
179.327
182.616
185.618
188.315
190.688
192.724
194.408
195.73
196.678
197.244
197.421
197.201
196.58
195.554
194.12
192.279
190.029
187.375
184.318
180.866
177.024
172.803
168.212
163.264
157.972
152.351
146.419
140.193
133.693
126.94
119.955
112.763
105.387
97.854
90.19
82.422
74.577
66.684
58.769
50.86
42.984
35.168
27.437
19.818
12.336
5.014
-2.124
-9.056
-15.761
-22.219
-28.413
-34.325
-39.942
-45.25
-50.24
-54.903
-59.231
-63.219
-66.866
-70.17
-73.133
-75.757
-78.05
-80.017
-81.668
-83.014
-84.067
-84.843
-85.355
-85.62
-85.655
-85.478
-85.106
-84.559
-83.855
-83.014
-82.053
-80.993
-79.852
-78.649
-77.402
-76.127
-74.841
-73.559
-72.295
-71.063
-69.874
-68.74
-67.668
-66.668
-65.746
-64.908
-64.157
-63.496
-62.926
-62.448
-62.059
-61.758
-61.54
-61.4
-61.333
-61.334
-61.396
-61.511
-61.673
-61.874
-62.107
-62.365
-62.639
-62.921
-63.206
-63.485
-63.752
-64
-64.225
-64.42
-64.583
-64.708
-64.794
-64.837
-64.837
-64.791
-64.699
-64.562
-64.38
-64.154
-63.886
-63.58
-63.238
-62.864
-62.461
-62.035
-61.59
-61.13
-60.659
-60.183
-59.705
-59.229
-58.76
-58.301
-57.856
-57.428
-57.021
-56.637
-56.278
-55.946
-55.643
-55.37
-55.127
-54.914
-54.731
-54.578
-54.454
-54.358
-54.289
-54.245
-54.226
-54.23
-54.255
-54.298
-54.359
-54.434
-54.522
-54.621
-54.728
-54.842
-54.961
-55.084
-55.21
-55.338
-55.467
-55.597
-55.728
-55.859
-55.991
-56.124
-56.258
-56.395
-56.534
-56.678
-56.828
-56.985
-57.151
-57.327
-57.514
-57.713
-57.927
-58.158
-58.406
-58.667
-58.939
-59.221
-59.513
-59.82
-60.139
-60.458
-60.783
-61.132
-61.521
-61.966
-62.465
-62.982
-63.513
-64.088
-64.678
-65.207
-65.617
-65.839
-65.868
-65.796
-65.641
-65.301
-64.885
-64.753
-64.967
-65.422
-66.165
-66.783
-68.068
-72.273
-78.789
-85.596
-89.174
-83.076
-68.026
-50.408
-36.698
-36.078
-48.681
-65.918
-81.185
-87.208
-83.075
-75.236
-67.535
-62.733
-61.508
-61.221
-60.759
-60.192
-59.444
-58.922
-58.707
-58.446
-58.046
-57.567
-57.001
-56.334
-55.581
-54.759
-53.903
-53.073
-52.288
-51.52
-50.761
-50.015
-49.282
-48.563
-47.859
-47.16
-46.464
-45.775
-45.094
-44.421
-43.754
-43.091
-42.431
-41.773
-41.114
-40.453
-39.787
-39.115
-38.432
-37.736
-37.024
-36.292
-35.537
-34.755
-33.942
-33.096
-32.214
-31.292
-30.329
-29.323
-28.273
-27.175
-26.03
-24.835
-23.59
-22.293
-20.945
-19.543
-18.089
-16.581
-15.022
-13.413
-11.754
-10.049
-8.3
-6.51
-4.684
-2.827
-0.943
0.962
2.88
4.804
6.727
8.638
10.528
12.384
14.194
15.944
17.619
19.207
20.692
22.06
23.296
24.388
25.326
26.1
26.7
27.114
27.327
27.33
27.112
26.665
25.982
25.058
23.886
22.468
20.812
18.924
16.808
14.462
11.872
9.028
5.936
2.6
-0.966
-4.746
-8.719
-12.852
-17.089
-21.376
-25.657
-29.89
-34.045
-38.085
-41.955
-45.585
-48.882
-51.769
-54.191
-56.106
-57.489
-58.329
-58.634
-58.448
-57.853
-56.953
-55.87
-54.719
-53.616
-52.691
-52.072
-51.966
-52.672
-54.383
-57.146
-60.818
-64.986
-69.251
-73.357
-76.907
-79.36
-80.34
-79.649
-77.74
-75.889
-75.247
-76.479
-79.989
-85.807
-93.769
-103.674
-114.027
-121.785
-123.738
-116.991
-99.358
-69.747
-27.115
29.991
101.408
184.944
277.427
374.669
472.662
568.38
658.051
736.411
798.919
842.147
863.521
862.488
839.029
792.579
723.994
636.316
533.218
419.169
299.353
177.702
58.051
-54.868
-157.137
-245.974
-319.033
-375.263
-415.17
-439.014
-447.43
-442.233
-425.229
-398.549
-365.094
-327.537
-287.687
-247.672
-209.675
-175.101
-145.342
-121.334
-102.876
-89.035
-79.135
-72.087
-66.012
-61.026
-57.15
-52.088
-45.553
-35.064
-17.598
2.028
20.176
32.291
32.43
25.122
14.684
4.277
-1.054
-3.929
-6.99
-10.52
-16.124
-22.303
-27.432
-31.664
-34.658
-36.551
-37.755
-37.928
-36.802
-34.676
-31.6
-27.571
-23.295
-17.986
-10.563
-2.702
4.943
9.864
7.484
0.361
-7.534
-12.076
-5.402
11.376
30.748
47.665
54.187
48.371
37.877
27.249
21.036
22.49
27.164
32.258
36.954
39.48
41.256
43.534
45.91
48.623
51.593
54.508
57.546
60.855
64.384
68.139
72.162
76.424
80.884
85.527
90.305
95.169
100.115
105.135
110.197
115.287
120.384
125.466
130.521
135.53
140.471
145.32
150.053
154.649
159.085
163.342
167.397
171.231
174.825
178.162
181.227
184.006
186.484
188.652
190.498
192.013
193.191
194.026
194.513
194.651
194.438
193.873
192.96
191.701
190.1
188.165
185.901
183.318
180.424
177.231
173.75
169.992
165.972
161.704
157.2
152.477
147.55
142.435
137.149
131.708
126.129
120.429
114.625
108.732
102.769
96.75
90.693
84.613
78.526
72.447
66.394
60.379
54.419
48.527
42.718
37.005
31.4
25.916
20.565
15.356
10.3
5.406
0.684
-3.86
-8.217
-12.382
-16.349
-20.113
-23.671
-27.02
-30.158
-33.084
-35.798
-38.3
-40.592
-42.675
-44.551
-46.223
-47.695
-48.972
-50.058
-50.96
-51.684
-52.237
-52.627
-52.861
-52.949
-52.898
-52.717
-52.413
-51.998
-51.483
-50.877
-50.191
-49.434
-48.61
-47.736
-46.825
-45.874
-44.883
-43.854
-42.782
-41.683
-40.585
-39.478
-38.35
-37.247
-36.203
-35.245
-34.416
-33.687
-33.003
-32.4
-31.941
-31.47
-30.803
-30.051
-29.207
-28.234
-27.536
-26.031
-22.667
-18.949
-15.33
-14.571
-19.975
-27.886
-35.865
-40.282
-36.152
-27.885
-19.219
-12.717
-12.611
-15.877
-19.447
-22.642
-23.591
-23.383
-23.412
-23.416
-23.572
-23.788
-23.784
-23.745
-23.82
-23.962
-24.162
-24.436
-24.782
-25.189
-25.652
-26.143
-26.629
-27.124
-27.638
-28.165
-28.707
-29.26
-29.821
-30.392
-30.976
-31.567
-32.163
-32.761
-33.358
-33.951
-34.538
-35.117
-35.685
-36.24
-36.779
-37.302
-37.805
-38.287
-38.747
-39.182
-39.592
-39.976
-40.332
-40.661
-40.962
-41.235
-41.481
-41.701
-41.896
-42.066
-42.213
-42.339
-42.443
-42.527
-42.591
-42.638
-42.668
-42.681
-42.68
-42.666
-42.64
-42.603
-42.556
-42.502
-42.439
-42.37
-42.295
-42.215
-42.13
-42.04
-41.946
-41.849
-41.748
-41.644
-41.536
-41.425
-41.31
-41.189
-41.062
-40.928
-40.785
-40.633
-40.47
-40.296
-40.111
-39.913
-39.704
-39.483
-39.251
-39.009
-38.758
-38.498
-38.23
-37.957
-37.679
-37.398
-37.116
-36.835
-36.558
-36.286
-36.022
-35.769
-35.528
-35.302
-35.092
-34.901
-34.731
-34.584
-34.462
-34.369
-34.307
-34.278
-34.285
-34.33
-34.416
-34.542
-34.711
-34.922
-35.177
-35.474
-35.812
-36.191
-36.609
-37.065
-37.556
-38.079
-38.632
-39.211
-39.813
-40.432
-41.065
-41.708
-42.355
-43.001
-43.643
-44.275
-44.893
-45.491
-46.063
-46.605
-47.11
-47.571
-47.983
-48.338
-48.63
-48.853
-49.001
-49.07
-49.052
-48.945
-48.744
-48.444
-48.041
-47.534
-46.917
-46.19
-45.35
-44.397
-43.329
-42.146
-40.851
-39.444
-37.928
-36.306
-34.58
-32.755
-30.836
-28.828
-26.738
-24.572
-22.339
-20.052
-17.723
-15.366
-12.995
-10.626
-8.276
-5.961
-3.697
-1.499
0.619
2.642
4.556
6.345
7.992
9.48
10.794
11.919
12.84
13.546
14.025
14.274
14.29
14.073
13.616
12.904
11.926
10.672
9.141
7.336
5.262
2.925
0.364
-2.37
-5.226
-8.144
-11.094
-14.063
-17.001
-19.851
-22.605
-25.233
-27.696
-29.981
-32.011
-33.682
-35.015
-36.089
-36.779
-36.975
-36.893
-36.592
-36.11
-35.973
-35.11
-32.508
-29.929
-27.968
-29.79
-39.217
-52.412
-66.728
-77.946
-80.155
-77.717
-74.299
-72.188
-75.391
-80.097
-82.806
-83.49
-81.27
-78.079
-76.307
-76.481
-79.228
-85.268
-93.175
-98.851
-99.918
-95.097
-84.728
-73.067
-57.195
-27.788
23.453
105.272
214.844
338.501
463.563
577.409
674.112
753.985
815.371
857.168
877.297
872.743
843.779
791.307
717.178
625.924
521.81
409.189
293.223
177.364
64.46
-41.478
-137.316
-220.793
-289.604
-343.176
-382.297
-406.95
-417.561
-415.851
-403.353
-382.413
-356.246
-326.863
-295.608
-264.518
-235.483
-209.849
-189.047
-173.344
-161.869
-154.139
-149.726
-147.54
-146.21
-144.472
-140.973
-135.142
-127.307
-117.792
-107.023
-95.831
-85.225
-76.046
-69.058
-64.599
-62.488
-62.482
-64.235
-67.225
-70.914
-74.886
-78.805
-82.467
-85.798
-88.707
-91.132
-93.042
-94.395
-95.153
-95.281
-94.75
-93.569
-91.776
-89.427
-86.591
-83.319
-79.659
-75.663
-71.385
-66.88
-62.217
-57.455
-52.668
-47.957
-43.397
-39.04
-34.92
-31.033
-27.368
-23.92
-20.667
-17.58
-14.636
-11.812
-9.091
-6.465
-3.916
-1.419
1.058
3.559
6.118
8.755
11.485
14.315
17.245
20.277
23.405
26.613
29.89
33.227
36.62
40.069
43.572
47.12
50.706
54.318
57.948
61.587
65.228
68.861
72.478
76.074
79.642
83.179
86.682
90.144
93.557
96.914
100.206
103.425
106.562
109.608
112.554
115.391
118.113
120.712
123.181
125.513
127.701
129.737
131.616
133.33
134.871
136.231
137.405
138.383
139.161
139.732
140.091
140.231
140.148
139.838
139.297
138.52
137.505
136.247
134.747
133.001
131.01
128.773
126.294
123.573
120.613
117.42
113.998
110.352
106.488
102.412
98.133
93.659
89
84.165
79.167
74.018
68.731
63.321
57.803
52.192
46.504
40.756
34.964
29.145
23.318
17.499
11.707
5.96
0.275
-5.33
-10.837
-16.231
-21.496
-26.617
-31.579
-36.368
-40.972
-45.379
-49.577
-53.555
-57.304
-60.815
-64.08
-67.092
-69.847
-72.34
-74.568
-76.53
-78.225
-79.655
-80.819
-81.723
-82.369
-82.763
-82.912
-82.824
-82.506
-81.97
-81.225
-80.284
-79.159
-77.863
-76.408
-74.807
-73.074
-71.222
-69.265
-67.216
-65.089
-62.897
-60.654
-58.374
-56.069
-53.752
-51.435
-49.131
-46.85
-44.603
-42.4
-40.252
-38.166
-36.153
-34.219
-32.372
-30.62
-28.965
-27.415
-25.97
-24.634
-23.408
-22.292
-21.286
-20.388
-19.597
-18.911
-18.327
-17.842
-17.454
-17.158
-16.95
-16.825
-16.781
-16.81
-16.91
-17.074
-17.298
-17.578
-17.908
-18.285
-18.703
-19.158
-19.644
-20.157
-20.69
-21.24
-21.799
-22.365
-22.931
-23.494
-24.051
-24.598
-25.132
-25.651
-26.154
-26.638
-27.101
-27.543
-27.961
-28.356
-28.726
-29.07
-29.389
-29.682
-29.95
-30.192
-30.407
-30.597
-30.76
-30.896
-31.005
-31.086
-31.139
-31.164
-31.162
-31.134
-31.081
-31.006
-30.909
-30.792
-30.659
-30.51
-30.348
-30.175
-29.991
-29.801
-29.605
-29.405
-29.205
-29.005
-28.809
-28.617
-28.432
-28.255
-28.087
-27.929
-27.783
-27.649
-27.528
-27.422
-27.331
-27.258
-27.203
-27.167
-27.151
-27.156
-27.181
-27.227
-27.292
-27.377
-27.479
-27.597
-27.729
-27.875
-28.031
-28.197
-28.37
-28.547
-28.727
-28.905
-29.081
-29.25
-29.41
-29.56
-29.696
-29.817
-29.923
-30.012
-30.083
-30.136
-30.171
-30.187
-30.185
-30.165
-30.126
-30.07
-29.996
-29.906
-29.801
-29.683
-29.553
-29.412
-29.264
-29.108
-28.949
-28.786
-28.623
-28.46
-28.301
-28.146
-27.998
-27.858
-27.73
-27.614
-27.512
-27.425
-27.354
-27.299
-27.259
-27.232
-27.217
-27.211
-27.213
-27.218
-27.224
-27.227
-27.223
-27.209
-27.178
-27.128
-27.053
-26.949
-26.809
-26.63
-26.406
-26.133
-25.805
-25.42
-24.972
-24.459
-23.878
-23.224
-22.495
-21.689
-20.804
-19.836
-18.786
-17.653
-16.437
-15.138
-13.758
-12.301
-10.771
-9.172
-7.51
-5.789
-4.016
-2.199
-0.35
1.522
3.408
5.297
7.181
9.044
10.868
12.65
14.386
16.067
17.689
19.226
20.64
21.933
23.105
24.1
24.875
25.394
25.61
25.543
25.244
24.668
23.745
22.624
21.484
20.206
18.797
17.29
15.283
13.874
14.131
14.551
14.682
11.739
2.394
-9.666
-21.98
-30.88
-31.323
-27.72
-23.791
-22.053
-26.71
-34.654
-42.741
-50.245
-55.241
-58.782
-62.218
-65.214
-67.884
-70.074
-71.454
-72.172
-72.371
-72.044
-71.263
-70.176
-68.908
-67.539
-66.157
-64.846
-63.696
-62.866
-62.535
-62.812
-63.865
-65.958
-69.186
-73.474
-78.506
-83.568
-87.909
-90.967
-92.099
-90.6
-86.264
-79.341
-70.705
-62.195
-55.507
-51.654
-51.505
-55.571
-63.323
-73.264
-82.684
-87.178
-82.41
-65.127
-32.383
18.002
86.6
172.463
272.776
382.115
494.326
603.893
704.82
791.133
857.936
901.207
918.393
909.626
876.02
818.495
739.413
642.338
531.42
411.872
288.987
166.794
49.545
-57.718
-150.858
-226.754
-283.814
-322.586
-344.524
-351.117
-344.916
-329.631
-309.193
-287.497
-267.12
-248.946
-233.267
-220.148
-209.108
-199.178
-188.975
-176.873
-162.152
-145.085
-126.27
-106.493
-86.541
-67.123
-49.121
-33.543
-20.942
-11.42
-4.851
-0.871
0.844
0.528
-1.491
-4.797
-9.011
-13.768
-18.74
-23.716
-28.465
-32.721
-36.27
-38.903
-40.484
-40.985
-40.416
-38.809
-36.226
-32.737
-28.438
-23.476
-18.001
-12.158
-6.106
0.029
6.113
11.989
17.533
22.641
27.242
31.311
34.843
37.833
40.296
42.261
43.765
44.862
45.606
46.04
46.216
46.188
46.013
45.766
45.504
45.273
45.111
45.046
45.102
45.304
45.669
46.205
46.92
47.825
48.928
50.246
51.787
53.558
55.559
57.79
60.25
62.938
65.854
68.992
72.346
75.909
79.672
83.628
87.766
92.069
96.521
101.099
105.785
110.554
115.385
120.25
125.124
129.981
134.795
139.541
144.191
148.719
153.097
157.3
161.302
165.077
168.601
171.85
174.803
177.439
179.739
181.686
183.265
184.463
185.269
185.672
185.667
185.25
184.417
183.169
181.508
179.437
176.965
174.099
170.85
167.229
163.253
158.935
154.295
149.35
144.121
138.629
132.897
126.947
120.806
114.497
108.046
101.48
94.825
88.107
81.353
74.589
67.84
61.132
54.487
47.931
41.484
35.167
29.001
23.004
17.193
11.583
6.188
1.021
-3.908
-8.59
-13.016
-17.181
-21.081
-24.711
-28.072
-31.163
-33.986
-36.542
-38.837
-40.877
-42.667
-44.216
-45.533
-46.628
-47.511
-48.194
-48.689
-49.008
-49.165
-49.171
-49.04
-48.784
-48.418
-47.954
-47.404
-46.78
-46.095
-45.36
-44.586
-43.783
-42.96
-42.128
-41.294
-40.468
-39.655
-38.864
-38.1
-37.369
-36.675
-36.023
-35.417
-34.857
-34.348
-33.889
-33.48
-33.123
-32.816
-32.557
-32.346
-32.18
-32.056
-31.972
-31.925
-31.912
-31.929
-31.973
-32.04
-32.127
-32.231
-32.349
-32.477
-32.613
-32.752
-32.894
-33.034
-33.17
-33.299
-33.418
-33.525
-33.617
-33.693
-33.75
-33.787
-33.802
-33.796
-33.766
-33.713
-33.638
-33.54
-33.421
-33.28
-33.121
-32.944
-32.752
-32.546
-32.329
-32.103
-31.871
-31.635
-31.398
-31.161
-30.926
-30.696
-30.473
-30.258
-30.054
-29.862
-29.686
-29.528
-29.39
-29.274
-29.184
-29.121
-29.089
-29.09
-29.125
-29.197
-29.309
-29.461
-29.657
-29.897
-30.184
-30.518
-30.9
-31.331
-31.811
-32.341
-32.92
-33.548
-34.225
-34.952
-35.728
-36.553
-37.429
-38.355
-39.331
-40.358
-41.436
-42.563
-43.74
-44.965
-46.238
-47.556
-48.918
-50.323
-51.767
-53.249
-54.765
-56.312
-57.887
-59.485
-61.101
-62.733
-64.375
-66.022
-67.67
-69.314
-70.951
-72.575
-74.182
-75.766
-77.323
-78.849
-80.336
-81.779
-83.174
-84.513
-85.793
-87.006
-88.148
-89.215
-90.2
-91.101
-91.913
-92.633
-93.257
-93.784
-94.212
-94.539
-94.766
-94.892
-94.919
-94.849
-94.685
-94.43
-94.087
-93.661
-93.156
-92.576
-91.927
-91.214
-90.443
-89.619
-88.75
-87.842
-86.902
-85.938
-84.956
-83.964
-82.97
-81.981
-81.003
-80.045
-79.111
-78.209
-77.344
-76.521
-75.744
-75.017
-74.344
-73.726
-73.165
-72.661
-72.213
-71.819
-71.478
-71.185
-70.937
-70.729
-70.556
-70.414
-70.295
-70.194
-70.105
-70.02
-69.931
-69.833
-69.716
-69.573
-69.395
-69.175
-68.903
-68.572
-68.173
-67.701
-67.147
-66.505
-65.77
-64.935
-63.997
-62.952
-61.797
-60.53
-59.151
-57.66
-56.059
-54.351
-52.54
-50.631
-48.63
-46.544
-44.382
-42.153
-39.865
-37.529
-35.155
-32.754
-30.34
-27.924
-25.519
-23.141
-20.805
-18.53
-16.333
-14.233
-12.249
-10.4
-8.706
-7.184
-5.852
-4.722
-3.807
-3.118
-2.668
-2.469
-2.534
-2.871
-3.488
-4.391
-5.584
-7.071
-8.849
-10.908
-13.236
-15.826
-18.675
-21.789
-25.173
-28.822
-32.726
-36.874
-41.24
-45.798
-50.502
-55.287
-60.086
-64.832
-69.467
-73.945
-78.218
-82.224
-85.891
-89.135
-91.881
-94.08
-95.688
-96.671
-97.042
-96.834
-96.13
-95.065
-93.753
-92.322
-90.919
-89.689
-88.783
-88.368
-88.594
-89.648
-91.798
-95.168
-99.678
-105.093
-110.955
-116.781
-122.165
-126.53
-129.063
-129.261
-127.227
-123.559
-119.275
-115.319
-112.339
-110.901
-111.797
-115.573
-120.137
-122.479
-120.883
-112.015
-96.107
-74.333
-39.955
10.223
78.953
171.031
278.236
393.89
513.843
625.421
723.141
800.515
848.279
869.058
864.657
837.548
793.254
729.756
647.203
549.202
438.399
321.106
202.7
85.657
-26.383
-129.571
-221.068
-297.963
-358.475
-402.742
-430.768
-442.567
-439.298
-422.904
-395.923
-361.876
-324.086
-284.808
-246.415
-210.836
-179.26
-152.811
-131.781
-115.208
-101.898
-90.767
-80.403
-70.053
-59.362
-47.602
-34.643
-21.04
-7.437
5.226
15.822
23.894
29.28
31.655
31.121
28.022
22.746
16.034
8.704
1.252
-5.926
-12.43
-18.018
-22.48
-25.649
-27.549
-28.259
-27.824
-26.304
-23.757
-20.257
-15.941
-10.974
-5.515
0.292
6.309
12.387
18.356
24.039
29.314
34.1
38.359
42.07
45.217
47.797
49.835
51.381
52.49
53.217
53.613
53.723
53.601
53.312
52.926
52.51
52.117
51.783
51.537
51.407
51.417
51.582
51.898
52.378
53.033
53.876
54.928
56.186
57.629
59.275
61.141
63.181
65.357
67.641
69.987
72.422
75.008
77.7
80.422
83.343
86.662
90.239
94.068
98.169
102.067
106.966
114.037
121.551
128.969
133.137
130.288
124.544
118.646
116.685
124.292
136.446
148.888
158.695
161.049
159.364
157.1
155.017
155.22
156.466
157.164
157.607
157.584
157.198
156.765
156.075
154.96
153.478
151.646
149.449
146.9
144.022
140.832
137.374
133.698
129.806
125.699
121.401
116.929
112.301
107.54
102.661
97.678
92.613
87.487
82.32
77.13
71.936
66.755
61.603
56.497
51.451
46.481
41.599
36.817
32.146
27.595
23.173
18.887
14.743
10.746
6.898
3.203
-0.339
-3.727
-6.964
-10.051
-12.991
-15.788
-18.446
-20.97
-23.364
-25.635
-27.789
-29.831
-31.767
-33.603
-35.345
-36.999
-38.57
-40.064
-41.486
-42.838
-44.126
-45.351
-46.518
-47.626
-48.679
-49.675
-50.617
-51.503
-52.332
-53.104
-53.818
-54.47
-55.059
-55.581
-56.035
-56.417
-56.725
-56.954
-57.102
-57.167
-57.146
-57.036
-56.838
-56.548
-56.166
-55.691
-55.124
-54.466
-53.717
-52.881
-51.958
-50.953
-49.871
-48.716
-47.493
-46.21
-44.872
-43.488
-42.065
-40.61
-39.134
-37.643
-36.147
-34.654
-33.174
-31.716
-30.288
-28.899
-27.557
-26.271
-25.047
-23.893
-22.816
-21.82
-20.912
-20.097
-19.377
-18.757
-18.239
-17.825
-17.515
-17.31
-17.21
-17.212
-17.314
-17.513
-17.804
-18.183
-18.645
-19.184
-19.793
-20.466
-21.196
-21.975
-22.797
-23.652
-24.534
-25.434
-26.345
-27.259
-28.169
-29.067
-29.947
-30.801
-31.623
-32.408
-33.15
-33.844
-34.485
-35.068
-35.591
-36.05
-36.443
-36.769
-37.026
-37.214
-37.333
-37.386
-37.371
-37.293
-37.153
-36.954
-36.7
-36.393
-36.039
-35.641
-35.203
-34.731
-34.228
-33.7
-33.151
-32.584
-32.006
-31.419
-30.83
-30.241
-29.657
-29.082
-28.521
-27.978
-27.456
-26.958
-26.488
-26.047
-25.638
-25.262
-24.92
-24.614
-24.343
-24.109
-23.909
-23.745
-23.614
-23.515
-23.445
-23.403
-23.385
-23.389
-23.411
-23.449
-23.5
-23.561
-23.63
-23.705
-23.783
-23.861
-23.938
-24.01
-24.074
-24.127
-24.166
-24.187
-24.188
-24.166
-24.118
-24.044
-23.941
-23.808
-23.644
-23.447
-23.217
-22.953
-22.655
-22.322
-21.956
-21.559
-21.131
-20.675
-20.195
-19.692
-19.169
-18.627
-18.069
-17.495
-16.906
-16.302
-15.682
-15.046
-14.394
-13.726
-13.043
-12.346
-11.638
-10.921
-10.196
-9.467
-8.735
-8
-7.259
-6.509
-5.748
-4.97
-4.172
-3.35
-2.501
-1.622
-0.713
0.227
1.199
2.208
3.26
4.369
5.543
6.783
8.088
9.448
10.847
12.263
13.669
15.038
16.35
17.592
18.767
19.888
20.973
22.041
23.095
24.126
25.123
26.083
27.006
27.901
28.79
29.71
30.705
31.836
33.139
34.628
36.284
38.052
39.86
41.618
43.254
44.723
45.98
46.99
47.713
48.115
48.148
47.751
46.841
45.307
43.064
40.062
36.297
31.816
26.705
21.089
15.084
8.81
2.376
-4.122
-10.597
-16.975
-23.177
-29.114
-34.665
-39.674
-44
-47.526
-50.187
-51.96
-52.878
-53.044
-52.586
-51.667
-50.439
-49.016
-47.521
-46.075
-44.784
-43.77
-43.188
-43.192
-44.023
-45.981
-49.151
-53.458
-58.656
-64.205
-69.54
-74.173
-77.413
-78.475
-77.116
-73.484
-68.028
-62.029
-56.86
-53.319
-52.422
-53.916
-55.254
-54.479
-50.634
-45.681
-44.176
-46.182
-44.977
-26.305
24.993
113.331
231.191
361.112
484.65
592.793
684.366
761.496
825.274
872.922
899.294
900.652
876.203
825.925
751.248
655.867
543.688
419.72
290.354
160.525
34.601
-81.826
-184.247
-269.782
-336.153
-383.241
-412.873
-426.484
-425.854
-414.242
-394.558
-369.241
-341.062
-311.653
-281.574
-251.849
-223.536
-196.786
-171.931
-149.523
-129.355
-111.387
-95.864
-82.325
-69.892
-58.178
-46.717
-34.844
-22.558
-10.005
2.731
14.989
25.827
34.732
41.298
45.118
46.26
44.931
41.333
36.007
29.576
22.41
14.839
7.176
-0.456
-7.93
-15.106
-21.969
-28.483
-34.535
-40.066
-45.039
-49.429
-53.28
-56.637
-59.526
-62.015
-64.18
-66.099
-67.852
-69.47
-70.954
-72.363
-73.736
-75.068
-76.327
-77.448
-78.386
-79.194
-79.923
-80.496
-80.934
-81.542
-82.6
-84.147
-86.046
-87.872
-90.291
-95.461
-104.501
-116.065
-124.447
-121.429
-102.933
-72.648
-42.711
-26.924
-31.967
-53.761
-78.592
-93.377
-92.315
-77.765
-58.669
-41.996
-30.054
-22.144
-15.25
-7.807
-0.034
7.812
15.392
22.744
30.225
37.912
45.721
53.627
61.603
69.591
77.505
85.233
92.677
99.797
106.59
113.036
119.101
124.758
129.981
134.755
139.068
142.902
146.237
149.056
151.349
153.107
154.325
155
155.13
154.719
153.77
152.291
150.291
147.783
144.783
141.306
137.372
133.002
128.219
123.048
117.515
111.649
105.479
99.036
92.351
85.458
78.39
71.18
63.862
56.47
49.039
41.6
34.188
26.834
19.571
12.428
5.435
-1.379
-7.989
-14.37
-20.499
-26.354
-31.918
-37.173
-42.106
-46.703
-50.956
-54.857
-58.401
-61.586
-64.412
-66.879
-68.994
-70.763
-72.192
-73.294
-74.081
-74.565
-74.763
-74.692
-74.369
-73.814
-73.049
-72.093
-70.97
-69.701
-68.311
-66.821
-65.255
-63.637
-61.988
-60.33
-58.685
-57.072
-55.51
-54.018
-52.61
-51.303
-50.108
-49.037
-48.1
-47.305
-46.656
-46.16
-45.817
-45.629
-45.596
-45.715
-45.982
-46.392
-46.939
-47.613
-48.406
-49.307
-50.306
-51.388
-52.541
-53.751
-55.002
-56.28
-57.568
-58.851
-60.112
-61.336
-62.506
-63.608
-64.628
-65.551
-66.366
-67.061
-67.625
-68.049
-68.327
-68.45
-68.415
-68.218
-67.856
-67.328
-66.634
-65.777
-64.758
-63.583
-62.257
-60.786
-59.178
-57.44
-55.584
-53.62
-51.559
-49.413
-47.197
-44.923
-42.608
-40.267
-37.915
-35.568
-33.242
-30.954
-28.717
-26.549
-24.462
-22.471
-20.588
-18.825
-17.194
-15.704
-14.364
-13.183
-12.166
-11.319
-10.646
-10.15
-9.832
-9.692
-9.731
-9.946
-10.334
-10.892
-11.614
-12.494
-13.525
-14.699
-16.006
-17.434
-18.973
-20.61
-22.332
-24.125
-25.975
-27.867
-29.787
-31.72
-33.652
-35.569
-37.456
-39.301
-41.089
-42.809
-44.448
-45.997
-47.444
-48.782
-50.002
-51.097
-52.063
-52.893
-53.584
-54.134
-54.539
-54.8
-54.916
-54.889
-54.721
-54.416
-53.978
-53.413
-52.728
-51.931
-51.03
-50.033
-48.952
-47.798
-46.579
-45.303
-43.98
-42.621
-41.236
-39.842
-38.443
-37.042
-35.661
-34.318
-33.029
-31.813
-30.666
-29.572
-28.552
-27.629
-26.763
-25.926
-25.094
-24.227
-23.36
-22.554
-21.771
-20.944
-20.236
-19.845
-19.642
-19.633
-19.847
-19.844
-20.782
-23.788
-27.23
-30.608
-30.932
-24.623
-15.622
-6.549
-1.313
-5.289
-13.705
-22.516
-28.947
-28.421
-24.198
-19.585
-15.312
-13.393
-12.652
-11.579
-10.458
-9.096
-7.592
-6.253
-4.882
-3.321
-1.628
0.178
2.11
4.156
6.294
8.51
10.764
13.01
15.251
17.488
19.703
21.885
24.019
26.087
28.08
29.984
31.779
33.446
34.966
36.321
37.493
38.467
39.225
39.755
40.047
40.091
39.88
39.407
38.66
37.634
36.326
34.733
32.856
30.699
28.266
25.568
22.624
19.451
16.061
12.46
8.641
4.603
0.355
-4.095
-8.73
-13.523
-18.445
-23.446
-28.454
-33.404
-38.24
-42.891
-47.304
-51.421
-55.161
-58.455
-61.235
-63.402
-64.872
-65.652
-65.778
-65.294
-64.303
-62.865
-60.993
-58.835
-56.619
-54.295
-51.739
-49.203
-46.779
-44.604
-43.532
-42.777
-41.197
-40.297
-40.498
-44.015
-53.604
-65.208
-74.985
-79.299
-75.903
-69.476
-62.763
-56.167
-46.096
-28.016
-7.933
4.604
-2.524
-36.215
-82.848
-121.917
-133.783
-103.252
-34.839
57.283
160.993
264.174
364.076
464.171
564.009
662.187
753.505
829.283
884.443
916.38
923.996
908.726
871.45
812.389
733.743
638.934
531.698
416.389
297.035
176.806
59.719
-49.351
-145.963
-226.407
-288.493
-331.222
-355.555
-364.287
-358.565
-339.733
-308.287
-261.303
-203.639
-146.255
-99.568
-77.304
-81.094
-99.517
-122.352
-137.781
-141.702
-140.136
-136.426
-132.544
-128.624
-121.364
-110.005
-96.007
-80.754
-66.103
-53.145
-42.093
-33.212
-26.645
-22.224
-19.565
-18.149
-17.391
-16.919
-16.593
-16.349
-16.199
-16.185
-16.337
-16.705
-17.341
-18.231
-19.339
-20.599
-21.911
-23.178
-24.31
-25.252
-26.004
-26.584
-26.998
-27.233
-27.262
-27.061
-26.624
-25.956
-25.064
-23.959
-22.65
-21.164
-19.546
-17.86
-16.185
-14.567
-13.019
-11.54
-10.121
-8.757
-7.447
-6.18
-4.927
-3.662
-2.366
-1.022
0.379
1.86
3.455
5.203
7.154
9.339
11.777
14.48
17.454
20.699
24.215
27.989
31.999
36.227
40.659
45.281
50.081
55.044
60.147
65.366
70.676
76.051
81.468
86.901
92.322
97.709
103.036
108.281
113.424
118.444
123.316
128.017
132.524
136.814
140.866
144.659
148.171
151.384
154.281
156.848
159.071
160.94
162.445
163.577
164.332
164.704
164.69
164.29
163.504
162.334
160.783
158.858
156.566
153.915
150.915
147.578
143.915
139.943
135.675
131.128
126.319
121.268
115.994
110.517
104.858
99.041
93.085
87.015
80.853
74.622
68.344
62.042
55.738
49.454
43.209
37.025
30.921
24.916
19.025
13.267
7.657
2.209
-3.065
-8.151
-13.04
-17.721
-22.187
-26.43
-30.443
-34.224
-37.768
-41.073
-44.14
-46.968
-49.559
-51.917
-54.046
-55.951
-57.637
-59.113
-60.386
-61.464
-62.356
-63.073
-63.625
-64.021
-64.273
-64.391
-64.387
-64.271
-64.053
-63.743
-63.352
-62.89
-62.365
-61.786
-61.162
-60.5
-59.809
-59.095
-58.365
-57.624
-56.878
-56.131
-55.387
-54.65
-53.922
-53.206
-52.504
-51.817
-51.147
-50.493
-49.856
-49.237
-48.634
-48.046
-47.474
-46.915
-46.37
-45.836
-45.313
-44.799
-44.294
-43.797
-43.307
-42.823
-42.347
-41.876
-41.413
-40.957
-40.51
-40.072
-39.644
-39.229
-38.827
-38.441
-38.074
-37.726
-37.401
-37.101
-36.827
-36.583
-36.37
-36.191
-36.047
-35.94
-35.871
-35.842
-35.853
-35.906
-36.001
-36.138
-36.317
-36.538
-36.801
-37.104
-37.446
-37.825
-38.24
-38.688
-39.166
-39.671
-40.2
-40.747
-41.31
-41.884
-42.464
-43.045
-43.623
-44.191
-44.746
-45.281
-45.793
-46.276
-46.726
-47.138
-47.51
-47.838
-48.12
-48.352
-48.534
-48.664
-48.74
-48.763
-48.731
-48.646
-48.507
-48.316
-48.073
-47.781
-47.443
-47.06
-46.637
-46.177
-45.686
-45.166
-44.624
-44.065
-43.494
-42.917
-42.341
-41.772
-41.216
-40.681
-40.172
-39.696
-39.259
-38.867
-38.524
-38.236
-38.006
-37.837
-37.734
-37.699
-37.734
-37.841
-38.021
-38.277
-38.608
-39.015
-39.497
-40.054
-40.684
-41.386
-42.156
-42.991
-43.888
-44.843
-45.85
-46.905
-48.003
-49.136
-50.299
-51.484
-52.685
-53.892
-55.099
-56.297
-57.479
-58.636
-59.76
-60.846
-61.886
-62.872
-63.799
-64.661
-65.452
-66.166
-66.797
-67.339
-67.789
-68.142
-68.392
-68.538
-68.574
-68.5
-68.312
-68.01
-67.594
-67.063
-66.417
-65.658
-64.786
-63.804
-62.714
-61.521
-60.229
-58.842
-57.366
-55.808
-54.174
-52.47
-50.703
-48.881
-47.01
-45.099
-43.153
-41.181
-39.191
-37.191
-35.189
-33.193
-31.211
-29.252
-27.325
-25.44
-23.608
-21.837
-20.137
-18.518
-16.989
-15.561
-14.243
-13.043
-11.969
-11.03
-10.236
-9.599
-9.127
-8.83
-8.711
-8.775
-9.03
-9.479
-10.122
-10.955
-11.968
-13.161
-14.543
-16.127
-17.923
-19.934
-22.161
-24.601
-27.262
-30.141
-33.23
-36.512
-39.965
-43.572
-47.33
-51.24
-55.299
-59.481
-63.721
-67.93
-72.029
-75.936
-79.571
-82.849
-85.665
-87.939
-89.62
-90.683
-91.116
-90.897
-90.007
-88.426
-86.167
-83.29
-79.912
-76.184
-72.277
-68.394
-64.729
-61.525
-59.049
-57.498
-57.094
-58.07
-60.527
-64.457
-69.73
-75.957
-82.679
-89.484
-95.747
-100.69
-103.842
-105.046
-104.534
-103.14
-102.05
-102.14
-104.136
-109.085
-116.05
-123.358
-130.637
-135.166
-136.124
-133.327
-120.008
-91.096
-40.884
36.384
134.876
247.497
366.657
482.17
591.513
691.962
778.13
846.828
893.126
913.239
907.359
876.645
822.77
748.801
658.511
555.797
445.068
330.901
216.81
105.958
1.82
-92.95
-176.569
-247.57
-305.179
-349.534
-381.055
-400.703
-410.029
-410.504
-403.181
-388.929
-369
-344.442
-315.888
-283.859
-248.966
-212.039
-174.823
-139.738
-108.171
-81.047
-59.39
-43.75
-34.24
-30.576
-31.222
-33.656
-36.313
-38.267
-38.724
-37.439
-34.316
-29.386
-23.533
-18.277
-14.51
-12.61
-12.702
-14.487
-17.718
-22.219
-27.452
-32.656
-37.318
-41.128
-43.937
-45.84
-46.885
-47.062
-46.463
-45.204
-43.378
-41.083
-38.375
-35.263
-31.786
-28.008
-24
-19.858
-15.669
-11.513
-7.481
-3.633
-0.006
3.38
6.534
9.466
12.19
14.735
17.135
19.42
21.621
23.764
25.872
27.983
30.135
32.367
34.724
37.238
39.928
42.811
45.895
49.173
52.638
56.29
60.121
64.122
68.291
72.604
77.032
81.577
86.242
90.963
95.689
100.375
104.963
109.467
113.932
118.305
122.5
126.675
131.018
135.392
139.79
144.233
148.263
153.046
159.715
166.61
173.215
176.494
172.82
166.181
159.232
155.934
161.733
171.797
182.03
189.623
189.944
186.298
182.041
177.917
175.972
175.018
173.532
171.807
169.65
167.169
164.679
161.982
158.923
155.564
151.924
147.993
143.784
139.321
134.621
129.725
124.681
119.489
114.15
108.684
103.105
97.43
91.676
85.857
79.984
74.075
68.148
62.22
56.307
50.425
44.589
38.815
33.119
27.515
22.019
16.644
11.404
6.313
1.383
-3.373
-7.944
-12.318
-16.485
-20.437
-24.165
-27.661
-30.921
-33.939
-36.712
-39.239
-41.518
-43.55
-45.337
-46.882
-48.19
-49.266
-50.117
-50.75
-51.175
-51.401
-51.438
-51.297
-50.99
-50.53
-49.927
-49.197
-48.352
-47.405
-46.372
-45.264
-44.098
-42.887
-41.644
-40.385
-39.122
-37.868
-36.635
-35.436
-34.282
-33.181
-32.143
-31.176
-30.285
-29.477
-28.755
-28.123
-27.582
-27.132
-26.774
-26.506
-26.326
-26.23
-26.215
-26.276
-26.408
-26.605
-26.862
-27.172
-27.528
-27.925
-28.354
-28.808
-29.28
-29.763
-30.249
-30.731
-31.202
-31.655
-32.085
-32.484
-32.848
-33.173
-33.455
-33.69
-33.878
-34.016
-34.104
-34.143
-34.133
-34.078
-33.978
-33.838
-33.661
-33.451
-33.212
-32.948
-32.664
-32.364
-32.053
-31.736
-31.415
-31.097
-30.783
-30.478
-30.186
-29.91
-29.653
-29.417
-29.205
-29.018
-28.858
-28.726
-28.622
-28.546
-28.496
-28.472
-28.471
-28.49
-28.526
-28.575
-28.632
-28.695
-28.757
-28.815
-28.862
-28.895
-28.909
-28.899
-28.862
-28.794
-28.692
-28.553
-28.374
-28.155
-27.893
-27.588
-27.24
-26.848
-26.413
-25.936
-25.419
-24.863
-24.271
-23.645
-22.99
-22.309
-21.606
-20.888
-20.159
-19.425
-18.693
-17.968
-17.258
-16.57
-15.909
-15.283
-14.698
-14.159
-13.674
-13.246
-12.881
-12.583
-12.355
-12.202
-12.126
-12.129
-12.215
-12.383
-12.635
-12.972
-13.396
-13.905
-14.501
-15.181
-15.943
-16.786
-17.713
-18.725
-19.822
-21.002
-22.255
-23.58
-24.987
-26.464
-27.987
-29.532
-31.074
-32.607
-34.161
-35.743
-37.313
-38.897
-40.572
-42.387
-44.413
-46.664
-49.023
-51.44
-54.003
-56.566
-58.732
-60.458
-61.851
-62.818
-63.823
-64.101
-61.247
-55.939
-50.392
-48.286
-56.608
-74.802
-95.746
-112.004
-113.54
-100.132
-81.092
-64.102
-56.119
-55.846
-57.047
-57.596
-58.417
-65.664
-81.042
-99.004
-112.443
-111.51
-96.149
-75.453
-56.841
-48.331
-50.434
-56.238
-61.77
-63.994
-62.338
-59.631
-56.921
-54.152
-51.438
-48.356
-44.861
-41.345
-37.917
-34.531
-31.229
-28.043
-24.971
-22.011
-19.144
-16.319
-13.542
-10.862
-8.307
-5.894
-3.643
-1.571
0.299
1.94
3.336
4.477
5.354
5.957
6.277
6.3
6.018
5.429
4.528
3.317
1.799
-0.026
-2.146
-4.535
-7.176
-10.052
-13.155
-16.493
-20.063
-23.841
-27.821
-32.003
-36.378
-40.937
-45.636
-50.379
-55.1
-59.776
-64.323
-68.621
-72.56
-76.003
-78.866
-81.16
-82.823
-83.691
-83.845
-83.659
-83.206
-82.411
-81.385
-79.781
-78.563
-80.278
-84.422
-88.978
-90.339
-81.764
-64.245
-44.947
-31.002
-32.239
-48.589
-70.346
-89.911
-99.114
-96.505
-88.334
-78.377
-69.789
-64.057
-59.817
-57.282
-57.214
-60.015
-66.682
-77.133
-89.711
-101.889
-109.892
-109.63
-98.208
-73.262
-32.318
25.964
101.246
191.445
292.076
397.323
502.093
601.337
689.046
759.77
809.215
834.507
835.455
813.706
770.761
708.57
630.672
541.12
444.166
343.951
243.232
143.973
48.697
-39.978
-120.197
-190.668
-250.706
-299.928
-337.756
-363.843
-378.652
-383.174
-378.538
-365.811
-345.965
-320.332
-290.369
-257.456
-222.83
-187.726
-153.511
-121.583
-93.263
-69.241
-49.89
-35.35
-25.417
-19.438
-16.242
-14.647
-13.538
-12.229
-10.385
-7.816
-4.579
-1.103
1.788
3.441
3.417
1.579
-1.862
-6.659
-12.5
-18.883
-25.123
-30.656
-35.117
-38.323
-40.321
-41.178
-40.937
-39.697
-37.6
-34.791
-31.402
-27.546
-23.282
-18.674
-13.823
-8.85
-3.914
0.827
5.273
9.362
13.061
16.356
19.24
21.716
23.816
25.591
27.086
28.343
29.393
30.261
30.989
31.626
32.235
32.88
33.608
34.45
35.43
36.57
37.888
39.402
41.115
43.021
45.119
47.411
49.901
52.595
55.494
58.592
61.878
65.343
68.983
72.801
76.798
80.966
85.285
89.729
94.277
98.909
103.605
108.331
113.049
117.728
122.352
126.923
131.444
135.904
140.278
144.528
148.616
152.516
156.223
159.736
163.043
166.14
169.03
171.726
174.275
176.707
179
181.098
182.939
184.444
185.564
186.304
186.596
186.32
185.404
183.774
181.395
178.368
174.78
170.578
165.916
161.24
156.626
151.957
147.431
142.62
137.942
135.719
135.505
134.986
130.818
114.859
84.83
47.293
11.184
-7.063
2.465
33.507
73.914
102.999
104.541
79.714
38.294
-2.717
-28.786
-37.352
-32.986
-24.516
-19.009
-18.243
-21.029
-24.772
-28.128
-31.202
-34.264
-37.611
-41.1
-44.325
-47.153
-49.563
-51.512
-53.028
-54.159
-54.975
-55.587
-56.071
-56.442
-56.689
-56.816
-56.838
-56.772
-56.634
-56.431
-56.173
-55.875
-55.558
-55.24
-54.936
-54.653
-54.395
-54.166
-53.971
-53.815
-53.7
-53.627
-53.597
-53.61
-53.666
-53.765
-53.905
-54.081
-54.291
-54.528
-54.788
-55.065
-55.354
-55.649
-55.944
-56.234
-56.513
-56.777
-57.02
-57.237
-57.424
-57.575
-57.687
-57.756
-57.777
-57.748
-57.667
-57.533
-57.344
-57.102
-56.805
-56.456
-56.056
-55.608
-55.115
-54.579
-54.005
-53.396
-52.756
-52.09
-51.403
-50.7
-49.983
-49.259
-48.531
-47.802
-47.075
-46.354
-45.64
-44.937
-44.246
-43.57
-42.911
-42.271
-41.651
-41.053
-40.478
-39.928
-39.404
-38.904
-38.431
-37.985
-37.564
-37.169
-36.8
-36.455
-36.133
-35.833
-35.552
-35.289
-35.042
-34.808
-34.586
-34.373
-34.169
-33.973
-33.784
-33.602
-33.428
-33.263
-33.107
-32.962
-32.828
-32.707
-32.6
-32.508
-32.433
-32.376
-32.338
-32.32
-32.323
-32.347
-32.393
-32.461
-32.551
-32.663
-32.798
-32.955
-33.135
-33.339
-33.567
-33.821
-34.102
-34.41
-34.746
-35.11
-35.503
-35.922
-36.368
-36.838
-37.332
-37.846
-38.378
-38.926
-39.487
-40.058
-40.635
-41.215
-41.795
-42.372
-42.943
-43.505
-44.058
-44.598
-45.125
-45.639
-46.138
-46.622
-47.091
-47.544
-47.981
-48.4
-48.801
-49.181
-49.54
-49.876
-50.188
-50.474
-50.733
-50.964
-51.168
-51.342
-51.489
-51.606
-51.694
-51.755
-51.788
-51.795
-51.777
-51.735
-51.669
-51.582
-51.474
-51.344
-51.192
-51.017
-50.817
-50.59
-50.333
-50.042
-49.715
-49.349
-48.941
-48.488
-47.987
-47.438
-46.838
-46.185
-45.478
-44.716
-43.898
-43.023
-42.091
-41.1
-40.051
-38.943
-37.775
-36.549
-35.263
-33.918
-32.513
-31.048
-29.523
-27.941
-26.302
-24.608
-22.864
-21.072
-19.24
-17.373
-15.48
-13.567
-11.646
-9.724
-7.813
-5.923
-4.064
-2.246
-0.482
1.219
2.845
4.385
5.829
7.163
8.374
9.448
10.372
11.133
11.715
12.107
12.294
12.266
12.016
11.534
10.815
9.851
8.633
7.156
5.417
3.416
1.152
-1.369
-4.142
-7.156
-10.391
-13.83
-17.459
-21.269
-25.262
-29.435
-33.779
-38.28
-42.921
-47.677
-52.522
-57.415
-62.302
-67.123
-71.826
-76.364
-80.702
-84.798
-88.59
-92.006
-94.957
-97.364
-99.167
-100.322
-100.807
-100.623
-99.796
-98.376
-96.443
-94.1
-91.469
-88.676
-85.835
-83.061
-80.487
-78.325
-76.911
-76.464
-76.96
-78.211
-79.842
-81.477
-82.86
-83.552
-82.759
-79.998
-75.53
-70.06
-64.734
-60.803
-59.001
-60.045
-65.198
-73.914
-83.012
-89.39
-90.571
-87.106
-82.782
-77.911
-65.803
-34.928
24.449
115.994
233.393
362.417
493.186
615.898
720.129
800.786
849.418
863.531
850.567
816.523
768.707
709.757
636.128
547.692
446.101
335.349
221.781
109.15
0.597
-99.775
-189.023
-264.441
-324.028
-367.558
-394.923
-405.862
-401.132
-383.017
-354.589
-319.507
-281.275
-242.507
-205.736
-173.39
-147.324
-128.297
-116.017
-109.212
-106.141
-105.171
-104.526
-102.704
-98.521
-91.234
-80.811
-67.885
-53.471
-38.796
-25.225
-13.656
-4.653
1.422
4.608
5.145
3.41
0.027
-4.256
-8.955
-13.767
-18.487
-23.032
-27.239
-30.909
-33.934
-36.285
-37.952
-38.923
-39.176
-38.678
-37.465
-35.621
-33.25
-30.462
-27.328
-23.896
-20.215
-16.357
-12.422
-8.52
-4.758
-1.206
2.093
5.103
7.811
10.214
12.334
14.213
15.906
17.462
18.92
20.307
21.647
22.972
24.323
25.749
27.3
29.015
30.921
33.045
35.404
38.01
40.868
43.972
47.31
50.871
54.649
58.639
62.835
67.23
71.812
76.567
81.48
86.531
91.706
96.984
102.344
107.766
113.23
118.714
124.201
129.668
135.093
140.451
145.718
150.869
155.878
160.723
165.375
169.813
174.012
177.951
181.609
184.965
188.001
190.698
193.042
195.017
196.609
197.809
198.606
198.993
198.965
198.518
197.652
196.367
194.666
192.556
190.043
187.137
183.85
180.193
176.183
171.834
167.164
162.193
156.939
151.425
145.672
139.703
133.542
127.214
120.744
114.156
107.475
100.728
93.939
87.134
80.337
73.573
66.864
60.233
53.703
47.292
41.019
34.903
28.958
23.2
17.64
12.289
7.157
2.251
-2.423
-6.859
-11.055
-15.011
-18.726
-22.2
-25.433
-28.429
-31.188
-33.72
-36.032
-38.128
-40.009
-41.695
-43.205
-44.554
-45.766
-46.839
-47.764
-48.569
-49.281
-49.87
-50.319
-50.612
-50.723
-50.691
-50.585
-50.378
-50.016
-49.664
-49.516
-49.464
-49.522
-49.729
-49.683
-50.479
-53.179
-56.27
-59.291
-59.459
-53.439
-44.922
-36.369
-31.443
-35.176
-43.115
-51.486
-57.704
-57.493
-53.907
-50.042
-46.583
-45.417
-45.447
-45.263
-45.133
-44.874
-44.582
-44.54
-44.563
-44.502
-44.405
-44.284
-44.123
-43.928
-43.709
-43.473
-43.25
-43.072
-42.926
-42.802
-42.705
-42.634
-42.592
-42.58
-42.595
-42.635
-42.7
-42.794
-42.914
-43.063
-43.238
-43.439
-43.666
-43.918
-44.194
-44.492
-44.812
-45.152
-45.51
-45.886
-46.276
-46.678
-47.092
-47.513
-47.941
-48.372
-48.806
-49.239
-49.67
-50.098
-50.522
-50.94
-51.352
-51.755
-52.151
-52.538
-52.915
-53.282
-53.638
-53.983
-54.317
-54.638
-54.947
-55.242
-55.524
-55.791
-56.043
-56.28
-56.5
-56.703
-56.889
-57.056
-57.205
-57.335
-57.446
-57.536
-57.606
-57.655
-57.682
-57.687
-57.67
-57.629
-57.563
-57.473
-57.358
-57.217
-57.051
-56.858
-56.64
-56.396
-56.127
-55.834
-55.518
-55.18
-54.821
-54.444
-54.05
-53.642
-53.222
-52.792
-52.356
-51.917
-51.476
-51.037
-50.604
-50.178
-49.764
-49.364
-48.981
-48.62
-48.282
-47.972
-47.693
-47.447
-47.237
-47.066
-46.937
-46.85
-46.809
-46.814
-46.866
-46.966
-47.115
-47.311
-47.554
-47.843
-48.175
-48.549
-48.962
-49.41
-49.89
-50.399
-50.932
-51.485
-52.053
-52.633
-53.219
-53.805
-54.388
-54.96
-55.516
-56.05
-56.556
-57.027
-57.456
-57.837
-58.164
-58.43
-58.629
-58.755
-58.802
-58.765
-58.638
-58.416
-58.095
-57.672
-57.144
-56.506
-55.759
-54.898
-53.925
-52.839
-51.64
-50.328
-48.905
-47.372
-45.731
-43.985
-42.136
-40.188
-38.145
-36.011
-33.791
-31.492
-29.121
-26.684
-24.191
-21.65
-19.07
-16.461
-13.834
-11.2
-8.57
-5.957
-3.373
-0.831
1.657
4.077
6.416
8.66
10.793
12.801
14.667
16.378
17.918
19.272
20.426
21.367
22.086
22.573
22.82
22.818
22.556
22.024
21.215
20.124
18.746
17.082
15.131
12.899
10.398
7.644
4.649
1.419
-2.05
-5.758
-9.698
-13.856
-18.217
-22.751
-27.429
-32.208
-37.029
-41.835
-46.571
-51.193
-55.671
-59.969
-64.042
-67.826
-71.239
-74.202
-76.653
-78.541
-79.829
-80.516
-80.62
-80.199
-79.35
-78.141
-76.657
-74.987
-73.223
-71.486
-69.915
-68.643
-67.869
-67.882
-68.831
-70.68
-73.177
-75.767
-77.897
-79.173
-79.103
-77.054
-72.761
-66.515
-59.231
-52.583
-48.103
-46.53
-48.349
-54.021
-63.266
-74.715
-85.775
-92.437
-90.618
-77.534
-51.065
-9.211
49.117
123.517
211.835
309.805
412.042
513.852
610.926
698.338
771.224
825.557
858.367
868.406
856.29
822.769
768.488
695.514
606.883
506.066
397.403
285.11
172.225
62.002
-41.658
-135.616
-217.022
-283.534
-334.605
-370.364
-390.803
-396.658
-389.411
-370.987
-344.541
-313.583
-280.612
-247.958
-217.552
-190.753
-169.044
-153.12
-142.108
-134.543
-128.903
-123.417
-117.182
-109.675
-99.847
-87.323
-72.585
-56.371
-40.048
-25.239
-12.479
-1.945
5.675
10.319
12.208
10.966
8.271
6.258
3.806
0.726
-5.305
-18.868
-36.809
-54.593
-67.609
-67.465
-55.501
-39.598
-25.056
-20.235
-27.04
-37.6
-47.384
-51.805
-47.745
-39.967
-31.456
-23.227
-17.265
-12.281
-7.168
-2.465
2.011
6.133
9.558
12.472
15.047
17.274
19.228
21.014
22.654
24.157
25.549
26.844
28.062
29.277
30.56
31.946
33.469
35.155
37.022
39.088
41.363
43.84
46.504
49.348
52.367
55.56
58.926
62.461
66.156
70
73.982
78.091
82.315
86.642
91.058
95.549
100.102
104.705
109.345
114.009
118.679
123.337
127.965
132.543
137.053
141.473
145.784
149.966
154
157.867
161.55
165.031
168.293
171.32
174.096
176.607
178.84
180.78
182.417
183.741
184.74
185.408
185.737
185.722
185.359
184.647
183.585
182.174
180.417
178.318
175.882
173.117
170.03
166.631
162.931
158.942
154.676
150.148
145.374
140.368
135.148
129.731
124.136
118.381
112.485
106.468
100.349
94.15
87.89
81.589
75.269
68.949
62.65
56.392
50.193
44.071
38.044
32.129
26.341
20.695
15.203
9.877
4.73
-0.231
-4.995
-9.555
-13.906
-18.042
-21.959
-25.655
-29.128
-32.379
-35.407
-38.216
-40.808
-43.187
-45.357
-47.326
-49.098
-50.683
-52.088
-53.321
-54.393
-55.313
-56.092
-56.741
-57.269
-57.689
-58.009
-58.242
-58.395
-58.48
-58.505
-58.478
-58.408
-58.302
-58.168
-58.011
-57.839
-57.654
-57.463
-57.27
-57.076
-56.886
-56.7
-56.521
-56.35
-56.187
-56.032
-55.885
-55.745
-55.612
-55.484
-55.358
-55.232
-55.105
-54.972
-54.833
-54.682
-54.519
-54.341
-54.146
-53.931
-53.695
-53.438
-53.158
-52.855
-52.528
-52.179
-51.807
-51.415
-51.003
-50.574
-50.13
-49.674
-49.209
-48.739
-48.266
-47.794
-47.327
-46.868
-46.42
-45.988
-45.575
-45.184
-44.819
-44.484
-44.181
-43.915
-43.687
-43.5
-43.356
-43.256
-43.202
-43.193
-43.23
-43.313
-43.44
-43.611
-43.824
-44.076
-44.366
-44.689
-45.043
-45.423
-45.825
-46.245
-46.679
-47.121
-47.567
-48.011
-48.451
-48.88
-49.295
-49.691
-50.063
-50.409
-50.725
-51.007
-51.252
-51.459
-51.624
-51.748
-51.829
-51.868
-51.864
-51.819
-51.734
-51.611
-51.452
-51.26
-51.038
-50.788
-50.515
-50.222
-49.914
-49.594
-49.267
-48.937
-48.609
-48.287
-47.975
-47.677
-47.398
-47.141
-46.909
-46.706
-46.535
-46.398
-46.299
-46.238
-46.216
-46.236
-46.296
-46.397
-46.537
-46.714
-46.927
-47.174
-47.45
-47.754
-48.081
-48.428
-48.792
-49.169
-49.556
-49.949
-50.344
-50.739
-51.131
-51.518
-51.896
-52.265
-52.621
-52.965
-53.294
-53.608
-53.906
-54.187
-54.452
-54.699
-54.931
-55.146
-55.347
-55.533
-55.707
-55.871
-56.027
-56.177
-56.324
-56.472
-56.622
-56.778
-56.943
-57.119
-57.308
-57.512
-57.731
-57.966
-58.217
-58.483
-58.762
-59.05
-59.346
-59.645
-59.943
-60.233
-60.512
-60.771
-61.006
-61.21
-61.377
-61.499
-61.57
-61.584
-61.533
-61.412
-61.214
-60.931
-60.559
-60.089
-59.517
-58.836
-58.042
-57.129
-56.093
-54.931
-53.64
-52.219
-50.667
-48.985
-47.175
-45.239
-43.184
-41.015
-38.739
-36.366
-33.906
-31.37
-28.772
-26.126
-23.444
-20.743
-18.037
-15.342
-12.674
-10.048
-7.481
-4.992
-2.598
-0.32
1.824
3.813
5.628
7.25
8.66
9.842
10.783
11.471
11.896
12.046
11.909
11.477
10.744
9.707
8.365
6.72
4.776
2.542
0.036
-2.726
-5.728
-8.961
-12.424
-16.117
-20.03
-24.15
-28.458
-32.93
-37.544
-42.261
-47.03
-51.796
-56.501
-61.092
-65.53
-69.765
-73.738
-77.37
-80.567
-83.241
-85.32
-86.755
-87.517
-87.591
-86.981
-85.718
-83.86
-81.498
-78.762
-75.784
-72.716
-69.73
-66.972
-64.685
-63.209
-62.756
-63.374
-64.881
-66.804
-68.692
-70.252
-71.05
-70.504
-68.302
-64.488
-59.823
-55.791
-53.739
-54.552
-58.848
-67.032
-78.993
-93.791
-109.025
-121.104
-126.249
-120.706
-101.572
-66.605
-13.67
56.57
141.513
239.282
345.386
457.066
572.542
682.578
778.892
852.726
895.044
908.133
895.809
861.971
812.269
745.616
662.03
564.372
454.947
339.509
222.973
108.049
-1.558
-102.644
-192.454
-268.092
-327.976
-371.789
-399.281
-410.381
-405.693
-386.987
-357.247
-319.955
-278.331
-235.034
-192.438
-153.315
-120.667
-96.048
-79.452
-70.021
-66.354
-67.189
-71.47
-77.326
-82.089
-84.075
-82.741
-78.238
-71.379
-62.851
-53.03
-42.784
-33.559
-26.294
-21.353
-18.726
-17.892
-18.372
-19.956
-22.275
-24.759
-27.024
-28.778
-29.801
-30.139
-29.853
-28.931
-27.447
-25.47
-23.031
-20.212
-17.101
-13.75
-10.238
-6.625
-2.925
0.812
4.523
8.134
11.529
14.636
17.429
19.882
21.988
23.74
25.13
26.187
26.966
27.519
27.892
28.12
28.223
28.238
28.211
28.193
28.246
28.416
28.734
29.235
29.947
30.897
32.107
33.59
35.339
37.35
39.624
42.161
44.965
48.041
51.377
54.954
58.767
62.827
67.137
71.701
76.5
81.482
86.623
91.94
97.385
102.859
108.28
113.556
118.653
123.643
128.52
133.151
137.621
142.278
147.158
152.128
157.211
161.957
167.162
175.13
185.212
195.299
201.734
197.84
184.352
167.855
155.034
155.369
168.986
187.003
202.591
208.23
202.983
193.518
183.812
176.723
172.961
169.806
166.123
161.996
157.362
152.658
147.986
143
137.625
131.945
125.975
119.723
113.231
106.541
99.715
92.843
85.97
79.092
72.228
65.406
58.65
51.986
45.436
39.013
32.734
26.624
20.702
14.983
9.485
4.218
-0.806
-5.577
-10.086
-14.328
-18.297
-21.993
-25.415
-28.562
-31.436
-34.04
-36.378
-38.46
-40.297
-41.896
-43.261
-44.415
-45.382
-46.18
-46.836
-47.353
-47.727
-47.988
-48.167
-48.239
-48.188
-48.004
-47.664
-47.211
-46.718
-46.163
-45.495
-44.884
-44.529
-44.324
-44.287
-44.459
-44.439
-45.329
-48.199
-51.525
-54.843
-55.349
-49.681
-41.554
-33.441
-29.025
-33.366
-41.977
-51.052
-57.983
-58.459
-55.549
-52.361
-49.583
-49.106
-49.82
-50.299
-50.805
-51.154
-51.435
-51.932
-52.454
-52.843
-53.143
-53.365
-53.496
-53.527
-53.459
-53.289
-53.033
-52.736
-52.409
-52.025
-51.574
-51.1
-50.641
-50.227
-49.899
-49.626
-49.352
-49.12
-49
-48.83
-48.42
-47.892
-47.238
-46.427
-45.884
-44.473
-41.087
-37.313
-33.633
-32.959
-38.776
-47.227
-55.746
-60.506
-56.25
-47.627
-38.579
-31.805
-31.765
-35.269
-39.079
-42.477
-43.491
-43.265
-43.262
-43.199
-43.261
-43.346
-43.161
-42.9
-42.704
-42.527
-42.38
-42.299
-42.298
-42.372
-42.485
-42.606
-42.743
-42.891
-42.977
-42.941
-42.725
-42.307
-41.782
-41.186
-40.394
-39.515
-38.981
-38.907
-39.178
-39.886
-40.648
-42.115
-46.772
-54.273
-62.169
-67.007
-61.996
-46.745
-28.147
-13.064
-10.916
-23.277
-41.801
-58.294
-64.048
-58.65
-48.897
-42.965
-49.905
-66.488
-84.773
-95.194
-84.453
-57.448
-26.757
-3.488
-3.428
-24.084
-51.188
-75.374
-85.355
-80.636
-71.037
-61.459
-55.663
-54.635
-54.639
-54.308
-53.915
-53.294
-52.955
-53.049
-53.105
-52.978
-52.751
-52.391
-51.854
-51.179
-50.405
-49.579
-48.79
-48.072
-47.392
-46.751
-46.167
-45.64
-45.177
-44.781
-44.442
-44.158
-43.935
-43.773
-43.67
-43.624
-43.63
-43.687
-43.791
-43.938
-44.126
-44.348
-44.598
-44.871
-45.158
-45.45
-45.737
-46.002
-46.228
-46.407
-46.532
-46.58
-46.535
-46.376
-46.076
-45.643
-45.092
-44.394
-43.526
-42.515
-41.368
-40.135
-38.889
-37.573
-36.113
-34.549
-32.922
-31.115
-29.003
-26.647
-23.954
-21.049
-18.54
-15.236
-10.101
-4.702
0.915
2.824
-3.403
-12.474
-21.416
-23.628
-10.588
9.408
29.987
44.692
43.94
35.314
25.759
18.587
20.066
25.901
31.437
36.201
38.015
38.045
37.961
37.197
35.713
33.451
30.157
26.087
21.514
16.468
10.994
5.191
-0.87
-7.157
-13.629
-20.27
-27.06
-33.905
-40.677
-47.232
-53.443
-59.228
-64.54
-69.357
-73.664
-77.419
-80.564
-83.059
-84.873
-85.996
-86.411
-86.104
-85.076
-83.362
-81.07
-78.363
-75.392
-72.319
-69.299
-66.45
-63.982
-62.196
-61.284
-61.335
-62.207
-63.469
-64.754
-65.818
-66.286
-65.72
-63.783
-60.317
-55.957
-52.077
-49.842
-50.11
-53.398
-59.847
-69.53
-82.059
-95.467
-106.399
-111.461
-107.514
-92.04
-63.139
-18.959
41.914
117.619
203.041
294.59
388.981
485.367
586.362
685.729
771.877
833.901
859.034
847.287
809.512
754.333
691.392
623.743
546.928
460.303
364.868
262.621
158.342
55.288
-44.331
-137.273
-220.204
-290.613
-347.013
-388.02
-414.276
-426.613
-423.865
-408.148
-380.509
-341.561
-298.546
-256.298
-220.218
-197.277
-184.42
-177.702
-173.041
-163.753
-150.827
-136.503
-121.32
-106.907
-91.514
-73.637
-54.242
-34.586
-16.579
-1.487
10.665
19.921
26.121
29.197
29.266
26.854
22.837
17.858
12.268
6.283
0.057
-6.156
-12.024
-17.298
-21.835
-25.553
-28.411
-30.363
-31.346
-31.351
-30.426
-28.667
-26.208
-23.174
-19.672
-15.792
-11.616
-7.257
-2.852
1.459
5.541
9.308
12.718
15.737
18.348
20.549
22.361
23.831
25.024
25.999
26.799
27.466
28.032
28.547
29.065
29.645
30.344
31.206
32.259
33.528
35.033
36.783
38.784
41.031
43.508
46.21
49.131
52.267
55.617
59.174
62.928
66.868
70.982
75.258
79.683
84.244
88.926
93.713
98.59
103.542
108.554
113.608
118.683
123.759
128.812
133.819
138.758
143.604
148.334
152.924
157.354
161.6
165.644
169.464
173.042
176.357
179.393
182.131
184.556
186.653
188.408
189.809
190.843
191.501
191.775
191.658
191.143
190.228
188.91
187.19
185.069
182.55
179.641
176.349
172.684
168.658
164.284
159.577
154.553
149.23
143.627
137.764
131.661
125.339
118.822
112.131
105.292
98.328
91.265
84.125
76.935
69.719
62.502
55.308
48.161
41.085
34.102
27.235
20.507
13.937
7.545
1.35
-4.631
-10.385
-15.897
-21.156
-26.153
-30.878
-35.327
-39.494
-43.375
-46.97
-50.278
-53.3
-56.04
-58.501
-60.691
-62.615
-64.283
-65.704
-66.889
-67.848
-68.593
-69.138
-69.495
-69.677
-69.7
-69.577
-69.324
-68.957
-68.49
-67.939
-67.32
-66.646
-65.932
-65.191
-64.435
-63.677
-62.927
-62.195
-61.491
-60.823
-60.199
-59.629
-59.118
-58.666
-58.275
-57.944
-57.676
-57.475
-57.341
-57.259
-57.232
-57.28
-57.413
-57.647
-57.977
-58.368
-58.807
-59.322
-59.882
-60.409
-60.838
-61.102
-61.183
-61.166
-61.073
-60.799
-60.434
-60.328
-60.556
-61.003
-61.711
-62.301
-63.452
-67.374
-73.63
-80.17
-83.685
-77.888
-63.046
-45.5
-31.531
-30.059
-41.815
-58.333
-73.06
-78.97
-74.713
-66.615
-58.606
-53.32
-51.618
-50.934
-50.076
-49.147
-48.06
-47.208
-46.704
-46.206
-45.613
-44.992
-44.341
-43.65
-42.938
-42.227
-41.552
-40.978
-40.527
-40.176
-39.916
-39.754
-39.689
-39.723
-39.855
-40.076
-40.381
-40.772
-41.247
-41.802
-42.434
-43.136
-43.902
-44.724
-45.596
-46.511
-47.459
-48.433
-49.423
-50.421
-51.417
-52.402
-53.366
-54.301
-55.197
-56.046
-56.838
-57.567
-58.224
-58.804
-59.301
-59.71
-60.027
-60.249
-60.374
-60.4
-60.326
-60.153
-59.883
-59.515
-59.054
-58.501
-57.863
-57.148
-56.361
-55.506
-54.586
-53.604
-52.567
-51.486
-50.374
-49.233
-48.071
-46.918
-45.815
-44.798
-43.893
-43.093
-42.375
-41.757
-41.234
-40.737
-40.173
-39.463
-38.557
-37.508
-36.433
-35.319
-34.248
-33.612
-33.672
-34.432
-35.854
-37.601
-40.229
-45.728
-55.092
-66.94
-75.871
-74.389
-58.087
-29.886
-2.62
10.157
0.021
-31.732
-68.702
-96.142
-105.328
-94.045
-74.904
-58.041
-48.05
-48.231
-52.758
-57.137
-60.822
-62.153
-62.49
-63.132
-63.455
-63.548
-63.357
-62.583
-61.408
-60.005
-58.373
-56.578
-54.699
-52.738
-50.664
-48.47
-46.14
-43.654
-41.036
-38.304
-35.46
-32.519
-29.501
-26.421
-23.303
-20.165
-17.025
-13.898
-10.803
-7.757
-4.78
-1.889
0.898
3.563
6.089
8.456
10.644
12.637
14.415
15.96
17.257
18.287
19.038
19.5
19.663
19.52
19.064
18.289
17.189
15.761
14.004
11.918
9.507
6.776
3.736
0.405
-3.196
-7.049
-11.139
-15.46
-20.006
-24.764
-29.723
-34.865
-40.166
-45.597
-51.114
-56.654
-62.155
-67.552
-72.785
-77.809
-82.577
-87.033
-91.106
-94.712
-97.77
-100.218
-102.008
-103.099
-103.478
-103.168
-102.252
-100.853
-99.096
-97.102
-94.955
-92.742
-90.601
-88.643
-86.976
-85.778
-85.267
-85.612
-86.966
-89.316
-92.318
-95.652
-99.143
-102.152
-103.732
-103.32
-100.316
-95.598
-92.3
-91.436
-92.469
-92.606
-84.462
-66.889
-44.868
-27.355
-30.653
-58.615
-100.338
-135.945
-134.564
-80.589
21.801
157.078
300.356
439.017
570.953
696.202
811.848
902.458
954.914
963.411
931.963
877.656
811.359
736.651
654.125
558.335
448.799
330.951
209.649
90.822
-19.896
-119.453
-205.406
-275.265
-328.163
-364.546
-384.864
-390.38
-383.631
-366.872
-342.707
-314.64
-285.247
-256.34
-229.378
-204.934
-183.024
-163.965
-147.791
-133.592
-120.436
-107.377
-93.855
-80.04
-66.229
-52.425
-38.539
-24.95
-12.382
-1.793
6.195
11.582
14.532
15.158
13.471
9.601
4.02
-2.526
-9.408
-16.28
-22.907
-29.104
-34.61
-39.108
-42.446
-44.631
-45.713
-45.762
-44.827
-42.915
-40.079
-36.437
-32.12
-27.286
-22.089
-16.615
-10.937
-5.21
0.354
5.549
10.212
14.295
17.862
20.925
23.376
25.335
27.207
29.118
31.016
33
34.698
36.925
42.039
49.518
57.32
61.934
56.792
42.532
25.768
13.161
14.138
29.038
49.024
67.273
76.342
75.15
70.328
65.879
64.615
67.289
71.184
75.118
79.162
83.222
87.701
92.678
97.776
102.879
108.033
113.217
118.398
123.569
128.727
133.882
139.072
144.293
149.487
154.621
159.669
164.603
169.4
174.032
178.462
182.664
186.616
190.295
193.68
196.749
199.481
201.858
203.862
205.477
206.691
207.491
207.867
207.812
207.319
206.386
205.012
203.198
200.949
198.272
195.173
191.665
187.761
183.474
178.822
173.824
168.5
162.875
156.971
150.816
144.437
137.861
131.117
124.235
117.245
110.176
103.057
95.918
88.787
81.694
74.665
67.729
60.91
54.233
47.723
41.4
35.285
29.395
23.748
18.357
13.235
8.392
3.838
-0.422
-4.383
-8.041
-11.397
-14.452
-17.21
-19.677
-21.859
-23.768
-25.413
-26.809
-27.969
-28.909
-29.643
-30.188
-30.564
-30.789
-30.883
-30.866
-30.755
-30.565
-30.318
-30.039
-29.731
-29.404
-29.063
-28.713
-28.375
-28.082
-27.828
-27.605
-27.462
-27.436
-27.557
-27.865
-28.334
-28.903
-29.609
-30.511
-31.446
-32.221
-32.944
-33.598
-34.141
-34.975
-34.986
-33.091
-30.815
-28.613
-29.293
-36.22
-45.648
-55.077
-60.791
-57.689
-50.266
-42.333
-36.5
-37.084
-40.989
-45.078
-48.652
-49.8
-49.629
-49.565
-49.337
-49.128
-48.846
-48.207
-47.402
-46.591
-45.727
-44.809
-43.86
-42.887
-41.888
-40.866
-39.805
-38.682
-37.524
-36.353
-35.177
-34.008
-32.858
-31.735
-30.653
-29.628
-28.666
-27.775
-26.964
-26.238
-25.604
-25.069
-24.637
-24.312
-24.096
-23.991
-23.999
-24.12
-24.354
-24.699
-25.153
-25.715
-26.381
-27.146
-28.007
-28.959
-29.995
-31.11
-32.296
-33.546
-34.851
-36.203
-37.593
-39.01
-40.446
-41.891
-43.335
-44.769
-46.182
-47.567
-48.914
-50.215
-51.463
-52.65
-53.77
-54.816
-55.785
-56.672
-57.472
-58.183
-58.803
-59.329
-59.76
-60.096
-60.335
-60.478
-60.525
-60.478
-60.337
-60.105
-59.784
-59.377
-58.889
-58.322
-57.682
-56.975
-56.205
-55.379
-54.504
-53.586
-52.633
-51.652
-50.651
-49.638
-48.621
-47.607
-46.605
-45.62
-44.66
-43.731
-42.84
-41.991
-41.191
-40.443
-39.752
-39.123
-38.559
-38.065
-37.641
-37.29
-37.016
-36.823
-36.715
-36.693
-36.757
-36.903
-37.136
-37.464
-37.87
-38.344
-38.874
-39.444
-40.061
-40.743
-41.466
-42.204
-42.996
-43.869
-44.841
-45.947
-47.146
-48.358
-49.616
-50.981
-52.265
-53.242
-54.035
-54.627
-54.968
-55.52
-55.019
-52.235
-48.912
-45.573
-45.427
-52.311
-61.969
-71.561
-76.863
-72.071
-62.316
-51.945
-43.938
-43.219
-46.27
-49.526
-52.197
-52.114
-50.546
-49.122
-47.541
-46.018
-44.452
-42.524
-40.457
-38.432
-36.399
-34.356
-32.332
-30.329
-28.344
-26.379
-24.41
-22.408
-20.394
-18.392
-16.403
-14.433
-12.492
-10.581
-8.715
-6.905
-5.157
-3.477
-1.873
-0.354
1.073
2.397
3.61
4.706
5.675
6.511
7.205
7.753
8.15
8.39
8.468
8.379
8.118
7.679
7.055
6.24
5.227
4.012
2.593
0.972
-0.848
-2.864
-5.075
-7.485
-10.096
-12.906
-15.917
-19.124
-22.519
-26.086
-29.795
-33.601
-37.459
-41.321
-45.146
-48.903
-52.559
-56.074
-59.41
-62.515
-65.335
-67.824
-69.93
-71.603
-72.817
-73.575
-73.927
-73.968
-73.801
-73.514
-73.176
-72.871
-72.676
-72.681
-72.995
-73.735
-75.022
-77.049
-80.068
-84.193
-89.378
-95.411
-101.758
-107.787
-112.939
-116.517
-117.72
-116.234
-112.197
-106.022
-99.112
-93.234
-89.343
-88.624
-91.371
-95.372
-99.635
-103.856
-107.691
-113.121
-116.518
-108.533
-79.324
-18.638
72.043
182.201
302.14
421.376
538.967
655.83
763.4
852.332
910.127
930.117
919.012
885.179
836.618
776.27
701.019
610.347
506.172
392.908
276.56
160.564
48.198
-56.074
-148.612
-226.054
-286.565
-330.466
-358.038
-369.189
-364.86
-347.89
-322.522
-293.632
-264.942
-238.286
-214.901
-196.236
-183.661
-177.204
-175.32
-175.338
-174.689
-172.181
-167.531
-160.388
-150.059
-136.301
-119.654
-101.526
-83.787
-67.543
-53.134
-40.765
-30.685
-23.087
-18.012
-15.069
-13.451
-12.579
-12.162
-12.017
-12.124
-12.438
-12.811
-13.164
-13.502
-13.799
-14.042
-14.2
-14.126
-13.697
-12.926
-11.907
-10.788
-9.686
-8.609
-7.529
-6.504
-5.501
-4.205
-2.304
0.277
3.444
6.83
11.016
17.885
28.195
40.553
49.773
48.349
33.271
8.352
-16.04
-27.321
-20.724
-1.279
20.891
34.918
38.362
38.032
40.156
48.986
61.415
65.917
56.154
31.522
-0.996
-25.103
-29.926
-13.173
19.159
51.986
73.673
80.649
75.742
67.506
62.471
62.387
66.385
71.799
77.114
82.446
88.051
94.157
100.602
106.993
113.177
119.136
124.844
130.274
135.411
140.278
144.922
149.366
153.585
157.522
161.139
164.422
167.347
169.868
171.944
173.537
174.63
175.248
175.402
175.062
174.26
173.089
171.601
169.855
167.88
165.602
162.967
160.071
156.79
152.711
147.81
142.286
136.076
129.578
122.153
111.57
98.344
84.73
74.564
74.449
84.898
100.053
111.398
108.555
88.359
56.792
24.826
2.84
-4.272
1.615
11.769
19.407
21.114
15.427
6.701
-1.998
-9.875
-15.448
-19.92
-24.337
-28.317
-32.112
-35.617
-38.531
-41.066
-43.398
-45.521
-47.5
-49.382
-51.144
-52.776
-54.289
-55.664
-56.885
-57.974
-58.947
-59.806
-60.566
-61.238
-61.829
-62.349
-62.807
-63.208
-63.553
-63.847
-64.092
-64.29
-64.444
-64.555
-64.624
-64.65
-64.634
-64.577
-64.479
-64.338
-64.155
-63.928
-63.658
-63.343
-62.984
-62.579
-62.128
-61.632
-61.091
-60.505
-59.876
-59.204
-58.491
-57.741
-56.954
-56.136
-55.29
-54.422
-53.536
-52.641
-51.743
-50.85
-49.969
-49.109
-48.278
-47.483
-46.732
-46.032
-45.388
-44.807
-44.293
-43.853
-43.489
-43.205
-43.004
-42.888
-42.858
-42.914
-43.057
-43.285
-43.597
-43.991
-44.462
-45.01
-45.628
-46.313
-47.06
-47.862
-48.714
-49.608
-50.537
-51.491
-52.462
-53.44
-54.417
-55.383
-56.329
-57.247
-58.129
-58.967
-59.755
-60.488
-61.16
-61.766
-62.304
-62.77
-63.162
-63.481
-63.725
-63.897
-63.996
-64.027
-63.991
-63.892
-63.735
-63.524
-63.262
-62.956
-62.61
-62.23
-61.821
-61.392
-60.948
-60.496
-60.044
-59.599
-59.168
-58.759
-58.378
-58.031
-57.723
-57.46
-57.246
-57.084
-56.978
-56.928
-56.938
-57.007
-57.136
-57.322
-57.566
-57.863
-58.212
-58.607
-59.045
-59.521
-60.031
-60.568
-61.129
-61.707
-62.298
-62.895
-63.494
-64.088
-64.671
-65.238
-65.782
-66.298
-66.78
-67.222
-67.619
-67.967
-68.263
-68.502
-68.683
-68.803
-68.86
-68.853
-68.783
-68.649
-68.453
-68.197
-67.883
-67.514
-67.095
-66.63
-66.124
-65.582
-65.01
-64.413
-63.797
-63.167
-62.531
-61.893
-61.259
-60.635
-60.028
-59.444
-58.888
-58.366
-57.883
-57.445
-57.056
-56.719
-56.438
-56.213
-56.045
-55.941
-55.904
-55.936
-56.038
-56.203
-56.429
-56.722
-57.074
-57.456
-57.848
-58.226
-58.578
-58.921
-59.267
-59.581
-59.882
-60.25
-60.723
-61.339
-62.114
-62.959
-63.791
-64.674
-65.48
-65.787
-65.52
-64.848
-63.683
-62.337
-60.298
-55.396
-47.864
-39.931
-35.044
-39.456
-54.273
-73.766
-89.8
-92.497
-77.899
-51.706
-24.633
-6.547
-2.872
-11.932
-25.017
-35.624
-40.146
-37.048
-30.743
-24.223
-18.299
-14.469
-11.52
-8.431
-5.608
-2.825
-0.194
1.973
3.851
5.578
7.116
8.49
9.734
10.823
11.705
12.349
12.758
12.928
12.893
12.691
12.283
11.609
10.702
9.629
8.228
6.311
4.001
1.295
-1.831
-4.931
-9.13
-15.523
-22.502
-29.578
-33.817
-31.702
-27.099
-22.576
-21.959
-30.505
-43.493
-56.894
-67.93
-72.049
-72.407
-72.22
-72.164
-74.172
-77.03
-79.182
-80.845
-81.78
-82.038
-81.892
-81.159
-79.713
-77.69
-75.22
-72.379
-69.291
-66.103
-62.944
-59.982
-57.407
-55.352
-54.009
-53.684
-54.516
-56.455
-59.334
-62.739
-66.18
-69.231
-71.281
-71.515
-69.545
-65.633
-60.358
-54.672
-49.912
-47.146
-47.163
-51.249
-58.51
-65.141
-69.424
-69.847
-66.224
-63.093
-56.836
-37.971
1.677
74.255
178.638
302.695
435.779
559.827
665.308
749.517
806.074
838.817
850.109
839.728
813.007
768.559
704.858
625.184
531.428
428.319
321.649
214.147
107.793
4.903
-91.896
-179.96
-256.551
-319.722
-369.141
-404.322
-424.507
-429.608
-420.153
-397.651
-365.071
-325.577
-281.254
-234.383
-187.558
-143.562
-105.606
-75.642
-53.717
-39.201
-31.607
-30.063
-33.413
-39.732
-45.986
-50.123
-51.5
-49.994
-45.865
-39.535
-31.352
-22.298
-14.133
-7.959
-4.163
-2.774
-3.326
-5.405
-8.777
-12.905
-17.003
-20.525
-23.114
-24.621
-25.186
-24.894
-23.768
-21.901
-19.386
-16.323
-12.827
-8.975
-4.812
-0.39
4.238
8.994
13.766
18.445
22.921
27.118
31.006
34.56
37.767
40.625
43.136
45.326
47.24
48.916
50.388
51.686
52.831
53.859
54.819
55.761
56.737
57.789
58.939
60.215
61.637
63.22
64.978
66.912
69.017
71.292
73.739
76.363
79.165
82.148
85.305
88.632
92.121
95.764
99.552
103.476
107.523
111.681
115.937
120.277
124.69
129.161
133.672
138.205
142.742
147.26
151.741
156.164
160.506
164.747
168.866
172.843
176.657
180.289
183.72
186.931
189.902
192.617
195.056
197.204
199.046
200.566
201.752
202.593
203.078
203.199
202.95
202.326
201.325
199.947
198.191
196.062
193.564
190.704
187.489
183.93
180.037
175.823
171.301
166.488
161.398
156.05
150.46
144.649
138.635
132.441
126.087
119.597
112.993
106.3
99.543
92.745
85.934
79.133
72.367
65.66
59.036
52.518
46.127
39.884
33.808
27.918
22.23
16.759
11.519
6.521
1.776
-2.708
-6.923
-10.863
-14.524
-17.904
-21
-23.813
-26.344
-28.595
-30.571
-32.277
-33.722
-34.912
-35.859
-36.573
-37.069
-37.358
-37.456
-37.377
-37.139
-36.756
-36.245
-35.622
-34.906
-34.111
-33.253
-32.349
-31.414
-30.461
-29.504
-28.555
-27.627
-26.729
-25.873
-25.066
-24.319
-23.637
-23.028
-22.497
-22.049
-21.688
-21.417
-21.237
-21.148
-21.15
-21.24
-21.416
-21.673
-22.008
-22.413
-22.884
-23.412
-23.991
-24.613
-25.269
-25.95
-26.648
-27.354
-28.06
-28.757
-29.438
-30.094
-30.718
-31.304
-31.845
-32.335
-32.769
-33.14
-33.445
-33.679
-33.839
-33.92
-33.922
-33.841
-33.677
-33.431
-33.102
-32.692
-32.202
-31.637
-30.999
-30.292
-29.521
-28.692
-27.809
-26.88
-25.91
-24.906
-23.876
-22.826
-21.764
-20.696
-19.63
-18.572
-17.529
-16.508
-15.516
-14.56
-13.644
-12.776
-11.961
-11.205
-10.514
-9.892
-9.344
-8.873
-8.485
-8.184
-7.973
-7.849
-7.808
-7.85
-7.974
-8.184
-8.478
-8.84
-9.271
-9.794
-10.422
-11.175
-12.048
-13
-14.017
-15.134
-16.319
-17.479
-18.541
-19.426
-20.113
-20.706
-21.235
-21.577
-21.834
-22.425
-23.45
-24.769
-26.43
-27.993
-30.218
-35.757
-44.182
-52.988
-58.288
-52.545
-35.811
-15.748
0.151
1.222
-13.766
-34.617
-53.411
-61.766
-57.78
-49.046
-40.372
-34.875
-33.695
-33.758
-33.567
-33.257
-32.711
-32.391
-32.446
-32.465
-32.316
-32.081
-31.757
-31.332
-30.83
-30.276
-29.714
-29.224
-28.836
-28.524
-28.28
-28.114
-28.028
-28.029
-28.116
-28.282
-28.524
-28.846
-29.249
-29.732
-30.291
-30.921
-31.619
-32.377
-33.19
-34.051
-34.952
-35.883
-36.836
-37.801
-38.768
-39.724
-40.66
-41.562
-42.42
-43.22
-43.951
-44.601
-45.157
-45.609
-45.947
-46.161
-46.245
-46.189
-45.99
-45.64
-45.137
-44.477
-43.658
-42.68
-41.541
-40.244
-38.792
-37.188
-35.438
-33.547
-31.523
-29.375
-27.11
-24.741
-22.277
-19.729
-17.11
-14.433
-11.712
-8.961
-6.196
-3.431
-0.684
2.031
4.697
7.3
9.826
12.261
14.591
16.804
18.89
20.837
22.634
24.271
25.734
27.014
28.098
28.978
29.645
30.089
30.305
30.288
30.039
29.557
28.845
27.902
26.728
25.325
23.697
21.847
19.783
17.513
15.044
12.389
9.57
6.603
3.506
0.284
-3.065
-6.542
-10.144
-13.863
-17.684
-21.591
-25.562
-29.562
-33.535
-37.427
-41.179
-44.739
-48.074
-51.139
-53.884
-56.243
-58.138
-59.498
-60.275
-60.435
-59.967
-58.881
-57.207
-55.014
-52.404
-49.502
-46.471
-43.473
-40.666
-38.226
-36.305
-35.119
-34.97
-36.061
-38.41
-41.83
-45.932
-50.288
-54.558
-58.276
-60.781
-61.611
-60.713
-58.681
-56.548
-55.288
-55.894
-59.029
-65.139
-74.643
-85.582
-94.762
-100.576
-99.919
-92.464
-79.083
-53.387
-10.944
52.684
141.603
247.685
362.067
476.599
581.587
675.051
754.803
816.906
859.808
880.017
875.789
848.07
797.274
725.535
636.386
533.236
420.771
304.344
187.89
75.763
-27.873
-121.418
-201.748
-265.208
-309.226
-329.083
-326.22
-309.685
-289.222
-277.445
-278.798
-285.957
-291.826
-287.967
-271.447
-248.518
-223.013
-197.224
-172.313
-146.071
-118.552
-92.332
-69.318
-50.912
-37.752
-29.236
-24.387
-22.642
-23.096
-24.132
-24.565
-23.839
-21.731
-18.831
-16.119
-13.994
-12.735
-12.775
-14.181
-16.91
-20.871
-25.503
-30.076
-34.149
-37.398
-39.641
-40.924
-41.253
-40.623
-39.149
-36.968
-34.201
-30.973
-27.358
-23.388
-19.12
-14.613
-9.966
-5.303
-0.742
3.605
7.664
11.402
14.79
17.814
20.475
22.785
24.773
26.483
27.944
29.182
30.222
31.084
31.807
32.442
33.041
33.66
34.342
35.116
36.009
37.044
38.236
39.594
41.122
42.812
44.666
46.685
48.874
51.238
53.777
56.486
59.361
62.396
65.583
68.914
72.381
75.973
79.681
83.493
87.399
91.39
95.454
99.575
103.737
107.921
112.107
116.276
120.405
124.473
128.457
132.335
136.083
139.682
143.109
146.344
149.366
152.156
154.695
156.965
158.948
160.631
161.996
163.033
163.728
164.072
164.056
163.674
162.92
161.792
160.288
158.408
156.154
153.53
150.541
147.195
143.5
139.467
135.109
130.44
125.476
120.235
114.734
108.994
103.036
96.882
90.554
84.075
77.468
70.759
63.971
57.129
50.257
43.38
36.52
29.702
22.948
16.28
9.718
3.282
-3.009
-9.139
-15.09
-20.85
-26.405
-31.743
-36.855
-41.731
-46.366
-50.754
-54.892
-58.777
-62.408
-65.787
-68.915
-71.798
-74.438
-76.843
-79.02
-80.977
-82.722
-84.267
-85.62
-86.794
-87.8
-88.65
-89.356
-89.93
-90.386
-90.733
-90.986
-91.154
-91.249
-91.282
-91.261
-91.195
-91.094
-90.964
-90.812
-90.645
-90.467
-90.283
-90.097
-89.912
-89.731
-89.556
-89.387
-89.227
-89.075
-88.932
-88.797
-88.669
-88.547
-88.431
-88.319
-88.209
-88.099
-87.988
-87.873
-87.753
-87.626
-87.491
-87.345
-87.189
-87.021
-86.842
-86.651
-86.45
-86.239
-86.02
-85.795
-85.567
-85.337
-85.109
-84.885
-84.669
-84.464
-84.274
-84.101
-83.948
-83.819
-83.717
-83.643
-83.6
-83.591
-83.617
-83.68
-83.781
-83.921
-84.103
-84.326
-84.591
-84.899
-85.25
-85.642
-86.076
-86.55
-87.062
-87.611
-88.193
-88.807
-89.449
-90.116
-90.804
-91.51
-92.229
-92.957
-93.691
-94.425
-95.156
-95.879
-96.592
-97.291
-97.974
-98.637
-99.278
-99.896
-100.488
-101.054
-101.591
-102.099
-102.576
-103.022
-103.437
-103.82
-104.171
-104.491
-104.78
-105.039
-105.269
-105.471
-105.647
-105.797
-105.924
-106.03
-106.116
-106.184
-106.238
-106.28
-106.312
-106.336
-106.356
-106.373
-106.389
-106.406
-106.424
-106.445
-106.47
-106.499
-106.533
-106.572
-106.618
-106.671
-106.73
-106.798
-106.873
-106.956
-107.047
-107.146
-107.253
-107.368
-107.491
-107.624
-107.765
-107.917
-108.08
-108.253
-108.438
-108.633
-108.841
-109.06
-109.29
-109.533
-109.787
-110.055
-110.337
-110.634
-110.947
-111.278
-111.628
-111.998
-112.39
-112.805
-113.244
-113.707
-114.196
-114.712
-115.254
-115.825
-116.425
-117.054
-117.711
-118.396
-119.109
-119.848
-120.612
-121.398
-122.205
-123.03
-123.871
-124.726
-125.593
-126.468
-127.348
-128.231
-129.113
-129.989
-130.857
-131.711
-132.547
-133.36
-134.146
-134.899
-135.616
-136.29
-136.918
-137.495
-138.015
-138.474
-138.868
-139.191
-139.439
-139.608
-139.694
-139.695
-139.607
-139.427
-139.155
-138.787
-138.324
-137.762
-137.101
-136.341
-135.481
-134.521
-133.462
-132.306
-131.052
-129.704
-128.264
-126.734
-125.119
-123.42
-121.642
-119.789
-117.867
-115.881
-113.835
-111.738
-109.594
-107.412
-105.199
-102.964
-100.714
-98.46
-96.209
-93.973
-91.76
-89.581
-87.447
-85.368
-83.359
-81.433
-79.604
-77.886
-76.293
-74.841
-73.543
-72.418
-71.474
-70.717
-70.154
-69.793
-69.644
-69.724
-70.041
-70.59
-71.387
-72.459
-73.83
-75.523
-77.531
-79.809
-82.345
-85.171
-88.264
-91.54
-94.934
-98.366
-101.822
-105.392
-109.075
-112.717
-116.387
-120.44
-124.889
-129.566
-134.488
-139.15
-144.395
-152.725
-163.399
-174.049
-180.649
-175.847
-160.358
-141.412
-126.349
-125.614
-139.551
-158.531
-175.15
-181.282
-175.923
-166.491
-157.498
-152.192
-151.509
-152.638
-154.547
-157.463
-161.268
-166.165
-171.72
-176.937
-181.165
-183.887
-184.355
-182.085
-177.208
-170.423
-163.158
-156.956
-152.69
-150.953
-152.486
-157.407
-164.662
-172.064
-175.973
-172.316
-158.163
-131.098
-88.531
-28.78
48.224
140.884
245.244
355.84
467.795
576.155
674.915
758.261
821.277
859.964
872.45
858.875
819.463
755.317
669.548
566.163
449.82
326.104
200.131
76.211
-40.829
-146.698
-238.608
-314.437
-373.16
-415.282
-441.716
-453.871
-454.381
-445.914
-430.719
-411.189
-389.116
-365.749
-342.543
-320.264
-298.722
-277.821
-257.47
-237.462
-218.13
-199.531
-181.011
-162.487
-144.376
-126.967
-110.747
-96.034
-82.559
-70.495
-60.581
-53.097
-48.072
-45.45
-44.826
-45.95
-48.844
-53.159
-58.25
-63.643
-68.894
-73.667
-77.815
-81.09
-83.218
-84.098
-83.742
-82.208
-79.603
-76.002
-71.465
-66.113
-60.092
-53.565
-46.697
-39.611
-32.428
-25.284
-18.329
-11.719
-5.566
0.069
5.156
9.684
13.647
17.051
19.928
22.334
24.319
25.939
27.242
28.265
29.059
29.681
30.193
30.661
31.138
31.659
32.258
32.959
33.788
34.765
35.899
37.19
38.644
40.268
42.073
44.069
46.263
48.654
51.245
54.033
57.018
60.199
63.571
67.129
70.869
74.783
78.867
83.115
87.517
92.062
96.735
101.523
106.41
111.377
116.408
121.483
126.581
131.684
136.771
141.822
146.817
151.734
156.554
161.255
165.82
170.227
174.46
178.5
182.333
185.942
189.316
192.441
195.306
197.903
200.221
202.256
204.002
205.454
206.61
207.467
208.025
208.286
208.253
207.928
207.316
206.422
205.252
203.816
202.123
200.184
198.009
195.614
193.015
190.229
187.275
184.171
180.937
177.592
174.157
170.651
167.093
163.5
159.891
156.284
152.702
149.166
145.697
142.314
139.039
135.894
132.904
130.089
127.464
125.044
122.845
120.888
119.198
117.797
116.696
115.902
115.418
115.241
115.363
115.761
116.391
117.21
118.174
119.25
120.414
121.64
122.896
124.151
125.369
126.538
127.658
128.734
129.778
130.818
131.902
133.122
134.599
136.441
138.745
141.587
145.022
149.111
153.891
159.364
165.51
172.273
179.59
187.398
195.581
203.946
212.237
220.135
227.322
233.55
238.531
241.922
243.476
243.075
240.823
236.934
231.448
224.161
214.834
203.448
190.042
174.527
156.497
135.468
111.505
85.418
58.49
