Name,John Breau
Date of Birth,"Dec 20, 1971"
Recorded Date,2023-05-29 22:08:03 -0500
Classification,Sinus Rhythm
Symptoms,
Software Version,1.90
Device,"Watch6,3"
Sample Rate,512 hertz


Lead,Lead I
Unit,µV

177.89
178.794
179.354
179.554
179.376
178.805
177.829
176.438
174.621
172.372
169.688
166.565
163.005
159.012
154.59
149.75
144.504
138.865
132.851
126.48
119.775
112.758
105.456
97.895
90.106
82.119
73.967
65.686
57.31
48.876
40.423
31.988
23.61
15.326
7.175
-0.806
-8.582
-16.118
-23.38
-30.337
-36.957
-43.214
-49.08
-54.534
-59.556
-64.128
-68.237
-71.874
-75.035
-77.717
-79.92
-81.648
-82.908
-83.709
-84.063
-83.982
-83.483
-82.583
-81.305
-79.675
-77.72
-75.473
-72.967
-70.238
-67.325
-64.268
-61.109
-57.89
-54.649
-51.427
-48.268
-45.214
-42.314
-39.611
-37.138
-34.927
-33.002
-31.383
-30.084
-29.107
-28.445
-28.089
-28.033
-28.273
-28.811
-29.651
-30.797
-32.249
-34.004
-36.069
-38.465
-41.219
-44.364
-47.936
-51.969
-56.508
-61.617
-67.346
-73.728
-80.78
-88.493
-96.841
-105.786
-115.274
-125.245
-135.609
-146.247
-157.026
-167.791
-178.394
-188.695
-198.539
-207.755
-216.19
-223.717
-230.233
-235.675
-240
-243.188
-245.24
-246.181
-246.07
-245.001
-243.093
-240.489
-237.321
-233.708
-229.78
-225.675
-221.52
-217.422
-213.464
-209.699
-206.172
-202.914
-199.941
-197.255
-194.831
-192.624
-190.571
-188.596
-186.634
-184.639
-182.559
-180.349
-177.971
-175.393
-172.603
-169.604
-166.4
-162.992
-159.389
-155.6
-151.646
-147.557
-143.364
-139.104
-134.806
-130.487
-126.162
-121.841
-117.528
-113.225
-108.925
-104.613
-100.281
-95.919
-91.521
-87.081
-82.59
-78.041
-73.423
-68.73
-63.955
-59.095
-54.149
-49.116
-43.999
-38.801
-33.528
-28.187
-22.784
-17.326
-11.818
-6.265
-0.673
4.953
10.605
16.278
21.965
27.659
33.352
39.034
44.696
50.331
55.928
61.481
66.98
72.417
77.784
83.075
88.287
93.415
98.449
103.381
108.206
112.922
117.538
122.058
126.472
130.789
135.029
139.218
143.392
147.556
151.66
155.686
159.661
163.566
167.359
170.993
174.371
177.51
180.596
183.732
186.881
190.163
193.899
198.169
202.952
208.222
213.223
218.557
226.871
237.768
249.216
256.986
251.677
233.476
211.848
197.092
205.697
239.239
281.443
318.428
333.23
322.457
302.025
283.328
276.362
284.181
297.38
310.294
320.433
326.562
331.707
337.354
342.959
348.489
353.618
358.172
362.473
366.654
370.647
374.454
378.13
381.649
384.946
387.989
390.709
393.036
395.006
396.678
398.075
399.239
400.167
400.767
401.013
400.986
400.588
399.49
397.611
395.046
391.753
388.063
383.377
375.695
365.383
354.306
345.429
344.434
351.163
359.879
364.933
358.29
339.206
315.352
292.681
277.542
271.252
268.12
264.598
258.33
248.521
237.504
226.387
215.105
203.781
192.068
179.865
167.536
155.225
142.916
130.666
118.482
106.313
94.196
82.179
70.086
57.744
45.299
32.767
20.132
7.795
-5.213
-19.83
-34.62
-49.137
-60.805
-66.545
-69.735
-72.621
-78.564
-92.185
-109.379
-126.642
-141.531
-150.057
-154.98
-159.133
-163.167
-168.827
-175.09
-180.606
-185.55
-189.68
-193.048
-195.872
-197.875
-198.908
-199.102
-198.681
-198.043
-197.593
-197.564
-198.086
-199.256
-200.835
-202.372
-203.37
-202.99
-200.509
-195.506
-187.663
-177.025
-164.378
-150.805
-137.326
-125.329
-115.959
-110.156
-109.104
-113.37
-122.524
-135.638
-151.538
-168.628
-185.397
-199.96
-209.468
-211.254
-203.116
-183.174
-150.16
-103.211
-41.7
34.046
122.105
219.652
323.062
427.989
530.175
625.257
708.647
776.145
824.617
851.965
857.254
840.966
804.113
748.1
675.267
588.703
491.765
388.034
281.092
173.844
69.16
-29.724
-119.908
-199.03
-265.256
-317.552
-355.655
-379.423
-389.028
-385.538
-370.838
-347.316
-317.585
-284.169
-249.138
-214.532
-182.702
-155.529
-133.803
-117.523
-106.057
-98.269
-93.238
-89.912
-86.526
-81.488
-73.978
-63.665
-50.835
-36.251
-20.442
-4.032
11.911
26.586
39.573
50.669
60.129
68.418
75.891
82.991
90.25
97.972
106.365
115.554
125.479
136.075
147.254
158.852
170.748
182.866
195.158
207.598
220.113
232.576
244.879
256.935
268.685
280.117
291.193
301.902
312.311
322.513
332.646
342.84
353.135
363.543
374.069
384.696
395.44
406.318
417.262
428.174
438.946
449.433
459.497
468.951
477.48
484.717
490.297
493.867
495.149
493.899
489.832
482.674
472.256
458.52
441.58
421.689
399.088
373.961
346.496
316.943
285.409
251.804
215.879
177.194
135.383
90.393
42.524
-7.725
-59.281
-110.512
-159.685
-204.903
-244.286
-276.354
-300.228
-315.504
-322.714
-323.344
-318.979
-311.328
-302.511
-294.74
-289.845
-289.396
-294.352
-304.847
-321.125
-343.567
-371.626
-403.97
-439.25
-475.893
-512.31
-547.258
-579.042
-605.521
-625.69
-639.707
-648.057
-651.826
-652.419
-651.17
-649.989
-651.271
-656.516
-666.276
-680.735
-699.453
-721.93
-747.965
-777.142
-809.093
-844.186
-883.555
-928.954
-982.735
-1046.998
-1123.537
-1214.162
-1319.784
-1440.572
-1574.594
-1717.291
-1865.094
-2015.212
-2166.009
-2317.872
-2465.246
-2597.814
-2705.879
-2778.728
-2813.089
-2811.559
-2774.539
-2704.114
-2603.757
-2482.295
-2355.612
-2239.401
-2139.416
-2041.316
-1916.011
-1730.207
-1462.049
-1121.988
-757.071
-448.457
-296.473
-387.342
-760.292
-1378.258
-2125.555
-2838.528
-3354.439
-3569.918
-3463.769
-3082.794
-2509.243
-1813.73
-1044.812
-247.803
517.035
1157.564
1572.429
1695.846
1525.053
1127.868
612.302
79.809
-400.138
-793.498
-1086.423
-1267.601
-1332.987
-1303.813
-1231.901
-1190.905
-1243.232
-1401.844
-1632.265
-1871.731
-2067.569
-2212.253
-2324.75
-2429.38
-2529.326
-2592.405
-2586.254
-2495.716
-2332.54
-2132.004
-1921.566
-1717.241
-1530.133
-1374.666
-1275.016
-1248.118
-1284.332
-1341.264
-1361.719
-1304.861
-1169.62
-997.01
-843.621
-749.892
-722.417
-735.234
-751.01
-744.095
-708.466
-654.932
-600.216
-554.495
-520.356
-495.35
-475.001
-457.38
-442.259
-429.344
-418.371
-408.425
-398.257
-387.159
-374.77
-360.844
-345.384
-328.515
-310.379
-291.199
-271.231
-250.694
-229.79
-208.762
-187.853
-167.207
-146.953
-127.281
-108.383
-90.293
-73.012
-56.696
-41.328
-27.078
-14.543
-2.567
9.878
21.419
32.153
38.396
36.041
30.379
24.389
24.695
39.702
61.174
82.915
98.479
98.247
89.827
80.041
72.275
73.164
78.652
84.256
89.544
92.405
94.318
97.115
100.13
102.888
105.117
107.904
113.269
120.475
124.11
116.226
90.058
48.815
9.165
-11.412
0.88
45.965
102.635
152.26
181.653
187.207
185.685
188.684
199.532
216.439
224.89
217.415
198.735
179.744
176.051
194.772
230.249
269.455
298.938
312.198
310.657
300.147
285.278
266.846
242.723
209.45
165.447
111.608
50.249
-15.408
-82.762
-149.795
-214.191
-273.335
-324.81
-367.151
-400.094
-424.295
-440.652
-450.077
-453.873
-453.919
-452.089
-449.658
-447.246
-444.915
-442.503
-439.898
-436.771
-432.424
-426.332
-418.327
-408.534
-397.401
-385.45
-373.098
-360.815
-349.178
-338.606
-329.362
-321.622
-315.37
-310.549
-307.124
-304.98
-303.942
-303.828
-304.444
-305.577
-307.042
-308.651
-310.195
-311.531
-312.542
-313.133
-313.228
-312.725
-311.53
-309.583
-306.848
-303.312
-298.995
-293.924
-288.133
-281.697
-274.683
-267.162
-259.23
-250.944
-242.347
-233.504
-224.473
-215.348
-206.259
-197.308
-188.599
-180.257
-172.38
-165.094
-158.537
-152.783
-147.974
-144.29
-141.797
-140.495
-140.224
-140.583
-141.202
-141.762
-141.779
-140.72
-138.165
-133.809
-127.962
-121.486
-115.11
-109.459
-104.984
-101.941
-100.659
-101.173
-102.261
-101.681
-96.943
-85.344
-64.857
-33.89
9.702
67.518
139.442
223.906
317.826
416.876
517.227
614.824
704.001
779.211
835.868
870.253
880.913
868.133
832.02
773.892
697.409
606.936
507.495
404.749
302.988
205.713
117.014
39.903
-24.246
-74.547
-111.198
-135.666
-149.088
-152.618
-148.169
-137.116
-120.285
-98.982
-74.319
-46.715
-16.878
14.261
45.892
76.527
104.482
129.027
149.843
166.487
178.988
187.727
193.423
197.652
202.022
207.275
213.747
221.606
230.69
240.785
251.408
261.494
270.136
276.962
281.885
285.116
287.01
287.809
287.87
287.764
287.955
288.746
290.297
292.563
295.456
298.942
302.965
307.449
312.329
317.518
322.934
328.527
334.246
340.031
345.818
351.51
356.996
362.189
367.035
371.512
375.623
379.367
382.746
385.773
388.481
390.914
393.12
395.138
396.999
398.74
400.409
402.065
403.774
405.59
407.552
409.691
412.034
414.607
417.433
420.528
423.896
427.539
431.465
435.679
440.192
445.008
450.123
455.532
461.228
467.201
473.444
479.946
486.693
493.668
500.855
508.236
515.795
523.51
531.356
539.307
547.334
555.407
563.495
571.565
579.585
587.519
595.334
602.996
610.471
617.725
624.724
631.434
637.823
643.859
649.51
654.747
659.541
663.866
667.697
671.01
673.787
676.007
677.655
678.715
679.178
679.034
678.276
676.901
674.909
672.301
669.081
665.258
660.84
655.839
650.27
644.15
637.497
630.332
622.678
614.559
606.001
597.033
587.683
577.984
567.968
557.666
547.115
536.347
525.399
514.306
503.102
491.822
480.501
469.172
457.87
446.624
435.467
424.429
413.535
402.814
392.29
381.985
371.919
362.113
352.582
343.343
334.409
325.79
317.498
309.54
301.923
294.649
287.722
281.143
274.908
269.016
263.462
258.238
253.336
248.749
244.464
240.47
236.755
233.306
230.108
227.146
224.405
221.871
219.528
217.359
215.351
213.487
211.755
210.139
208.626
207.203
205.857
204.575
203.346
202.159
201.001
199.863
198.735
197.607
196.471
195.318
194.143
192.938
191.697
190.417
189.091
187.717
186.292
184.813
183.279
181.689
180.042
178.339
176.58
174.766
172.898
170.977
169.006
166.984
164.915
162.8
160.641
158.44
156.2
153.922
151.611
149.268
146.897
144.501
142.085
139.652
137.205
134.75
132.289
129.828
127.37
124.92
122.483
120.061
117.659
115.282
112.931
110.612
108.327
106.078
103.87
101.704
99.583
97.511
95.488
93.518
91.602
89.743
87.942
86.201
84.52
82.901
81.344
79.848
78.415
77.042
75.73
74.475
73.277
72.132
71.039
69.993
68.991
68.029
67.102
66.208
65.34
64.495
63.667
62.853
62.046
61.243
60.438
59.626
58.802
57.962
57.099
56.21
55.29
54.333
53.336
52.295
51.206
50.066
48.871
47.619
46.309
44.939
43.507
42.014
40.461
38.847
37.176
35.449
33.67
31.842
29.969
28.057
26.109
24.132
22.131
20.113
18.084
16.052
14.024
12.008
10.012
8.044
6.113
4.228
2.396
0.627
-1.072
-2.692
-4.226
-5.665
-7.004
-8.234
-9.351
-10.347
-11.219
-11.961
-12.57
-13.043
-13.38
-13.578
-13.638
-13.561
-13.348
-13.003
-12.528
-11.927
-11.206
-10.37
-9.425
-8.378
-7.238
-6.014
-4.715
-3.352
-1.935
-0.476
1.013
2.519
4.03
5.535
7.019
8.469
9.872
11.216
12.487
13.669
14.746
15.703
16.524
17.194
17.7
18.027
18.165
18.102
17.831
17.347
16.644
15.717
14.559
13.165
11.529
9.654
7.538
5.187
2.607
-0.196
-3.205
-6.406
-9.788
-13.342
-17.068
-20.969
-25.038
-29.264
-33.632
-38.116
-42.689
-47.311
-51.927
-56.482
-60.927
-65.211
-69.301
-73.156
-76.72
-79.945
-82.762
-85.114
-86.966
-88.267
-88.984
-89.125
-88.716
-87.825
-86.578
-85.033
-83.249
-81.444
-79.813
-78.582
-78.013
-78.171
-79.12
-81.113
-84.263
-88.223
-92.493
-96.317
-98.884
-100.003
-99.49
-96.943
-92.368
-86.559
-80.836
-77.046
-76.935
-80.968
-89.179
-101.509
-117.158
-133.895
-148.171
-155.742
-152.166
-135.469
-105.913
-61.82
-1.269
77.4
177.333
293.502
413.931
527.299
619.529
685.084
729.019
755.308
769.409
772.313
757.835
722.476
664.967
586.694
493.157
389.039
278.225
164.929
52.667
-54.56
-152.511
-237.89
-308.325
-362.312
-399.597
-420.891
-427.148
-420.052
-402.218
-376.397
-345.348
-311.841
-277.958
-245.409
-216.295
-192.207
-173.63
-160.599
-152.584
-148.506
-147.558
-148.691
-150.096
-150.287
-148.503
-144.367
-138.106
-130.346
-121.54
-112.4
-104.083
-97.44
-92.907
-90.629
-90.332
-91.584
-94.012
-97.141
-100.352
-103.188
-105.371
-106.739
-107.278
-107.017
-105.958
-104.142
-101.662
-98.592
-95.002
-90.978
-86.594
-81.946
-77.177
-72.416
-67.784
-63.406
-59.35
-55.661
-52.396
-49.58
-47.226
-45.355
-43.95
-42.977
-42.398
-42.154
-42.201
-42.513
-43.045
-43.739
-44.514
-45.276
-46.011
-46.776
-47.55
-48.207
-48.506
-48.183
-47.192
-45.726
-43.978
-41.963
-39.732
-37.542
-35.977
-35.756
-37.145
-39.716
-42.702
-45.609
-48.094
-49.697
-49.612
-46.757
-40.558
-31.428
-20.415
-8.349
4.24
16.934
29.18
40.098
49.122
56.42
62.685
68.54
74.322
80.137
86.027
92.218
98.88
105.936
113.121
120.167
126.945
133.447
139.748
145.887
151.84
157.584
163.089
168.291
173.128
177.541
181.471
184.887
187.768
190.067
191.74
192.751
193.058
192.621
191.377
189.22
186.099
182.02
177.05
171.315
164.912
157.903
150.346
142.294
133.807
124.956
115.793
106.35
96.678
86.841
76.932
67.082
57.376
47.858
38.537
29.377
20.365
11.509
2.813
-5.718
-14.081
-22.271
-30.265
-38.024
-45.518
-52.73
-59.676
-66.395
-72.9
-79.195
-85.251
-91.015
-96.48
-101.651
-106.472
-110.894
-114.883
-118.397
-121.474
-124.198
-126.551
-128.481
-130.158
-131.777
-133.234
-134.555
-135.792
-136.55
-137.958
-141.114
-144.494
-147.651
-147.767
-141.462
-132.509
-123.427
-117.958
-121.24
-128.753
-136.662
-142.346
-141.462
-137.131
-132.517
-128.33
-126.498
-125.913
-125.144
-124.47
-123.712
-122.969
-122.533
-122.216
-121.866
-121.534
-121.231
-120.936
-120.653
-120.391
-120.152
-119.962
-119.85
-119.799
-119.792
-119.831
-119.909
-120.024
-120.173
-120.347
-120.54
-120.749
-120.971
-121.205
-121.447
-121.694
-121.942
-122.188
-122.43
-122.666
-122.893
-123.109
-123.312
-123.5
-123.672
-123.826
-123.963
-124.081
-124.18
-124.26
-124.321
-124.365
-124.39
-124.399
-124.392
-124.372
-124.34
-124.298
-124.249
-124.195
-124.139
-124.083
-124.031
-123.985
-123.946
-123.918
-123.902
-123.9
-123.914
-123.944
-123.993
-124.061
-124.148
-124.256
-124.386
-124.537
-124.71
-124.904
-125.119
-125.354
-125.609
-125.882
-126.172
-126.478
-126.798
-127.131
-127.473
-127.824
-128.181
-128.542
-128.904
-129.264
-129.62
-129.968
-130.307
-130.633
-130.944
-131.236
-131.508
-131.758
-131.984
-132.185
-132.358
-132.503
-132.62
-132.706
-132.761
-132.785
-132.777
-132.737
-132.666
-132.563
-132.428
-132.264
-132.07
-131.848
-131.597
-131.319
-131.014
-130.683
-130.326
-129.943
-129.535
-129.101
-128.644
-128.162
-127.656
-127.127
-126.574
-125.997
-125.397
-124.771
-124.12
-123.441
-122.734
-121.996
-121.227
-120.426
-119.59
-118.719
-117.812
-116.866
-115.882
-114.858
-113.791
-112.682
-111.528
-110.33
-109.087
-107.801
-106.472
-105.101
-103.693
-102.25
-100.775
-99.273
-97.749
-96.207
-94.653
-93.094
-91.535
-89.986
-88.454
-86.951
-85.488
-84.081
-82.742
-81.484
-80.324
-79.275
-78.352
-77.567
-76.929
-76.448
-76.134
-75.998
-76.051
-76.306
-76.771
-77.453
-78.359
-79.495
-80.865
-82.467
-84.293
-86.334
-88.585
-91.045
-93.727
-96.634
-99.764
-103.11
-106.659
-110.393
-114.292
-118.317
-122.41
-126.512
-130.562
-134.51
-138.319
-141.943
-145.325
-148.395
-151.067
-153.271
-154.96
-156.096
-156.658
-156.64
-156.061
-154.978
-153.491
-151.712
-149.776
-147.809
-145.95
-144.351
-143.146
-142.537
-142.784
-144.04
-146.344
-149.552
-153.285
-157.165
-160.873
-163.935
-165.77
-165.94
-164.197
-160.935
-157.171
-153.822
-151.649
-151.227
-152.895
-156.922
-163.165
-170.108
-175.093
-175.27
-167.637
-149.869
-120.23
-76.622
-17.628
56.206
142.815
238.875
339.89
441.868
540.72
630.817
706.591
763.555
798.011
808.029
793.271
753.145
688.154
601.147
496.166
378.415
253.816
127.474
4.275
-110.252
-211.355
-295.197
-360.507
-408.281
-438.516
-452.2
-448.609
-427.418
-394.929
-356.627
-319.037
-288.061
-261.476
-239.137
-219.584
-198.854
-177.363
-151.52
-122.016
-96.408
-79.548
-78.38
-91.988
-109.68
-123.729
-127.075
-118.661
-104.802
-89.543
-75.765
-64.928
-56.01
-48.921
-44.07
-41.432
-41.024
-42.529
-45.393
-49.094
-53.047
-56.782
-59.96
-62.391
-64.083
-65.064
-65.348
-64.972
-63.955
-62.325
-60.149
-57.484
-54.382
-50.913
-47.135
-43.103
-38.878
-34.537
-30.167
-25.864
-21.727
-17.817
-14.175
-10.834
-7.812
-5.116
-2.734
-0.634
1.229
2.899
4.408
5.789
7.07
8.292
9.5
10.743
12.076
13.544
15.18
17.017
19.083
21.397
23.975
26.823
29.94
33.327
36.988
40.926
45.147
49.651
54.437
59.498
64.829
70.42
76.264
82.347
88.657
95.179
101.899
108.8
115.867
123.081
130.419
137.859
145.373
152.934
160.515
168.085
175.612
183.065
190.412
197.621
204.662
211.501
218.109
224.455
230.51
236.243
241.629
246.641
251.253
255.443
259.189
262.47
265.269
267.568
269.356
270.62
271.35
271.54
271.186
270.285
268.84
266.851
264.326
261.272
257.699
253.62
249.051
244.009
238.514
232.589
226.256
219.543
212.476
205.083
197.395
189.441
181.254
172.865
164.306
155.61
146.81
137.938
129.027
120.108
111.214
102.373
93.616
84.97
76.464
68.122
59.969
52.027
44.318
36.861
29.672
22.77
16.166
9.873
3.902
-1.741
-7.048
-12.017
-16.644
-20.931
-24.878
-28.489
-31.768
-34.722
-37.358
-39.685
-41.711
-43.448
-44.907
-46.1
-47.04
-47.741
-48.215
-48.478
-48.543
-48.425
-48.138
-47.696
-47.113
-46.402
-45.578
-44.654
-43.642
-42.555
-41.405
-40.203
-38.96
-37.686
-36.391
-35.082
-33.768
-32.455
-31.15
-29.858
-28.585
-27.334
-26.11
-24.917
-23.755
-22.629
-21.539
-20.487
-19.474
-18.5
-17.565
-16.669
-15.812
-14.994
-14.213
-13.469
-12.761
-12.088
-11.449
-10.841
-10.264
-9.716
-9.195
-8.7
-8.23
-7.782
-7.355
-6.949
-6.562
-6.193
-5.841
-5.505
-5.183
-4.875
-4.58
-4.296
-4.024
-3.762
-3.509
-3.264
-3.026
-2.794
-2.566
-2.342
-2.119
-1.895
-1.67
-1.441
-1.205
-0.962
-0.707
-0.44
-0.158
0.143
0.464
0.809
1.181
1.581
2.015
2.483
2.989
3.537
4.128
4.765
5.451
6.187
6.976
7.819
8.716
9.67
10.68
11.745
12.865
14.038
15.262
16.534
17.851
19.208
20.601
22.023
23.47
24.934
26.408
27.883
29.353
30.808
32.239
33.635
34.988
36.287
37.523
38.683
39.759
40.74
41.615
42.375
43.01
43.511
43.869
44.075
44.123
44.006
43.719
43.256
42.615
41.792
40.788
39.603
38.238
36.697
34.985
33.106
31.069
28.882
26.554
24.097
21.522
18.841
16.069
13.22
10.309
7.353
4.367
1.369
-1.624
-4.594
-7.523
-10.394
-13.188
-15.888
-18.478
-20.941
-23.261
-25.423
-27.412
-29.218
-30.826
-32.229
-33.416
-34.381
-35.119
-35.629
-35.907
-35.954
-35.775
-35.371
-34.751
-33.922
-32.893
-31.674
-30.278
-28.719
-27.011
-25.171
-23.217
-21.17
-19.052
-16.888
-14.701
-12.518
-10.363
-8.263
-6.242
-4.324
-2.528
-0.877
0.61
1.912
3.006
3.873
4.5
4.872
4.978
4.808
4.358
3.625
2.618
1.339
-0.211
-2.039
-4.157
-6.577
-9.295
-12.302
-15.588
-19.136
-22.924
-26.916
-31.057
-35.289
-39.559
-43.82
-48.036
-52.159
-56.119
-59.836
-63.212
-66.163
-68.638
-70.603
-72.027
-72.9
-73.23
-73.041
-72.432
-71.53
-70.45
-69.335
-68.318
-67.515
-67.134
-67.46
-68.693
-70.91
-73.962
-77.434
-80.919
-84.113
-86.626
-87.977
-87.838
-86.169
-83.579
-81.359
-80.802
-82.838
-88.071
-96.809
-108.895
-123.505
-138.607
-150.939
-156.865
-153.009
-136.761
-106.177
-59.901
2.359
79.319
168.054
264.231
362.855
459.393
549.38
628.107
691.47
736.15
759.759
761.808
742.984
703.893
645.954
571.77
484.359
387.549
285.845
182.898
82.046
-12.863
-98.558
-172.662
-233.412
-280.194
-313.682
-334.815
-344.888
-345.864
-339.687
-327.905
-311.876
-292.857
-271.452
-247.944
-222.785
-196.379
-169.389
-143.211
-119.21
-98.051
-80.503
-67.305
-58.574
-54.174
-53.349
-54.352
-55.637
-56.433
-56.077
-54.169
-50.696
-45.664
-39.594
-33.667
-28.78
-25.345
-23.536
-23.186
-24.054
-26.015
-28.715
-31.564
-34.086
-35.949
-37.009
-37.34
-37.024
-36.092
-34.605
-32.643
-30.292
-27.645
-24.772
-21.707
-18.471
-15.086
-11.606
-8.111
-4.696
-1.469
1.51
4.215
6.624
8.73
10.531
12.028
13.25
14.242
15.045
15.692
16.21
16.621
16.959
17.273
17.615
18.041
18.596
19.312
20.22
21.347
22.714
24.344
26.247
28.426
30.888
33.641
36.692
40.051
43.721
47.701
51.988
56.573
61.45
66.611
72.055
77.783
83.788
90.05
96.546
103.245
110.114
117.126
124.242
131.414
138.604
145.782
152.933
160.06
167.151
174.182
181.116
187.901
194.5
200.902
207.093
213.067
218.823
224.349
229.659
234.791
239.75
244.511
249.015
253.157
256.863
260.089
262.802
264.991
266.63
267.672
268.084
267.839
266.905
265.251
262.82
259.514
255.298
250.179
244.215
237.523
230.191
222.277
213.84
204.932
195.608
185.943
175.99
165.781
155.373
144.826
134.232
123.717
113.364
103.213
93.275
83.518
73.929
64.52
55.293
46.249
37.394
28.731
20.282
12.089
4.175
-3.451
-10.794
-17.881
-24.722
-31.306
-37.616
-43.62
-49.296
-54.635
-59.622
-64.241
-68.485
-72.354
-75.857
-79.021
-81.864
-84.4
-86.64
-88.591
-90.267
-91.684
-92.862
-93.82
-94.579
-95.156
-95.575
-95.857
-96.024
-96.094
-96.08
-95.994
-95.848
-95.654
-95.425
-95.172
-94.903
-94.63
-94.36
-94.105
-93.871
-93.666
-93.493
-93.356
-93.258
-93.2
-93.184
-93.209
-93.273
-93.376
-93.515
-93.687
-93.888
-94.116
-94.364
-94.63
-94.907
-95.191
-95.476
-95.757
-96.029
-96.286
-96.524
-96.738
-96.924
-97.079
-97.2
-97.282
-97.325
-97.325
-97.28
-97.188
-97.049
-96.861
-96.623
-96.336
-95.999
-95.615
-95.183
-94.706
-94.187
-93.626
-93.027
-92.393
-91.727
-91.032
-90.312
-89.572
-88.815
-88.047
-87.273
-86.498
-85.727
-84.965
-84.218
-83.49
-82.786
-82.112
-81.471
-80.867
-80.305
-79.788
-79.321
-78.906
-78.546
-78.245
-78.004
-77.826
-77.713
-77.665
-77.684
-77.771
-77.925
-78.148
-78.438
-78.794
-79.217
-79.704
-80.254
-80.863
-81.529
-82.247
-83.015
-83.827
-84.679
-85.564
-86.477
-87.413
-88.366
-89.329
-90.296
-91.261
-92.218
-93.159
-94.079
-94.97
-95.827
-96.642
-97.41
-98.124
-98.778
-99.368
-99.887
-100.331
-100.695
-100.974
-101.163
-101.259
-101.259
-101.158
-100.954
-100.646
-100.232
-99.71
-99.081
-98.346
-97.504
-96.558
-95.508
-94.357
-93.107
-91.761
-90.322
-88.794
-87.181
-85.486
-83.716
-81.875
-79.968
-78.001
-75.979
-73.908
-71.793
-69.64
-67.454
-65.241
-63.006
-60.756
-58.496
-56.231
-53.969
-51.714
-49.471
-47.245
-45.042
-42.866
-40.721
-38.61
-36.538
-34.51
-32.53
-30.601
-28.728
-26.915
-25.166
-23.486
-21.878
-20.345
-18.892
-17.521
-16.239
-15.048
-13.952
-12.958
-12.069
-11.294
-10.64
-10.113
-9.722
-9.473
-9.374
-9.433
-9.656
-10.045
-10.606
-11.342
-12.255
-13.351
-14.634
-16.107
-17.774
-19.639
-21.702
-23.963
-26.421
-29.063
-31.883
-34.869
-38.016
-41.326
-44.799
-48.429
-52.208
-56.125
-60.163
-64.295
-68.481
-72.662
-76.78
-80.781
-84.616
-88.249
-91.64
-94.745
-97.51
-99.872
-101.775
-103.174
-104.04
-104.344
-104.079
-103.29
-102.076
-100.59
-98.98
-97.357
-95.788
-94.336
-93.102
-92.162
-91.574
-91.352
-91.532
-92.265
-93.717
-95.983
-98.943
-102.293
-105.798
-109.14
-111.705
-112.729
-111.438
-108.119
-104.829
-103.432
-103.984
-103.203
-94.087
-71.636
-38.239
-3.323
17.428
10.206
-23.252
-69.05
-103.993
-99.462
-44.38
58.681
199.572
352.821
500.215
628.989
723.014
780.718
803.866
796.929
774.605
744.18
707.066
661.774
601.576
524.841
435.015
336.972
236.913
138.454
43.695
-44.277
-123.039
-190.366
-244.419
-285.16
-312.986
-327.968
-330.942
-323.703
-308.163
-286.739
-261.924
-235.096
-207.318
-180.072
-154.617
-131.78
-112.299
-96.115
-82.623
-71.669
-63.148
-56.469
-50.831
-45.477
-39.638
-33.137
-26.289
-19.282
-12.303
-5.762
-0.229
3.787
5.858
5.889
4.148
0.945
-3.38
-8.416
-13.701
-18.826
-23.425
-27.23
-30.152
-32.158
-33.256
-33.502
-32.958
-31.679
-29.732
-27.21
-24.196
-20.791
-17.093
-13.186
-9.167
-5.148
-1.256
2.398
5.739
8.728
11.353
13.606
15.48
16.985
18.151
19.025
19.656
20.088
20.356
20.499
20.569
20.624
20.731
20.942
21.298
21.829
22.563
23.524
24.737
26.215
27.962
29.982
32.281
34.868
37.756
40.951
44.453
48.263
52.377
56.794
61.513
66.53
71.836
77.425
83.286
89.409
95.785
102.397
109.228
116.257
123.459
130.809
138.28
145.842
153.465
161.116
168.762
176.371
183.909
191.341
198.634
205.753
212.663
219.33
225.722
231.805
237.546
242.915
247.881
252.415
256.492
260.085
263.171
265.728
267.737
269.183
270.051
270.329
270.01
269.088
267.56
265.428
262.696
259.37
255.46
250.98
245.945
240.374
234.288
227.711
220.668
213.186
205.297
197.032
188.424
179.508
170.319
160.896
151.276
141.498
131.601
121.625
111.608
101.59
91.607
81.699
71.901
62.248
52.774
43.51
34.487
25.731
17.269
9.124
1.315
-6.139
-13.223
-19.925
-26.235
-32.145
-37.651
-42.75
-47.444
-51.734
-55.626
-59.128
-62.248
-64.997
-67.39
-69.44
-71.165
-72.581
-73.708
-74.565
-75.173
-75.553
-75.725
-75.712
-75.536
-75.217
-74.778
-74.238
-73.618
-72.936
-72.212
-71.46
-70.698
-69.939
-69.196
-68.481
-67.804
-67.173
-66.597
-66.082
-65.631
-65.248
-64.936
-64.695
-64.525
-64.423
-64.389
-64.417
-64.504
-64.646
-64.835
-65.066
-65.333
-65.627
-65.942
-66.27
-66.603
-66.934
-67.254
-67.557
-67.835
-68.083
-68.294
-68.464
-68.588
-68.663
-68.684
-68.651
-68.561
-68.414
-68.209
-67.947
-67.629
-67.256
-66.832
-66.358
-65.839
-65.278
-64.679
-64.047
-63.387
-62.703
-62.003
-61.29
-60.571
-59.852
-59.139
-58.439
-57.757
-57.1
-56.474
-55.885
-55.337
-54.835
-54.385
-53.989
-53.65
-53.372
-53.156
-53.004
-52.917
-52.894
-52.937
-53.044
-53.214
-53.445
-53.736
-54.084
-54.486
-54.94
-55.443
-55.991
-56.58
-57.206
-57.866
-58.554
-59.266
-59.997
-60.742
-61.495
-62.25
-63.002
-63.746
-64.476
-65.186
-65.872
-66.529
-67.153
-67.74
-68.286
-68.79
-69.247
-69.657
-70.017
-70.326
-70.583
-70.789
-70.942
-71.042
-71.091
-71.088
-71.034
-70.931
-70.778
-70.577
-70.331
-70.04
-69.707
-69.334
-68.924
-68.481
-68.007
-67.507
-66.983
-66.44
-65.882
-65.311
-64.732
-64.147
-63.56
-62.974
-62.391
-61.812
-61.24
-60.675
-60.118
-59.57
-59.031
-58.499
-57.975
-57.459
-56.949
-56.444
-55.945
-55.449
-54.955
-54.462
-53.969
-53.473
-52.972
-52.461
-51.94
-51.403
-50.849
-50.273
-49.671
-49.04
-48.375
-47.675
-46.935
-46.153
-45.325
-44.449
-43.524
-42.548
-41.521
-40.443
-39.316
-38.141
-36.921
-35.66
-34.361
-33.029
-31.667
-30.281
-28.876
-27.458
-26.033
-24.61
-23.197
-21.807
-20.45
-19.142
-17.894
-16.722
-15.64
-14.664
-13.806
-13.076
-12.486
-12.046
-11.767
-11.663
-11.744
-12.02
-12.5
-13.19
-14.095
-15.222
-16.568
-18.127
-19.891
-21.853
-24.017
-26.391
-28.984
-31.794
-34.816
-38.042
-41.456
-45.04
-48.762
-52.567
-56.399
-60.2
-63.92
-67.52
-70.953
-74.163
-77.077
-79.612
-81.696
-83.275
-84.309
-84.773
-84.659
-83.98
-82.792
-81.18
-79.258
-77.162
-75.019
-72.972
-71.176
-69.769
-68.956
-69.004
-70.063
-72.157
-75.149
-78.682
-82.379
-85.93
-88.85
-90.505
-90.489
-88.683
-85.49
-81.869
-78.778
-76.963
-77.1
-79.817
-85.291
-92.956
-101.237
-107.625
-108.979
-102.033
-84.096
-52.405
-5.652
55.006
129.169
215.978
314.293
424.746
541.808
654.293
750.724
818.028
851.73
856.729
838.201
803.052
753.69
687.323
604.415
506.895
398.997
287.818
178.329
74.1
-21.692
-107.075
-180.304
-239.927
-285.561
-317.531
-336.382
-342.87
-337.862
-322.833
-299.772
-270.772
-238.104
-203.769
-169.658
-138.089
-111.187
-90.015
-74.931
-65.655
-61.123
-60.314
-61.943
-63.936
-64.47
-62.523
-57.587
-49.852
-40.062
-28.871
-17.152
-6.221
2.942
9.816
14.177
16.246
16.447
15.129
12.748
9.884
6.926
4.11
1.609
-0.527
-2.24
-3.423
-4.042
-4.123
-3.67
-2.695
-1.226
0.716
3.069
5.737
8.649
11.751
14.995
18.35
21.758
25.134
28.391
31.438
34.203
36.639
38.712
40.405
41.721
42.679
43.316
43.681
43.816
43.757
43.535
43.173
42.704
42.171
41.622
41.113
40.692
40.4
40.274
40.346
40.645
41.191
42.002
43.082
44.44
46.089
48.039
50.309
52.917
55.871
59.171
62.811
66.781
71.064
75.643
80.489
85.567
90.839
96.274
101.844
107.528
113.301
119.141
125.017
130.893
136.752
142.593
148.422
154.256
160.115
166.017
171.998
178.115
184.407
190.897
197.59
204.458
211.475
218.609
225.828
233.095
240.344
247.472
254.368
260.908
266.962
272.401
277.069
280.774
283.362
284.717
284.761
283.472
280.825
276.8
271.393
264.618
256.525
247.211
236.775
225.325
212.993
199.925
186.315
172.413
158.423
144.502
130.775
117.317
104.212
91.557
79.426
67.871
56.928
46.608
36.935
27.95
19.656
12.023
4.978
-1.612
-7.836
-13.745
-19.373
-24.727
-29.82
-34.688
-39.339
-43.762
-47.957
-51.922
-55.682
-59.292
-62.773
-66.116
-69.288
-72.218
-74.865
-77.214
-79.257
-80.991
-82.419
-83.539
-84.369
-84.949
-85.305
-85.452
-85.396
-85.118
-84.623
-83.933
-83.08
-82.108
-81.057
-79.95
-78.819
-77.693
-76.596
-75.55
-74.561
-73.627
-72.75
-71.938
-71.199
-70.549
-69.995
-69.539
-69.179
-68.913
-68.735
-68.641
-68.623
-68.668
-68.768
-68.914
-69.1
-69.325
-69.583
-69.867
-70.171
-70.488
-70.812
-71.136
-71.451
-71.749
-72.021
-72.26
-72.459
-72.613
-72.718
-72.767
-72.758
-72.687
-72.552
-72.351
-72.083
-71.747
-71.344
-70.875
-70.343
-69.752
-69.106
-68.411
-67.673
-66.898
-66.095
-65.27
-64.43
-63.584
-62.737
-61.898
-61.074
-60.271
-59.497
-58.759
-58.066
-57.424
-56.84
-56.322
-55.876
-55.507
-55.221
-55.023
-54.915
-54.902
-54.987
-55.17
-55.454
-55.838
-56.323
-56.907
-57.587
-58.359
-59.22
-60.163
-61.181
-62.27
-63.419
-64.623
-65.872
-67.158
-68.474
-69.81
-71.158
-72.509
-73.854
-75.185
-76.492
-77.767
-79.002
-80.188
-81.318
-82.385
-83.382
-84.303
-85.142
-85.894
-86.555
-87.121
-87.589
-87.957
-88.224
-88.39
-88.457
-88.426
-88.302
-88.088
-87.79
-87.414
-86.967
-86.457
-85.89
-85.277
-84.625
-83.943
-83.24
-82.525
-81.807
-81.095
-80.398
-79.723
-79.079
-78.474
-77.914
-77.406
-76.955
-76.569
-76.25
-76.004
-75.833
-75.74
-75.727
-75.795
-75.942
-76.168
-76.47
-76.844
-77.285
-77.787
-78.343
-78.945
-79.583
-80.247
-80.927
-81.613
-82.292
-82.953
-83.584
-84.173
-84.709
-85.18
-85.576
-85.886
-86.099
-86.207
-86.202
-86.073
-85.814
-85.419
-84.88
-84.193
-83.355
-82.36
-81.208
-79.896
-78.425
-76.795
-75.009
-73.07
-70.983
-68.754
-66.39
-63.9
-61.295
-58.586
-55.785
-52.905
-49.961
-46.967
-43.94
-40.893
-37.844
-34.807
-31.799
-28.835
-25.93
-23.102
-20.366
-17.741
-15.243
-12.891
-10.701
-8.689
-6.872
-5.263
-3.873
-2.713
-1.789
-1.11
-0.683
-0.515
-0.61
-0.971
-1.596
-2.484
-3.63
-5.028
-6.666
-8.525
-10.59
-12.848
-15.297
-17.937
-20.768
-23.78
-26.96
-30.292
-33.757
-37.333
-40.981
-44.646
-48.271
-51.803
-55.197
-58.417
-61.419
-64.138
-66.494
-68.405
-69.793
-70.614
-70.843
-70.449
-69.426
-67.787
-65.571
-62.888
-59.878
-56.672
-53.417
-50.258
-47.317
-44.819
-43.061
-42.243
-42.465
-43.609
-45.306
-47.231
-49.129
-50.602
-51.151
-50.365
-48.025
-44.625
-41.318
-39.158
-39.024
-41.542
-47.048
-55.775
-67.447
-80.328
-91.467
-97.657
-95.554
-82.537
-56.65
-15.745
41.497
114.339
200.438
296.162
396.692
497.705
594.899
682.676
755.699
809.88
841.975
850.462
835.483
796.968
735.74
654.683
557.457
448.5
333.064
215.701
100.352
-8.297
-106.031
-189.673
-256.648
-306.152
-338.767
-355.22
-356.674
-345.295
-323.743
-295.228
-263.349
-230.512
-198.495
-169.176
-143.938
-123.759
-108.997
-98.938
-92.182
-87.788
-84.821
-82.018
-78.507
-73.422
-66.236
-57.29
-47.312
-36.929
-26.93
-18.235
-11.385
-6.875
-4.988
-5.491
-8.018
-12.128
-17.2
-22.623
-27.964
-32.843
-36.994
-40.306
-42.678
-44.08
-44.564
-44.194
-43.027
-41.113
-38.497
-35.255
-31.495
-27.339
-22.932
-18.399
-13.859
-9.449
-5.277
-1.433
2.015
5.043
7.645
9.81
11.547
12.873
13.815
14.419
14.734
14.805
14.686
14.438
14.122
13.814
13.574
13.445
13.468
13.67
14.075
14.71
15.591
16.726
18.127
19.806
21.775
24.055
26.658
29.589
32.85
36.44
40.358
44.604
49.174
54.06
59.253
64.744
70.532
76.621
83.001
89.649
96.534
103.616
110.854
118.213
125.647
133.103
140.537
147.913
155.212
162.437
169.574
176.595
183.465
190.126
196.543
202.702
208.589
214.2
219.532
224.577
229.349
233.892
238.211
242.288
246.068
249.449
252.362
254.767
256.636
257.964
258.732
258.899
258.439
257.334
255.556
253.085
249.869
245.82
240.907
235.146
228.597
221.387
213.612
205.333
196.616
187.516
178.094
168.427
158.572
148.564
138.459
128.32
118.237
108.339
98.705
89.378
80.365
71.631
63.158
54.953
47.015
39.341
31.929
24.778
17.901
11.334
5.095
-0.815
-6.409
-11.723
-16.773
-21.558
-26.068
-30.279
-34.177
-37.759
-41.018
-43.945
-46.539
-48.804
-50.759
-52.433
-53.851
-55.029
-55.985
-56.728
-57.273
-57.641
-57.853
-57.928
-57.89
-57.756
-57.549
-57.291
-57.003
-56.7
-56.396
-56.1
-55.821
-55.569
-55.353
-55.18
-55.057
-54.99
-54.983
-55.043
-55.171
-55.371
-55.64
-55.979
-56.385
-56.856
-57.387
-57.973
-58.61
-59.292
-60.013
-60.767
-61.546
-62.345
-63.157
-63.974
-64.79
-65.599
-66.394
-67.169
-67.92
-68.64
-69.327
-69.975
-70.582
-71.145
-71.661
-72.128
-72.547
-72.915
-73.233
-73.502
-73.721
-73.893
-74.02
-74.105
-74.149
-74.158
-74.133
-74.08
-74.003
-73.906
-73.792
-73.667
-73.535
-73.401
-73.268
-73.14
-73.02
-72.913
-72.82
-72.743
-72.685
-72.647
-72.63
-72.634
-72.661
-72.708
-72.777
-72.867
-72.975
-73.1
-73.24
-73.393
-73.555
-73.722
-73.892
-74.061
-74.224
-74.378
-74.519
-74.643
-74.746
-74.824
-74.873
-74.89
-74.87
-74.81
-74.709
-74.563
-74.371
-74.133
-73.848
-73.517
-73.14
-72.719
-72.257
-71.755
-71.216
-70.644
-70.042
-69.416
-68.769
-68.107
-67.435
-66.76
-66.087
-65.423
-64.774
-64.147
-63.548
-62.982
-62.457
-61.979
-61.553
-61.184
-60.879
-60.643
-60.479
-60.393
-60.386
-60.462
-60.621
-60.865
-61.193
-61.603
-62.095
-62.664
-63.308
-64.023
-64.803
-65.644
-66.539
-67.481
-68.465
-69.48
-70.521
-71.579
-72.644
-73.709
-74.765
-75.804
-76.816
-77.794
-78.729
-79.614
-80.441
-81.201
-81.889
-82.497
-83.019
-83.451
-83.788
-84.025
-84.162
-84.195
-84.124
-83.949
-83.671
-83.292
-82.815
-82.242
-81.578
-80.827
-79.996
-79.089
-78.112
-77.073
-75.977
-74.833
-73.646
-72.424
-71.174
-69.902
-68.615
-67.319
-66.022
-64.728
-63.444
-62.174
-60.925
-59.699
-58.5
-57.332
-56.196
-55.095
-54.028
-52.997
-52.001
-51.039
-50.109
-49.208
-48.334
-47.482
-46.649
-45.83
-45.019
-44.213
-43.407
-42.596
-41.775
-40.941
-40.089
-39.217
-38.322
-37.4
-36.452
-35.474
-34.467
-33.432
-32.369
-31.28
-30.168
-29.039
-27.899
-26.758
-25.622
-24.502
-23.409
-22.354
-21.349
-20.404
-19.529
-18.732
-18.025
-17.418
-16.924
-16.557
-16.326
-16.242
-16.314
-16.549
-16.955
-17.534
-18.281
-19.192
-20.266
-21.506
-22.926
-24.535
-26.334
-28.324
-30.497
-32.841
-35.343
-37.972
-40.684
-43.435
-46.178
-48.877
-51.507
-54.036
-56.421
-58.604
-60.509
-62.071
-63.237
-63.968
-64.235
-64.028
-63.355
-62.259
-60.817
-59.112
-57.246
-55.313
-53.415
-51.675
-50.207
-49.19
-48.867
-49.404
-50.876
-53.178
-55.971
-58.878
-61.562
-63.561
-64.338
-63.48
-60.775
-56.676
-52.285
-48.705
-46.964
-47.824
-51.722
-59.015
-69.561
-81.781
-92.918
-99.789
-98.906
-87.612
-63.937
-25.546
29.038
99.336
183.34
277.351
376.322
475.929
571.84
658.203
729.555
781.481
810.312
814.822
795.572
752.704
687.447
603.276
504.229
395.223
282.094
169.147
59.96
-41.159
-130.878
-207.08
-268.063
-313.65
-345.13
-363.4
-369.527
-365.265
-352.085
-331.778
-306.629
-278.282
-247.748
-216.227
-184.992
-155.504
-129.325
-107.164
-88.951
-74.476
-63.497
-55.65
-50.213
-45.771
-40.881
-34.847
-27.531
-19.177
-10.173
-0.775
8.542
16.831
23.266
27.469
29.378
29.291
27.636
24.685
20.799
16.508
12.247
8.359
5.098
2.544
0.717
-0.349
-0.676
-0.323
0.666
2.219
4.251
6.693
9.456
12.461
15.648
18.954
22.301
25.598
28.742
31.632
34.208
36.434
38.285
39.752
40.838
41.565
41.977
42.129
42.072
41.852
41.505
41.071
40.594
40.129
39.736
39.472
39.385
39.514
39.895
40.561
41.539
42.844
44.478
46.455
48.787
51.488
54.575
58.045
61.882
66.099
70.708
75.667
80.939
86.492
92.28
98.316
104.642
111.209
117.942
124.971
132.45
140.247
148.346
156.748
165.042
174.216
185.224
196.613
207.916
216.491
219.183
219.403
219.411
222.591
233.607
248.262
262.992
275.346
281.298
283.666
285.314
286.854
290.022
293.767
296.751
299.203
300.936
302.024
302.719
302.837
302.231
300.943
298.982
296.333
293.004
289.016
284.383
279.147
273.354
267.015
260.139
252.758
244.9
236.594
227.878
218.782
209.338
199.587
189.57
179.327
168.898
158.325
147.648
136.909
126.147
115.403
104.714
94.12
83.656
73.357
63.258
53.39
43.784
34.466
25.463
16.797
8.49
0.559
-6.98
-14.114
-20.834
-27.132
-33.003
-38.446
-43.461
-48.051
-52.222
-55.983
-59.343
-62.316
-64.916
-67.158
-69.06
-70.64
-71.917
-72.911
-73.643
-74.132
-74.4
-74.469
-74.359
-74.092
-73.687
-73.166
-72.548
-71.852
-71.096
-70.296
-69.468
-68.627
-67.787
-66.959
-66.154
-65.383
-64.652
-63.969
-63.338
-62.762
-62.244
-61.783
-61.38
-61.03
-60.732
-60.483
-60.276
-60.107
-59.972
-59.864
-59.777
-59.706
-59.643
-59.584
-59.52
-59.447
-59.359
-59.248
-59.112
-58.943
-58.739
-58.495
-58.207
-57.873
-57.49
-57.056
-56.57
-56.03
-55.439
-54.795
-54.102
-53.361
-52.577
-51.753
-50.895
-50.007
-49.096
-48.168
-47.228
-46.282
-45.337
-44.399
-43.474
-42.567
-41.685
-40.833
-40.017
-39.241
-38.51
-37.829
-37.202
-36.631
-36.121
-35.675
-35.294
-34.981
-34.739
-34.569
-34.472
-34.45
-34.501
-34.627
-34.825
-35.095
-35.435
-35.841
-36.312
-36.843
-37.431
-38.072
-38.762
-39.498
-40.275
-41.089
-41.936
-42.812
-43.713
-44.634
-45.572
-46.524
-47.485
-48.452
-49.423
-50.393
-51.361
-52.322
-53.275
-54.216
-55.143
-56.053
-56.943
-57.811
-58.655
-59.474
-60.265
-61.027
-61.759
-62.462
-63.133
-63.774
-64.383
-64.961
-65.508
-66.024
-66.511
-66.967
-67.395
-67.795
-68.168
-68.514
-68.834
-69.13
-69.402
-69.65
-69.877
-70.083
-70.269
-70.437
-70.588
-70.724
-70.848
-70.96
-71.062
-71.158
-71.249
-71.337
-71.425
-71.514
-71.607
-71.705
-71.811
-71.926
-72.053
-72.191
-72.344
-72.512
-72.696
-72.898
-73.117
-73.356
-73.614
-73.892
-74.19
-74.508
-74.846
-75.203
-75.579
-75.972
-76.38
-76.802
-77.236
-77.678
-78.127
-78.579
-79.03
-79.475
-79.911
-80.332
-80.733
-81.109
-81.455
-81.765
-82.034
-82.255
-82.425
-82.537
-82.586
-82.567
-82.475
-82.305
-82.052
-81.711
-81.279
-80.751
-80.124
-79.396
-78.564
-77.627
-76.582
-75.43
-74.172
-72.807
-71.338
-69.765
-68.094
-66.328
-64.472
-62.533
-60.518
-58.435
-56.294
-54.104
-51.877
-49.624
-47.356
-45.086
-42.826
-40.59
-38.389
-36.24
-34.157
-32.158
-30.259
-28.478
-26.834
-25.344
-24.024
-22.891
-21.959
-21.239
-20.741
-20.475
-20.449
-20.674
-21.159
-21.909
-22.929
-24.219
-25.779
-27.605
-29.689
-32.016
-34.57
-37.337
-40.308
-43.486
-46.87
-50.451
-54.221
-58.163
-62.256
-66.475
-70.786
-75.137
-79.475
-83.745
-87.9
-91.9
-95.704
-99.258
-102.491
-105.322
-107.672
-109.479
-110.7
-111.307
-111.284
-110.64
-109.406
-107.638
-105.434
-102.899
-100.131
-97.261
-94.435
-91.791
-89.578
-88.09
-87.466
-87.766
-88.89
-90.441
-92.011
-93.256
-93.604
-92.469
-89.683
-85.241
-79.54
-73.963
-70.035
-68.741
-71.274
-77.458
-84.96
-93.265
-102.015
-110.932
-122.338
-132.136
-131.054
-110.217
-59.048
22.897
125.428
238.34
349.52
452.558
548.508
635.506
710.743
770.522
808.85
822.751
812.223
777.856
721.364
645.579
553.794
449.925
338.769
225.052
112.699
5.663
-92.122
-177.6
-248.386
-302.819
-340.701
-362.683
-369.337
-361.944
-342.843
-314.661
-280.39
-243.211
-205.479
-169.171
-136.685
-109.905
-89.523
-75.586
-67.374
-63.515
-62.981
-64.627
-66.625
-67.437
-66.297
-62.913
-57.605
-51.155
-44.118
-37.171
-31.42
-27.648
-26.213
-27.206
-30.297
-34.944
-40.711
-47.079
-53.372
-59.138
-64.076
-67.955
-70.76
-72.51
-73.197
-72.89
-71.693
-69.674
-66.923
-63.543
-59.61
-55.248
-50.607
-45.817
-41.027
-36.353
-31.875
-27.68
-23.819
-20.322
-17.206
-14.472
-12.105
-10.096
-8.422
-7.048
-5.94
-5.052
-4.33
-3.719
-3.151
-2.573
-1.944
-1.228
-0.4
0.56
1.671
2.944
4.379
5.985
7.772
9.751
11.939
14.349
16.988
19.868
22.996
26.378
30.024
33.937
38.115
42.56
47.274
52.262
57.535
63.095
68.927
75.02
81.36
87.921
94.676
101.581
108.574
115.607
122.65
129.677
136.678
143.639
150.537
157.357
164.087
170.718
177.247
183.663
189.942
196.083
202.106
208.05
213.987
219.948
225.918
231.877
237.79
243.61
249.301
254.792
259.983
264.798
269.174
273.058
276.418
279.178
281.218
282.414
282.622
281.753
279.786
276.699
272.476
267.133
260.696
253.239
244.896
235.749
225.839
215.222
203.954
192.153
180.011
167.697
155.371
143.164
131.151
119.42
108.076
97.178
86.766
76.847
67.382
58.392
49.965
42.141
34.941
28.331
22.198
16.47
11.108
6.07
1.339
-3.119
-7.353
-11.377
-15.175
-18.734
-22.03
-25.087
-27.979
-30.743
-33.386
-35.889
-38.185
-40.24
-42.054
-43.615
-44.912
-45.939
-46.68
-47.152
-47.395
-47.437
-47.296
-46.976
-46.457
-45.738
-44.841
-43.794
-42.64
-41.414
-40.133
-38.825
-37.523
-36.25
-35.027
-33.864
-32.755
-31.701
-30.712
-29.798
-28.971
-28.241
-27.607
-27.07
-26.63
-26.283
-26.028
-25.857
-25.762
-25.736
-25.775
-25.875
-26.036
-26.255
-26.528
-26.852
-27.222
-27.634
-28.083
-28.566
-29.076
-29.608
-30.159
-30.725
-31.305
-31.896
-32.496
-33.103
-33.716
-34.335
-34.956
-35.581
-36.208
-36.837
-37.468
-38.102
-38.74
-39.381
-40.029
-40.683
-41.346
-42.02
-42.705
-43.403
-44.115
-44.842
-45.584
-46.342
-47.115
-47.903
-48.705
-49.52
-50.348
-51.186
-52.032
-52.884
-53.739
-54.594
-55.445
-56.289
-57.122
-57.939
-58.738
-59.514
-60.264
-60.986
-61.675
-62.33
-62.946
-63.52
-64.051
-64.535
-64.969
-65.352
-65.681
-65.956
-66.175
-66.337
-66.442
-66.491
-66.484
-66.422
-66.307
-66.141
-65.926
-65.665
-65.361
-65.019
-64.643
-64.238
-63.808
-63.358
-62.894
-62.419
-61.939
-61.458
-60.98
-60.51
-60.05
-59.605
-59.178
-58.773
-58.392
-58.038
-57.715
-57.424
-57.167
-56.946
-56.761
-56.614
-56.505
-56.435
-56.402
-56.407
-56.448
-56.526
-56.638
-56.783
-56.958
-57.16
-57.387
-57.635
-57.901
-58.182
-58.475
-58.776
-59.083
-59.393
-59.703
-60.011
-60.315
-60.612
-60.9
-61.177
-61.44
-61.689
-61.922
-62.138
-62.336
-62.515
-62.675
-62.815
-62.936
-63.036
-63.116
-63.174
-63.212
-63.228
-63.222
-63.196
-63.149
-63.08
-62.992
-62.883
-62.754
-62.605
-62.436
-62.245
-62.033
-61.798
-61.54
-61.258
-60.951
-60.618
-60.258
-59.869
-59.451
-59.002
-58.518
-57.998
-57.438
-56.837
-56.192
-55.5
-54.759
-53.967
-53.122
-52.222
-51.265
-50.251
-49.178
-48.045
-46.851
-45.597
-44.282
-42.909
-41.478
-39.991
-38.451
-36.861
-35.225
-33.547
-31.831
-30.081
-28.304
-26.505
-24.69
-22.866
-21.041
-19.226
-17.432
-15.671
-13.957
-12.303
-10.724
-9.234
-7.848
-6.578
-5.434
-4.427
-3.568
-2.865
-2.331
-1.978
-1.815
-1.853
-2.097
-2.556
-3.232
-4.128
-5.237
-6.553
-8.07
-9.788
-11.72
-13.871
-16.246
-18.842
-21.653
-24.664
-27.852
-31.183
-34.604
-38.063
-41.506
-44.887
-48.175
-51.335
-54.326
-57.092
-59.562
-61.667
-63.356
-64.584
-65.32
-65.567
-65.346
-64.723
-63.805
-62.687
-61.469
-60.259
-59.157
-58.286
-57.779
-57.762
-58.406
-59.943
-62.499
-66.04
-70.355
-74.969
-79.356
-83.069
-85.573
-86.215
-84.626
-80.931
-75.792
-70.521
-66.482
-64.481
-65.097
-68.926
-75.924
-85.002
-94.029
-99.648
-98.153
-86.85
-63.617
-26.295
26.35
94.03
175.07
265.865
361.591
458.078
551.2
635.938
707.563
762.151
796.374
808.613
798.78
766.552
712.408
638.646
548.402
445.729
335.818
223.59
113.432
10.427
-81.003
-157.887
-218.033
-260.914
-287.832
-300.637
-301.411
-293.094
-278.335
-259.248
-238.157
-216.385
-194.16
-171.602
-148.868
-126.336
-104.965
-85.725
-69.147
-54.765
-42.452
-33.807
-29.189
-30.488
-39.072
-50.126
-60.791
-67.157
-64.235
-56.036
-45.943
-36.758
-33.496
-34.192
-36.335
-39.365
-41.282
-42.761
-44.936
-47.229
-49.277
-50.619
-50.741
-49.731
-47.857
-45.192
-41.801
-37.802
-33.296
-28.394
-23.246
-17.978
-12.698
-7.528
-2.547
2.187
6.611
10.677
14.332
17.558
20.368
22.773
24.784
26.405
27.634
28.496
29.041
29.328
29.422
29.379
29.233
29.024
28.791
28.567
28.38
28.251
28.185
28.195
28.303
28.53
28.904
29.45
30.181
31.115
32.267
33.654
35.295
37.208
39.402
41.888
44.679
47.786
51.228
55.022
59.176
63.686
68.547
73.745
79.264
85.082
91.163
97.459
103.924
110.513
117.192
123.947
130.759
137.603
144.457
151.29
158.087
164.857
171.598
178.302
184.969
191.593
198.195
204.833
211.543
218.348
225.248
232.193
239.136
246.032
252.811
259.402
265.719
271.627
277.017
281.814
285.933
289.308
291.846
293.396
293.831
293.058
291.01
287.685
283.101
277.27
270.253
262.127
252.987
242.989
232.268
220.908
208.994
196.601
183.809
170.78
157.688
144.664
131.829
119.26
107.001
95.122
83.654
72.604
61.97
51.709
41.781
32.21
23.028
14.278
6.014
-1.786
-9.187
-16.216
-22.902
-29.258
-35.27
-40.95
-46.313
-51.34
-56.009
-60.284
-64.126
-67.545
-70.573
-73.249
-75.625
-77.713
-79.484
-80.936
-82.069
-82.887
-83.414
-83.654
-83.605
-83.288
-82.74
-81.998
-81.106
-80.085
-78.941
-77.68
-76.308
-74.84
-73.316
-71.763
-70.201
-68.654
-67.142
-65.686
-64.317
-63.049
-61.885
-60.828
-59.879
-59.043
-58.329
-57.744
-57.29
-56.965
-56.765
-56.687
-56.728
-56.879
-57.134
-57.483
-57.913
-58.415
-58.982
-59.605
-60.277
-60.987
-61.724
-62.479
-63.244
-64.009
-64.764
-65.5
-66.206
-66.876
-67.501
-68.075
-68.591
-69.043
-69.426
-69.736
-69.968
-70.121
-70.19
-70.176
-70.077
-69.894
-69.626
-69.276
-68.846
-68.339
-67.76
-67.112
-66.401
-65.633
-64.815
-63.952
-63.052
-62.121
-61.168
-60.2
-59.222
-58.244
-57.273
-56.315
-55.379
-54.471
-53.597
-52.765
-51.98
-51.247
-50.573
-49.961
-49.416
-48.943
-48.545
-48.225
-47.986
-47.829
-47.757
-47.768
-47.864
-48.043
-48.304
-48.643
-49.058
-49.546
-50.101
-50.719
-51.394
-52.122
-52.896
-53.709
-54.555
-55.427
-56.318
-57.221
-58.13
-59.038
-59.937
-60.822
-61.685
-62.521
-63.323
-64.085
-64.801
-65.467
-66.077
-66.626
-67.109
-67.524
-67.868
-68.137
-68.33
-68.447
-68.486
-68.449
-68.336
-68.149
-67.891
-67.565
-67.174
-66.723
-66.216
-65.659
-65.056
-64.414
-63.737
-63.033
-62.307
-61.564
-60.811
-60.054
-59.297
-58.548
-57.811
-57.092
-56.396
-55.728
-55.092
-54.492
-53.933
-53.418
-52.948
-52.527
-52.155
-51.835
-51.565
-51.347
-51.178
-51.058
-50.983
-50.952
-50.959
-51.001
-51.074
-51.172
-51.29
-51.422
-51.563
-51.707
-51.848
-51.98
-52.096
-52.192
-52.26
-52.295
-52.291
-52.244
-52.149
-52
-51.793
-51.526
-51.194
-50.794
-50.324
-49.781
-49.164
-48.472
-47.703
-46.858
-45.939
-44.946
-43.882
-42.75
-41.553
-40.297
-38.985
-37.623
-36.217
-34.772
-33.294
-31.79
-30.268
-28.735
-27.198
-25.665
-24.144
-22.644
-21.173
-19.739
-18.349
-17.013
-15.738
-14.533
-13.405
-12.362
-11.416
-10.575
-9.853
-9.258
-8.801
-8.495
-8.348
-8.37
-8.569
-8.949
-9.515
-10.271
-11.219
-12.365
-13.715
-15.272
-17.04
-19.02
-21.212
-23.616
-26.228
-29.035
-32.027
-35.191
-38.524
-42.03
-45.711
-49.564
-53.585
-57.763
-62.08
-66.515
-71.031
-75.575
-80.094
-84.539
-88.864
-93.04
-97.035
-100.809
-104.313
-107.479
-110.247
-112.571
-114.41
-115.733
-116.544
-116.86
-116.744
-116.305
-115.629
-114.808
-113.948
-113.135
-112.501
-112.195
-112.338
-113.111
-114.738
-117.35
-120.975
-125.451
-130.335
-135.121
-139.343
-142.418
-143.75
-142.993
-140.109
-135.686
-130.947
-127.185
-125.469
-126.619
-131.179
-139.165
-149.83
-161.182
-170.062
-172.887
-166.245
-147.429
-114.29
-65.249
0.047
80.234
172.322
271.849
373.695
473.264
565.884
646.495
710.759
755.223
777.341
776.599
753.599
708.58
642.829
559.122
460.768
352.075
238.168
123.367
11.748
-91.704
-182.459
-258.414
-318.234
-360.307
-385.684
-393.135
-381.687
-358.458
-329.242
-301.036
-281.912
-268.97
-258.88
-249.311
-235.68
-220.007
-204.368
-188.293
-172.567
-156.02
-137.733
-118.536
-99.059
-80.216
-62.986
-47.944
-35.599
-26.207
-19.707
-15.873
-14.349
-14.832
-17.04
-20.602
-25.142
-30.291
-35.697
-41.103
-46.286
-50.979
-54.939
-57.989
-60.007
-60.956
-60.855
-59.724
-57.609
-54.589
-50.764
-46.27
-41.249
-35.833
-30.16
-24.364
-18.576
-12.952
-7.617
-2.656
1.876
5.955
9.583
12.755
15.485
17.809
19.772
21.421
22.805
23.962
24.939
25.791
26.579
27.371
28.223
29.173
30.254
31.49
32.899
34.496
36.289
38.279
40.47
42.871
45.492
48.348
51.45
54.806
58.419
62.295
66.432
70.826
75.474
80.371
85.516
90.914
96.563
102.455
108.574
114.904
121.423
128.103
134.903
141.766
148.635
155.465
162.227
168.906
175.482
181.934
188.241
194.382
200.358
206.178
211.844
217.351
222.695
227.89
232.974
238.012
243.059
248.137
253.239
258.336
263.408
268.431
273.368
278.159
282.702
286.896
290.654
293.902
296.56
298.524
299.664
299.837
298.926
296.864
293.613
289.162
283.484
276.573
268.448
259.168
248.851
237.617
225.577
212.854
199.588
185.956
172.152
158.362
144.737
131.392
118.428
105.933
94.012
82.753
72.225
62.476
53.503
45.301
37.856
31.128
25.046
19.501
14.387
9.614
5.128
0.891
-3.134
-6.982
-10.7
-14.323
-17.887
-21.428
-24.971
-28.543
-32.137
-35.723
-39.251
-42.643
-45.848
-48.844
-51.596
-54.082
-56.333
-58.378
-60.239
-61.961
-63.521
-64.857
-65.995
-66.987
-67.694
-67.97
-67.95
-67.67
-67.138
-66.756
-65.558
-62.596
-59.268
-56.001
-55.338
-60.314
-67.569
-74.871
-78.892
-75.06
-67.432
-59.446
-53.453
-53.339
-56.319
-59.564
-62.444
-63.232
-62.924
-62.8
-62.616
-62.537
-62.476
-62.174
-61.799
-61.484
-61.182
-60.88
-60.589
-60.302
-60.005
-59.692
-59.336
-58.905
-58.413
-57.869
-57.269
-56.616
-55.91
-55.15
-54.341
-53.491
-52.6
-51.67
-50.707
-49.715
-48.698
-47.663
-46.615
-45.561
-44.506
-43.456
-42.415
-41.391
-40.387
-39.409
-38.462
-37.551
-36.681
-35.855
-35.081
-34.361
-33.7
-33.101
-32.569
-32.104
-31.71
-31.386
-31.134
-30.954
-30.843
-30.803
-30.83
-30.922
-31.077
-31.292
-31.562
-31.885
-32.254
-32.667
-33.118
-33.602
-34.114
-34.65
-35.205
-35.775
-36.356
-36.944
-37.535
-38.127
-38.715
-39.297
-39.87
-40.432
-40.981
-41.515
-42.034
-42.535
-43.019
-43.485
-43.934
-44.367
-44.784
-45.185
-45.573
-45.949
-46.314
-46.67
-47.019
-47.363
-47.703
-48.042
-48.382
-48.723
-49.068
-49.418
-49.773
-50.133
-50.5
-50.872
-51.249
-51.63
-52.014
-52.398
-52.782
-53.164
-53.54
-53.909
-54.267
-54.612
-54.942
-55.253
-55.542
-55.807
-56.044
-56.252
-56.429
-56.572
-56.681
-56.753
-56.788
-56.785
-56.744
-56.666
-56.55
-56.398
-56.211
-55.991
-55.742
-55.465
-55.164
-54.842
-54.505
-54.157
-53.801
-53.443
-53.088
-52.74
-52.404
-52.085
-51.788
-51.516
-51.274
-51.066
-50.895
-50.764
-50.676
-50.633
-50.635
-50.682
-50.775
-50.914
-51.095
-51.317
-51.577
-51.872
-52.198
-52.549
-52.921
-53.306
-53.7
-54.093
-54.478
-54.847
-55.191
-55.501
-55.769
-55.984
-56.138
-56.224
-56.232
-56.155
-55.986
-55.717
-55.342
-54.855
-54.251
-53.526
-52.676
-51.699
-50.593
-49.358
-47.995
-46.504
-44.888
-43.15
-41.294
-39.326
-37.252
-35.077
-32.811
-30.463
-28.045
-25.566
-23.041
-20.484
-17.911
-15.339
-12.785
-10.267
-7.803
-5.413
-3.113
-0.922
1.145
3.074
4.848
6.455
7.879
9.11
10.132
10.934
11.505
11.834
11.912
11.735
11.301
10.61
9.663
8.459
6.991
5.258
3.26
1.001
-1.51
-4.26
-7.225
-10.368
-13.635
-16.971
-20.321
-23.631
-26.861
-29.965
-32.896
-35.607
-38.035
-40.129
-41.848
-43.149
-44.006
-44.408
-44.368
-43.953
-43.28
-42.466
-41.626
-40.848
-40.2
-39.787
-39.733
-40.148
-41.138
-42.767
-45.108
-48.327
-52.506
-57.541
-63.131
-68.74
-73.817
-77.952
-80.673
-81.375
-79.701
-75.68
-69.898
-63.434
-57.046
-51.363
-47.167
-44.899
-44.8
-45.185
-41.958
-32.731
-16.484
5.548
28.944
56.215
94.569
150.181
230.426
331.226
438.774
541.558
627.279
690.429
733.731
758.049
764.54
754.33
726.516
682.033
623.424
553.435
475.285
392.037
306.099
219.183
132.663
47.926
-33.556
-109.996
-179.46
-240.265
-290.865
-329.85
-356.18
-369.075
-368.392
-355.215
-331.446
-299.545
-262.476
-223.035
-183.887
-147.987
-117.808
-94.584
-78.637
-69.374
-65.388
-65.337
-67.699
-70.348
-71.442
-69.947
-65.434
-58.183
-49.009
-38.619
-27.845
-17.883
-9.644
-3.59
0.115
1.717
1.669
0.324
-1.928
-4.571
-7.252
-9.75
-11.894
-13.664
-15.063
-16.031
-16.526
-16.55
-16.088
-15.147
-13.776
-11.995
-9.843
-7.38
-4.644
-1.674
1.483
4.796
8.227
11.725
15.243
18.717
22.062
25.216
28.14
30.814
33.253
35.474
37.493
39.341
41.054
42.664
44.202
45.694
47.155
48.609
50.09
51.636
53.302
55.13
57.149
59.386
61.857
64.574
67.549
70.783
74.27
78.006
81.988
86.217
90.697
95.429
100.405
105.618
111.056
116.708
122.562
128.603
134.814
141.179
147.68
154.3
161.021
167.826
174.691
181.593
188.506
195.405
202.261
209.046
215.731
222.286
228.682
234.891
240.884
246.634
252.115
257.298
262.16
266.675
270.82
274.572
277.91
280.814
283.265
285.247
286.746
287.748
288.245
288.227
287.689
286.629
285.044
282.937
280.31
277.169
273.521
269.379
264.752
259.658
254.113
248.136
241.749
234.975
227.839
220.366
212.584
204.52
196.204
187.666
178.935
170.044
161.023
151.903
142.717
133.496
124.27
115.069
105.924
96.86
87.907
79.088
70.427
61.948
53.671
45.616
37.8
30.239
22.946
15.934
9.213
2.789
-3.332
-9.146
-14.651
-19.85
-24.742
-29.334
-33.63
-37.637
-41.363
-44.818
-48.014
-50.961
-53.673
-56.163
-58.447
-60.538
-62.451
-64.203
-65.808
-67.281
-68.637
-69.891
-71.056
-72.147
-73.176
-74.156
-75.1
-76.018
-76.92
-77.817
-78.717
-79.627
-80.552
-81.499
-82.47
-83.47
-84.499
-85.558
-86.647
-87.767
-88.913
-90.086
-91.28
-92.492
-93.718
-94.953
-96.191
-97.426
-98.653
-99.865
-101.056
-102.221
-103.353
-104.447
-105.497
-106.498
-107.446
-108.333
-109.154
-109.903
-110.575
-111.166
-111.677
-112.1
-112.427
-112.668
-112.829
-112.916
-112.938
-112.889
-112.749
-112.536
-112.267
-111.91
-111.44
-110.84
-110.083
-109.199
-108.248
-107.205
-106.021
-104.844
-103.849
-102.939
-102.131
-101.461
-100.571
-100.448
-102.052
-104.024
-105.957
-105.353
-99.219
-90.878
-82.545
-77.516
-80.319
-86.957
-94.04
-99.248
-98.743
-95.272
-91.619
-88.403
-87.321
-87.388
-87.336
-87.404
-87.43
-87.494
-87.85
-88.328
-88.79
-89.274
-89.783
-90.296
-90.811
-91.332
-91.863
-92.417
-93.011
-93.638
-94.288
-94.966
-95.675
-96.399
-97.115
-97.827
-98.544
-99.22
-99.825
-100.327
-100.688
-100.929
-101.104
-101.176
-101.081
-100.969
-101.018
-101.117
-101.273
-101.518
-101.46
-102.154
-104.628
-107.415
-110.068
-109.893
-103.661
-94.95
-86.144
-80.795
-83.779
-90.791
-98.181
-103.452
-102.472
-98.203
-93.649
-89.484
-87.539
-86.761
-85.79
-84.893
-83.901
-82.912
-82.208
-81.613
-80.989
-80.387
-79.824
-79.286
-78.781
-78.321
-77.916
-77.593
-77.385
-77.279
-77.263
-77.341
-77.511
-77.771
-78.12
-78.55
-79.053
-79.626
-80.266
-80.964
-81.716
-82.514
-83.351
-84.219
-85.109
-86.015
-86.927
-87.837
-88.735
-89.613
-90.46
-91.267
-92.025
-92.724
-93.354
-93.907
-94.374
-94.747
-95.019
-95.182
-95.231
-95.159
-94.963
-94.639
-94.184
-93.595
-92.873
-92.016
-91.026
-89.903
-88.65
-87.269
-85.764
-84.139
-82.397
-80.544
-78.583
-76.52
-74.362
-72.115
-69.786
-67.382
-64.911
-62.384
-59.808
-57.194
-54.552
-51.892
-49.226
-46.565
-43.921
-41.304
-38.725
-36.196
-33.728
-31.331
-29.015
-26.791
-24.671
-22.666
-20.788
-19.049
-17.461
-16.036
-14.785
-13.719
-12.844
-12.169
-11.697
-11.434
-11.387
-11.562
-11.964
-12.594
-13.453
-14.541
-15.854
-17.388
-19.132
-21.07
-23.19
-25.481
-27.94
-30.575
-33.388
-36.376
-39.53
-42.839
-46.29
-49.863
-53.529
-57.24
-60.946
-64.604
-68.173
-71.626
-74.924
-78.01
-80.812
-83.244
-85.223
-86.696
-87.631
-87.995
-87.779
-86.988
-85.639
-83.822
-81.658
-79.243
-76.687
-74.086
-71.529
-69.223
-67.468
-66.491
-66.394
-67.108
-68.369
-69.904
-71.449
-72.538
-72.545
-71.015
-67.9
-63.674
-59.213
-55.666
-54.277
-56.254
-62.85
-73.487
-85.541
-96.565
-104.453
-110.101
-116.436
-121.969
-120.876
-102.506
-54.605
27.309
140.857
276.677
419.377
554.714
668.475
749.587
795.104
808.459
799.005
776.688
746.283
706.864
654.01
585.451
502.699
410.004
313.375
216.641
121.74
30.999
-53.601
-129.907
-195.293
-248.178
-288.234
-315.12
-328.834
-330.078
-319.777
-299.747
-272.723
-241.268
-207.319
-172.702
-139.194
-108.628
-82.707
-62.132
-46.614
-35.496
-28.173
-24.099
-22.465
-21.909
-21.047
-19.161
-16.149
-12.32
-8.079
-3.686
0.465
3.606
5.053
4.538
2.129
-1.774
-6.645
-12.076
-17.656
-22.851
-27.237
-30.56
-32.682
-33.634
-33.517
-32.391
-30.35
-27.527
-24.037
-20
-15.563
-10.848
-6.003
-1.195
3.456
7.849
11.893
15.534
18.736
21.474
23.76
25.614
27.054
28.105
28.799
29.17
29.267
29.152
28.888
28.548
28.192
27.868
27.621
27.483
27.479
27.631
27.952
28.448
29.132
30.022
31.134
32.489
34.105
35.996
38.173
40.644
43.416
46.495
49.883
53.58
57.588
61.909
66.548
71.516
76.813
82.434
88.363
94.576
101.043
107.723
114.572
121.539
128.585
135.677
142.792
149.925
157.069
164.22
171.359
178.456
185.479
192.406
199.216
205.897
212.453
218.901
225.269
231.596
237.9
244.179
250.397
256.49
262.375
267.956
273.154
277.916
282.19
285.935
289.107
291.661
293.541
294.677
294.988
294.372
292.757
290.1
286.406
281.723
276.132
269.745
262.66
254.96
246.72
238
228.861
219.358
209.557
199.528
189.363
179.175
169.063
159.106
149.351
139.813
130.476
121.304
112.266
103.339
94.513
85.79
77.18
68.7
60.368
52.203
44.211
36.38
28.704
21.174
13.797
6.594
-0.405
-7.16
-13.634
-19.796
-25.619
-31.089
-36.199
-40.948
-45.343
-49.396
-53.116
-56.508
-59.576
-62.325
-64.761
-66.897
-68.746
-70.326
-71.655
-72.752
-73.638
-74.328
-74.841
-75.191
-75.39
-75.451
-75.383
-75.201
-74.916
-74.543
-74.096
-73.587
-73.03
-72.438
-71.824
-71.199
-70.572
-69.952
-69.348
-68.766
-68.213
-67.695
-67.216
-66.781
-66.394
-66.056
-65.77
-65.536
-65.354
-65.225
-65.146
-65.115
-65.131
-65.19
-65.288
-65.422
-65.589
-65.784
-66.003
-66.241
-66.495
-66.759
-67.029
-67.3
-67.566
-67.824
-68.069
-68.295
-68.499
-68.678
-68.827
-68.943
-69.023
-69.065
-69.067
-69.027
-68.943
-68.815
-68.643
-68.427
-68.167
-67.867
-67.527
-67.15
-66.739
-66.298
-65.829
-65.337
-64.826
-64.299
-63.761
-63.216
-62.669
-62.123
-61.582
-61.052
-60.534
-60.033
-59.553
-59.096
-58.665
-58.264
-57.895
-57.56
-57.262
-57.003
-56.784
-56.606
-56.47
-56.376
-56.325
-56.314
-56.342
-56.408
-56.51
-56.643
-56.806
-56.995
-57.205
-57.432
-57.673
-57.923
-58.177
-58.432
-58.683
-58.926
-59.158
-59.376
-59.577
-59.757
-59.914
-60.045
-60.15
-60.224
-60.267
-60.277
-60.252
-60.192
-60.095
-59.962
-59.792
-59.585
-59.344
-59.068
-58.76
-58.422
-58.057
-57.669
-57.26
-56.836
-56.399
-55.956
-55.51
-55.066
-54.628
-54.201
-53.788
-53.393
-53.02
-52.67
-52.347
-52.053
-51.79
-51.56
-51.364
-51.204
-51.081
-50.997
-50.952
-50.946
-50.981
-51.057
-51.173
-51.329
-51.524
-51.759
-52.03
-52.338
-52.678
-53.05
-53.45
-53.874
-54.319
-54.781
-55.257
-55.741
-56.232
-56.725
-57.217
-57.706
-58.19
-58.666
-59.132
-59.588
-60.031
-60.461
-60.875
-61.273
-61.654
-62.016
-62.359
-62.68
-62.98
-63.256
-63.508
-63.734
-63.932
-64.101
-64.24
-64.347
-64.421
-64.461
-64.467
-64.438
-64.373
-64.273
-64.137
-63.964
-63.756
-63.509
-63.223
-62.897
-62.529
-62.117
-61.657
-61.148
-60.587
-59.972
-59.3
-58.569
-57.778
-56.924
-56.006
-55.023
-53.974
-52.859
-51.678
-50.432
-49.122
-47.75
-46.319
-44.831
-43.29
-41.699
-40.063
-38.385
-36.671
-34.925
-33.151
-31.357
-29.551
-27.743
-25.941
-24.154
-22.386
-20.656
-18.983
-17.37
-15.822
-14.349
-12.955
-11.665
-10.515
-9.503
-8.625
-7.928
-7.453
-7.233
-7.314
-7.679
-8.277
-9.149
-10.361
-11.76
-13.167
-14.692
-16.318
-18.002
-20.133
-21.639
-21.485
-21.167
-21.136
-24.124
-33.396
-45.31
-57.427
-66.12
-66.395
-62.57
-58.295
-56.056
-60.013
-67.129
-74.316
-80.843
-84.779
-87.128
-89.217
-90.734
-91.826
-92.4
-92.192
-91.44
-90.394
-89.086
-87.607
-86.096
-84.655
-83.421
-82.555
-82.157
-82.398
-83.55
-85.763
-89.044
-93.197
-97.73
-102.137
-106.019
-108.846
-110.031
-109.239
-106.456
-102.319
-98.126
-95.131
-94.216
-96.002
-100.91
-108.866
-119.062
-129.468
-136.811
-137.525
-128.415
-106.932
-70.92
-18.839
49.676
133.372
229.131
332.477
438.463
542.216
638.48
721.863
787.641
831.907
852.148
847.707
818.911
766.773
693.801
603.62
500.401
389.26
275.477
163.511
57.662
-38.116
-121.19
-189.82
-243.044
-281.478
-306.613
-320.059
-323.864
-320.164
-310.64
-296.843
-280.251
-261.563
-241.123
-219.326
-196.687
-174.013
-152.221
-132.15
-114.255
-98.999
-86.803
-77.758
-71.404
-66.71
-62.629
-58.249
-53.123
-47.093
-40.086
-32.238
-24.017
-16.274
-9.743
-4.954
-2.125
-1.124
-1.722
-3.626
-6.443
-9.644
-12.805
-15.593
-17.725
-19.127
-19.78
-19.68
-18.893
-17.493
-15.517
-13.013
-10.052
-6.69
-3.013
0.886
4.956
9.118
13.284
17.358
21.209
24.747
27.931
30.733
33.145
35.157
36.761
37.97
38.828
39.38
39.671
39.74
39.612
39.329
38.943
38.509
38.092
37.743
37.494
37.377
37.419
37.648
38.088
38.758
39.661
40.805
42.206
43.878
45.842
48.11
50.685
53.572
56.774
60.298
64.157
68.354
72.883
77.734
82.895
88.347
94.073
100.043
106.21
112.53
118.957
125.452
131.992
138.557
145.122
151.659
158.141
164.552
170.902
177.207
183.473
189.715
195.946
202.192
208.513
214.958
221.553
228.317
235.223
242.233
249.313
256.416
263.479
270.416
277.105
283.403
289.201
294.39
298.865
302.514
305.181
306.734
307.08
306.149
303.919
300.393
295.574
289.488
282.207
273.828
264.495
254.381
243.617
232.326
220.635
208.671
196.596
184.56
172.671
161.02
149.672
138.679
128.098
117.971
108.294
99.048
90.186
81.639
73.375
65.37
57.603
50.052
42.687
35.482
28.432
21.551
14.846
8.328
2
-4.134
-10.047
-15.709
-21.083
-26.127
-30.817
-35.14
-39.083
-42.642
-45.815
-48.605
-51.026
-53.102
-54.852
-56.293
-57.443
-58.316
-58.936
-59.327
-59.514
-59.521
-59.373
-59.09
-58.693
-58.203
-57.637
-57.012
-56.339
-55.632
-54.901
-54.16
-53.419
-52.692
-51.99
-51.322
-50.698
-50.128
-49.62
-49.18
-48.812
-48.522
-48.31
-48.18
-48.131
-48.163
-48.276
-48.467
-48.734
-49.075
-49.486
-49.964
-50.502
-51.097
-51.743
-52.435
-53.165
-53.929
-54.72
-55.533
-56.362
-57.202
-58.047
-58.891
-59.731
-60.559
-61.372
-62.164
-62.93
-63.664
-64.362
-65.019
-65.632
-66.197
-66.71
-67.169
-67.572
-67.916
-68.2
-68.423
-68.582
-68.677
-68.707
-68.673
-68.575
-68.413
-68.189
-67.904
-67.561
-67.162
-66.708
-66.203
-65.649
-65.049
-64.405
-63.72
-62.999
-62.243
-61.458
-60.647
-59.815
-58.965
-58.104
-57.234
-56.36
-55.487
-54.619
-53.76
-52.914
-52.086
-51.28
-50.5
-49.75
-49.034
-48.356
-47.719
-47.126
-46.58
-46.082
-45.636
-45.243
-44.903
-44.62
-44.393
-44.223
-44.112
-44.059
-44.065
-44.128
-44.248
-44.423
-44.653
-44.933
-45.263
-45.641
-46.062
-46.526
-47.029
-47.567
-48.139
-48.741
-49.369
-50.02
-50.69
-51.375
-52.072
-52.776
-53.483
-54.191
-54.894
-55.591
-56.276
-56.948
-57.602
-58.234
-58.842
-59.423
-59.973
-60.49
-60.971
-61.414
-61.819
-62.182
-62.504
-62.783
-63.019
-63.212
-63.361
-63.465
-63.525
-63.539
-63.509
-63.434
-63.314
-63.15
-62.942
-62.692
-62.4
-62.068
-61.697
-61.288
-60.843
-60.364
-59.853
-59.311
-58.742
-58.147
-57.529
-56.89
-56.234
-55.562
-54.877
-54.179
-53.472
-52.756
-52.032
-51.301
-50.563
-49.819
-49.069
-48.314
-47.556
-46.795
-46.031
-45.266
-44.5
-43.733
-42.966
-42.198
-41.429
-40.658
-39.883
-39.105
-38.322
-37.533
-36.735
-35.927
-35.106
-34.271
-33.419
-32.547
-31.652
-30.731
-29.783
-28.806
-27.799
-26.761
-25.693
-24.594
-23.467
-22.313
-21.133
-19.929
-18.702
-17.454
-16.189
-14.907
-13.614
-12.312
-11.01
-9.714
-8.435
-7.181
-5.964
-4.793
-3.681
-2.638
-1.672
-0.793
-0.008
0.673
1.24
1.681
1.984
2.142
2.147
1.99
1.665
1.169
0.502
-0.331
-1.326
-2.484
-3.816
-5.337
-7.059
-8.988
-11.122
-13.46
-15.996
-18.719
-21.602
-24.6
-27.664
-30.75
-33.822
-36.848
-39.789
-42.587
-45.165
-47.447
-49.365
-50.873
-51.951
-52.567
-52.713
-52.403
-51.671
-50.617
-49.37
-48.052
-46.802
-45.766
-45.071
-44.93
-45.628
-47.352
-50.195
-54.05
-58.546
-63.346
-68.183
-72.688
-76.419
-79.018
-80.302
-80.73
-81.412
-83.383
-87.453
-94.109
-103.473
-115.541
-129.878
-144.779
-157.406
-164.624
-163.27
-150.986
-126.219
-87.439
-33.728
34.183
114.055
202.484
295.002
387.515
476.363
557.155
625.416
677.586
710.965
724.016
716.901
690.041
643.888
580.315
502.172
412.643
315.552
214.866
113.623
14.939
-77.698
-161.7
-235.023
-295.999
-344.083
-379.621
-402.877
-414.505
-415.689
-407.518
-391.597
-369.982
-344.364
-316.012
-286.246
-256.47
-228.291
-203.323
-182.335
-165.307
-151.954
-141.91
-134.731
-129.593
-125.034
-119.564
-112.396
-103.375
-92.771
-81.059
-68.673
-56.232
-44.782
-35.24
-28.071
-23.411
-21.046
-20.605
-21.796
-24.256
-27.453
-30.975
-34.543
-37.911
-40.986
-43.689
-45.876
-47.482
-48.494
-48.881
-48.648
-47.822
-46.408
-44.459
-42.055
-39.249
-36.109
-32.699
-29.07
-25.31
-21.514
-17.773
-14.19
-10.842
-7.777
-5.032
-2.617
-0.517
1.285
2.825
4.152
5.306
6.328
7.258
8.126
8.974
9.851
10.81
11.91
13.202
14.721
16.5
18.561
20.92
23.589
26.574
29.869
33.475
37.393
41.625
46.177
51.051
56.241
61.742
67.544
73.634
80.001
86.63
93.503
100.599
107.901
115.39
123.046
130.847
138.769
146.786
154.874
163.003
171.144
179.263
187.324
195.292
203.131
210.805
218.277
225.509
232.466
239.114
245.423
251.365
256.908
262.019
266.66
270.796
274.401
277.456
279.948
281.858
283.179
283.911
284.066
283.686
282.804
281.414
279.499
277.077
274.156
270.77
266.968
262.675
257.794
252.334
246.33
239.66
232.198
223.978
214.856
204.939
194.812
183.359
169.649
155.206
140.1
128.192
123.854
122.138
120.361
112.236
89.584
60.566
31.43
8.6
1.563
2.873
5.711
6.755
-0.249
-11.045
-21.055
-29.868
-35.434
-39.09
-42.662
-45.746
-48.412
-50.658
-52.266
-53.496
-54.614
-55.656
-56.663
-57.727
-58.912
-60.207
-61.592
-63.003
-64.322
-65.508
-66.551
-67.424
-68.134
-68.683
-69.054
-69.247
-69.26
-69.088
-68.735
-68.204
-67.492
-66.612
-65.589
-64.461
-63.288
-62.113
-60.965
-59.865
-58.826
-57.861
-56.981
-56.191
-55.486
-54.865
-54.329
-53.879
-53.521
-53.256
-53.077
-52.978
-52.945
-52.969
-53.043
-53.157
-53.303
-53.476
-53.667
-53.874
-54.096
-54.331
-54.574
-54.82
-55.065
-55.303
-55.53
-55.742
-55.933
-56.099
-56.238
-56.347
-56.425
-56.47
-56.482
-56.46
-56.403
-56.313
-56.19
-56.034
-55.846
-55.629
-55.383
-55.112
-54.817
-54.502
-54.17
-53.825
-53.47
-53.11
-52.749
-52.389
-52.035
-51.69
-51.357
-51.038
-50.738
-50.457
-50.199
-49.966
-49.761
-49.584
-49.438
-49.324
-49.241
-49.191
-49.173
-49.187
-49.232
-49.307
-49.412
-49.545
-49.704
-49.889
-50.098
-50.327
-50.575
-50.839
-51.115
-51.401
-51.692
-51.986
-52.279
-52.567
-52.846
-53.114
-53.369
-53.606
-53.824
-54.021
-54.194
-54.343
-54.466
-54.562
-54.63
-54.67
-54.682
-54.666
-54.623
-54.554
-54.461
-54.344
-54.206
-54.047
-53.87
-53.677
-53.471
-53.253
-53.026
-52.794
-52.559
-52.325
-52.095
-51.873
-51.663
-51.467
-51.29
-51.133
-51.001
-50.894
-50.816
-50.767
-50.75
-50.765
-50.813
-50.895
-51.009
-51.157
-51.336
-51.547
-51.786
-52.053
-52.345
-52.659
-52.993
-53.343
-53.708
-54.084
-54.468
-54.856
-55.244
-55.629
-56.006
-56.371
-56.719
-57.044
-57.342
-57.607
-57.835
-58.021
-58.16
-58.248
-58.281
-58.255
-58.167
-58.013
-57.79
-57.496
-57.129
-56.686
-56.166
-55.568
-54.89
-54.133
-53.296
-52.38
-51.385
-50.312
-49.162
-47.936
-46.635
-45.261
-43.816
-42.303
-40.725
-39.086
-37.391
-35.645
-33.854
-32.025
-30.164
-28.279
-26.378
-24.469
-22.559
-20.657
-18.774
-16.917
-15.097
-13.323
-11.607
-9.961
-8.398
-6.93
-5.57
-4.332
-3.228
-2.271
-1.473
-0.844
-0.391
-0.126
-0.055
-0.191
-0.541
-1.116
-1.92
-2.959
-4.235
-5.75
-7.501
-9.481
-11.679
-14.086
-16.697
-19.515
-22.543
-25.776
-29.209
-32.831
-36.622
-40.559
-44.611
-48.728
-52.863
-56.966
-60.993
-64.91
-68.68
-72.26
-75.597
-78.62
-81.262
-83.471
-85.198
-86.407
-87.099
-87.288
-87.023
-86.393
-85.47
-84.336
-83.102
-81.874
-80.774
-79.936
-79.472
-79.541
-80.39
-82.165
-84.862
-88.296
-92.045
-95.656
-98.747
-100.83
-101.296
-99.73
-96.111
-91.037
-85.582
-80.853
-77.921
-77.58
-80.483
-87.199
-96.185
-104.692
-110.972
-111.852
-106.681
-95.605
-72.275
-32.193
29.085
114.48
214.904
321.218
426.457
525.153
619.735
709.52
786.663
839.02
852.735
821.525
750.258
652.681
544.036
434.365
327.655
222.931
119.765
20.842
-69.643
-147.22
-209.669
-256.927
-290.214
-311.586
-322.816
-325.647
-321.931
-313.028
-300.033
-284.115
-265.855
-245.543
-223.631
-200.668
-177.455
-155.015
-134.331
-115.907
-100.218
-87.67
-78.293
-71.688
-66.957
-63.099
-59.229
-54.918
-50.006
-44.444
-38.386
-32.239
-26.739
-22.52
-19.99
-19.277
-20.189
-22.416
-25.634
-29.425
-33.233
-36.654
-39.4
-41.262
-42.236
-42.353
-41.626
-40.133
-37.967
-35.196
-31.912
-28.215
-24.178
-19.915
-15.543
-11.16
-6.901
-2.863
0.888
4.283
7.292
9.909
12.124
13.939
15.378
16.461
17.221
17.704
17.95
18.001
17.906
17.731
17.535
17.351
17.207
17.117
17.092
17.197
17.489
17.968
18.694
19.767
21.227
23.147
25.596
28.449
31.577
35.023
38.589
41.831
44.78
47.626
50.182
53.022
55.816
56.034
54.086
52.496
54.699
69.011
97.836
132.984
164.243
176.528
161.203
128.953
95.418
77.465
87.159
116.343
151.048
180.317
196.312
204.717
212.517
220.822
229.355
231.489
224.844
215.11
207.042
207.601
219.01
234.561
249.753
260.379
263.618
263.387
262.165
260.777
260.861
261.229
260.897
260.281
259.151
257.583
255.844
253.749
251.154
248.088
244.518
240.391
235.717
230.518
224.807
218.601
211.907
204.668
196.803
188.281
179.103
169.285
158.878
147.941
136.536
124.767
112.757
100.617
88.453
76.349
64.361
52.58
41.112
30.088
19.671
9.984
1.1
-6.926
-14.064
-20.319
-25.713
-30.317
-34.252
-37.614
-40.476
-42.895
-44.897
-46.532
-47.876
-49.013
-50.045
-51.057
-52.098
-53.219
-54.459
-55.826
-57.312
-58.871
-60.413
-61.878
-63.231
-64.452
-65.544
-66.501
-67.307
-67.952
-68.427
-68.723
-68.844
-68.786
-68.545
-68.133
-67.573
-66.906
-66.191
-65.473
-64.781
-64.137
-63.555
-63.046
-62.622
-62.286
-62.034
-61.863
-61.774
-61.77
-61.855
-62.031
-62.291
-62.627
-63.027
-63.482
-63.982
-64.521
-65.09
-65.683
-66.295
-66.922
-67.565
-68.22
-68.884
-69.55
-70.212
-70.864
-71.499
-72.111
-72.693
-73.238
-73.741
-74.198
-74.605
-74.959
-75.256
-75.495
-75.672
-75.789
-75.842
-75.832
-75.759
-75.624
-75.426
-75.169
-74.854
-74.484
-74.061
-73.589
-73.07
-72.508
-71.908
-71.272
-70.604
-69.908
-69.188
-68.448
-67.694
-66.93
-66.161
-65.391
-64.626
-63.871
-63.131
-62.408
-61.708
-61.032
-60.385
-59.769
-59.186
-58.637
-58.124
-57.647
-57.206
-56.802
-56.433
-56.098
-55.795
-55.523
-55.28
-55.062
-54.866
-54.692
-54.534
-54.39
-54.257
-54.132
-54.011
-53.891
-53.768
-53.639
-53.501
-53.35
-53.184
-52.998
-52.791
-52.56
-52.303
-52.019
-51.705
-51.36
-50.985
-50.579
-50.142
-49.677
-49.183
-48.665
-48.123
-47.562
-46.984
-46.394
-45.796
-45.193
-44.59
-43.991
-43.401
-42.825
-42.265
-41.728
-41.217
-40.735
-40.287
-39.876
-39.505
-39.178
-38.896
-38.662
-38.478
-38.345
-38.265
-38.238
-38.264
-38.344
-38.477
-38.66
-38.893
-39.172
-39.495
-39.857
-40.254
-40.68
-41.131
-41.6
-42.081
-42.567
-43.053
-43.531
-43.995
-44.438
-44.853
-45.234
-45.574
-45.869
-46.111
-46.296
-46.419
-46.476
-46.464
-46.379
-46.218
-45.979
-45.66
-45.261
-44.779
-44.214
-43.567
-42.837
-42.025
-41.132
-40.163
-39.118
-38.003
-36.821
-35.577
-34.277
-32.926
-31.531
-30.097
-28.631
-27.141
-25.631
-24.111
-22.586
-21.065
-19.553
-18.057
-16.584
-15.139
-13.729
-12.358
-11.03
-9.751
-8.524
-7.355
-6.247
-5.205
-4.233
-3.338
-2.524
-1.798
-1.168
-0.637
-0.214
0.097
0.29
0.361
0.307
0.126
-0.181
-0.618
-1.185
-1.886
-2.722
-3.696
-4.808
-6.058
-7.445
-8.966
-10.614
-12.382
-14.262
-16.251
-18.354
-20.576
-22.92
-25.388
-27.973
-30.663
-33.441
-36.276
-39.126
-41.945
-44.688
-47.313
-49.793
-52.096
-54.191
-56.04
-57.583
-58.765
-59.538
-59.858
-59.696
-59.05
-57.948
-56.448
-54.659
-52.682
-50.603
-48.526
-46.543
-44.766
-43.326
-42.347
-41.953
-42.308
-43.638
-46.07
-49.559
-53.844
-58.415
-62.736
-66.379
-68.875
-69.603
-68.184
-64.732
-59.881
-54.931
-51.146
-49.124
-49.238
-51.94
-57.181
-64.022
-70.509
-73.39
-69.192
-55.552
-30.662
7.301
59.55
126.131
205.579
294.469
388.156
482.513
573.751
657.392
728.751
783.725
819.107
833.273
826.466
799.063
751.218
684.507
601.762
506.363
402.505
294.345
184.89
77.64
-22.749
-112.345
-188.058
-247.396
-289.536
-314.591
-322.392
-314.057
-292.655
-261.808
-225.586
-188.333
-153.242
-122.654
-99.007
-83.611
-76.212
-75.69
-79.971
-86.287
-92.375
-96.661
-97.645
-94.519
-87.293
-76.452
-63.164
-49.14
-35.931
-24.547
-15.712
-9.726
-6.542
-6.015
-7.718
-10.955
-14.992
-19.286
-23.496
-27.457
-31.092
-34.251
-36.799
-38.651
-39.788
-40.226
-39.959
-38.963
-37.217
-34.737
-31.601
-27.923
-23.823
-19.397
-14.731
-9.895
-4.985
-0.122
4.594
9.08
13.282
17.18
20.747
23.963
26.823
29.344
31.556
33.505
35.229
36.755
38.114
39.342
40.481
41.587
42.705
43.868
45.103
46.434
47.88
49.462
51.192
53.073
55.109
57.304
59.663
62.198
64.914
67.815
70.906
74.185
77.652
81.306
85.145
89.167
93.367
97.741
102.28
106.977
111.824
116.815
121.943
127.202
132.576
138.032
143.547
149.095
154.653
160.192
165.685
171.09
176.384
181.56
186.608
191.524
196.288
200.864
205.219
209.321
213.151
216.715
220.005
222.999
225.692
228.085
230.191
232.038
233.617
234.87
235.75
236.211
236.229
235.813
234.959
233.659
231.9
229.656
226.92
223.709
220.011
215.802
211.052
205.714
199.801
193.395
186.562
179.365
171.856
164.055
156.004
147.763
139.379
130.9
122.362
113.787
105.222
96.743
88.419
80.336
72.531
64.989
57.708
50.695
43.958
37.522
31.397
25.573
20.058
14.874
10.04
5.579
1.498
-2.221
-5.592
-8.634
-11.352
-13.729
-15.762
-17.453
-18.808
-19.839
-20.554
-20.957
-21.065
-20.91
-20.524
-19.939
-19.186
-18.287
-17.267
-16.158
-14.988
-13.792
-12.601
-11.444
-10.352
-9.356
-8.485
-7.77
-7.236
-6.904
-6.792
-6.921
-7.307
-7.966
-8.912
-10.156
-11.706
-13.571
-15.757
-18.266
-21.1
-24.255
-27.725
-31.503
-35.579
-39.939
-44.569
-49.45
-54.564
-59.889
-65.402
-71.079
-76.894
-82.82
-88.83
-94.895
-100.988
-107.08
-113.141
-119.144
-125.061
-130.864
-136.527
-142.024
-147.331
-152.424
-157.281
-161.881
-166.204
-170.231
-173.946
-177.334
-180.382
-183.079
-185.416
-187.386
-188.985
-190.212
-191.066
-191.55
-191.67
-191.431
-190.844
-189.919
-188.668
-187.107
-185.251
-183.117
-180.724
-178.092
-175.241
-172.192
-168.967
-165.588
-162.077
-158.456
-154.749
-150.977
-147.162
-143.327
-139.493
-135.682
-131.912
-128.206
-124.58
-121.054
-117.643
-114.363
-111.227
-108.249
-105.437
-102.802
-100.35
-98.088
-96.019
-94.147
-92.471
-90.992
-89.707
-88.613
-87.706
-86.978
-86.424
-86.035
-85.802
-85.715
-85.763
-85.936
-86.222
-86.609
-87.084
-87.636
-88.251
-88.915
-89.617
-90.342
-91.078
-91.812
-92.533
-93.228
-93.888
-94.502
-95.061
-95.557
-95.982
-96.331
-96.598
-96.778
-96.867
-96.863
-96.765
-96.571
-96.283
-95.9
-95.426
-94.864
-94.216
-93.488
-92.685
-91.811
-90.873
-89.877
-88.83
-87.74
-86.614
-85.46
-84.286
-83.101
-81.913
-80.73
-79.56
-78.412
-77.291
-76.206
-75.162
-74.166
-73.222
-72.335
-71.511
-70.753
-70.064
-69.447
-68.904
-68.437
-68.045
-67.73
-67.49
-67.323
-67.229
-67.205
-67.246
-67.351
-67.515
-67.733
-67.999
-68.308
-68.653
-69.027
-69.422
-69.829
-70.242
-70.651
-71.048
-71.425
-71.774
-72.086
-72.355
-72.571
-72.729
-72.82
-72.836
-72.772
-72.619
-72.371
-72.023
-71.57
-71.007
-70.329
-69.533
-68.616
-67.576
-66.41
-65.118
-63.699
-62.153
-60.483
-58.691
-56.783
-54.763
-52.637
-50.412
-48.099
-45.705
-43.238
-40.706
-38.121
-35.494
-32.843
-30.176
-27.501
-24.845
-22.23
-19.681
-17.226
-14.876
-12.633
-10.534
-8.616
-6.862
-5.264
-3.814
-2.494
-1.344
-0.429
0.275
0.819
1.049
0.779
0.11
-0.964
-2.472
-4.016
-6.603
-11.217
-16.411
-21.737
-24.564
-21.743
-16.749
-11.905
-10.671
-17.787
-29.041
-40.827
-50.648
-54.427
-55.01
-55.308
-55.962
-58.712
-62.463
-65.804
-68.89
-71.486
-73.602
-75.368
-76.538
-76.995
-76.933
-76.701
-76.645
-76.984
-77.862
-79.353
-81.28
-83.349
-85.044
-85.511
-83.994
-79.899
-72.93
-63.268
-51.629
-39.042
-26.761
-16.291
-9.1
-6.836
-10.735
-21.212
-37.974
-59.819
-85.102
-112.124
-138.712
-161.703
-177.883
-184.345
-178.493
-159.071
-125.412
-76.622
-12.645
64.95
153.678
250.105
349.855
449.244
544.769
631.888
706.035
763.561
801.478
817.915
812.765
786.034
737.741
669.638
584.663
486.233
378.77
266.999
154.545
45.259
-56.282
-146.688
-223.367
-284.307
-329.394
-359.691
-375.896
-379.341
-372.45
-357.334
-336.471
-312.657
-287.385
-261.45
-236.118
-212.479
-191.156
-172.927
-157.819
-145.158
-134.798
-126.742
-120.469
-115.253
-110.38
-104.991
-98.814
-92.148
-85.178
-78.11
-71.389
-65.558
-61.083
-58.386
-57.546
-58.268
-60.198
-62.904
-65.886
-68.663
-70.874
-72.247
-72.615
-71.95
-70.262
-67.6
-64.067
-59.778
-54.833
-49.319
-43.339
-37.008
-30.468
-23.894
-17.438
-11.217
-5.316
0.2
5.277
9.875
13.977
17.596
20.756
23.478
25.782
27.691
29.237
30.474
31.462
32.268
32.961
33.599
34.23
34.896
35.635
36.475
37.441
38.55
39.813
41.246
42.871
44.704
46.764
49.065
51.618
54.432
57.513
60.864
64.488
68.386
72.559
77.008
81.73
86.721
91.975
97.489
103.253
109.259
115.494
121.935
128.556
135.333
142.241
149.252
156.34
163.47
170.605
177.727
184.814
191.843
198.797
205.639
212.333
218.845
225.141
231.201
237.013
242.547
247.777
252.693
257.275
261.524
265.443
268.991
272.127
274.822
277.039
278.772
280.019
280.764
281.001
280.714
279.886
278.522
276.629
274.189
271.196
267.63
263.468
258.754
253.534
247.839
241.714
235.18
228.253
220.975
213.385
205.513
197.398
189.061
180.526
171.846
163.066
154.24
145.426
136.632
127.865
119.146
110.49
101.92
93.468
85.142
76.953
68.927
61.088
53.459
46.068
38.919
32.018
25.369
18.973
12.849
7.016
1.48
-3.749
-8.667
-13.272
-17.557
-21.518
-25.161
-28.497
-31.534
-34.285
-36.755
-38.951
-40.884
-42.565
-44.006
-45.223
-46.227
-47.033
-47.654
-48.105
-48.402
-48.559
-48.59
-48.506
-48.32
-48.043
-47.688
-47.268
-46.792
-46.271
-45.716
-45.137
-44.541
-43.937
-43.333
-42.733
-42.144
-41.57
-41.016
-40.486
-39.982
-39.508
-39.065
-38.656
-38.282
-37.944
-37.642
-37.378
-37.153
-36.966
-36.817
-36.708
-36.638
-36.607
-36.615
-36.66
-36.743
-36.86
-37.012
-37.197
-37.412
-37.656
-37.928
-38.227
-38.552
-38.902
-39.274
-39.668
-40.082
-40.513
-40.96
-41.422
-41.896
-42.38
-42.872
-43.371
-43.876
-44.39
-44.907
-45.418
-45.917
-46.399
-46.859
-47.303
-47.728
-48.119
-48.479
-48.83
-49.188
-49.571
-49.977
-50.365
-50.72
-51.068
-51.385
-51.603
-51.665
-51.503
-51.098
-50.534
-49.837
-48.909
-47.829
-46.931
-46.299
-45.828
-45.567
-45.166
-45.24
-47.983
-53.099
-58.537
-61.149
-54.722
-39.25
-21.224
-6.933
-5.235
-17.327
-34.688
-50.725
-58.693
-56.765
-50.635
-44.043
-39.599
-38.387
-38.674
-38.966
-37.211
-33.658
-30.927
-32.211
-42.821
-61.653
-80.872
-93.703
-92.594
-77.595
-56.794
-33.328
-8.996
17.127
47.975
75.592
88.311
76.337
34.077
-28.883
-95.066
-146.476
-169.207
-162.468
-135.272
-101.877
-74.735
-58.545
-51.765
-48.107
-43.013
-36.354
-29.862
-26.33
-26.793
-29.921
-34.083
-38.182
-41.728
-44.577
-46.627
-47.703
-47.794
-47.257
-46.544
-45.85
-45.193
-44.525
-43.752
-42.89
-41.988
-41.012
-39.905
-38.65
-37.252
-35.762
-34.249
-32.747
-31.267
-29.817
-28.396
-27.014
-25.693
-24.447
-23.287
-22.216
-21.231
-20.329
-19.505
-18.757
-18.083
-17.475
-16.929
-16.441
-16.014
-15.653
-15.364
-15.152
-15.016
-14.955
-14.969
-15.057
-15.219
-15.457
-15.77
-16.158
-16.625
-17.173
-17.805
-18.525
-19.335
-20.236
-21.232
-22.323
-23.51
-24.793
-26.173
-27.653
-29.234
-30.918
-32.709
-34.609
-36.622
-38.748
-40.989
-43.343
-45.801
-48.353
-50.995
-53.725
-56.55
-59.475
-62.492
-65.59
-68.762
-72.004
-75.293
-78.577
-81.789
-84.851
-87.722
-90.415
-92.92
-95.192
-97.221
-99.013
-100.568
-101.945
-103.096
-103.821
-104.023
-103.731
-102.849
-101.202
-98.879
-95.997
-92.719
-89.885
-86.869
-81.51
-74.568
-67.687
-65.099
-75.286
-97.109
-122.602
-142.225
-140.715
-118.158
-88.561
-63.955
-59.884
-77.143
-100.383
-119.076
-123.462
-112.254
-95.779
-80.372
-69.575
-65.096
-64.455
-66.142
-69.765
-73.537
-74.279
-68.551
-53.263
-25.378
16.05
70.874
140.124
222.187
315.275
417.162
519.425
614.497
693.692
747.89
777.638
784.052
769.558
739.509
692.379
627.654
548.013
455.094
353.994
250.468
147.516
48.12
-44.57
-128.341
-201.095
-260.827
-306.873
-339.792
-359.972
-368.172
-365.755
-353.739
-333.678
-307.973
-278.534
-246.513
-213.222
-179.814
-147.573
-118.522
-93.834
-73.52
-57.507
-45.787
-38.111
-34.213
-33.177
-33.091
-32.718
-31.673
-29.751
-27.026
-23.62
-19.531
-15.283
-12.001
-10.327
-10.414
-12.203
-15.276
-19.278
-23.997
-28.957
-33.509
-37.229
-39.871
-41.361
-41.827
-41.347
-39.943
-37.711
-34.776
-31.271
-27.328
-23.045
-18.495
-13.774
-9.004
-4.33
0.113
4.24
7.996
11.355
14.313
16.861
19.005
20.775
22.203
23.33
24.194
24.826
25.264
25.559
25.767
25.961
26.2
26.526
26.973
27.568
28.331
29.279
30.424
31.764
33.302
35.046
37.006
39.197
41.631
44.316
47.258
50.461
53.928
57.662
61.661
65.918
70.43
75.195
80.21
85.481
91.003
96.762
102.745
108.931
115.288
121.783
128.366
134.982
141.592
148.161
154.662
161.085
167.415
173.637
179.743
185.706
191.51
197.141
202.578
207.811
212.846
217.698
222.405
227.018
231.552
236.013
240.386
244.626
248.69
252.528
256.072
259.283
262.117
264.525
266.473
267.91
268.759
268.94
268.337
266.831
264.346
260.829
256.255
250.644
244.016
236.409
227.886
218.478
208.231
197.208
185.463
173.085
160.199
146.945
133.507
120.072
106.786
93.777
81.15
68.966
57.298
46.204
35.726
25.94
16.9
8.64
1.197
-5.438
-11.309
-16.481
-21.068
-25.183
-28.908
-32.316
-35.456
-38.355
-41.058
-43.601
-46.013
-48.356
-50.677
-53.011
-55.4
-57.85
-60.344
-62.852
-65.306
-67.643
-69.827
-71.828
-73.635
-75.25
-76.668
-77.89
-78.925
-79.764
-80.403
-80.841
-81.073
-81.108
-80.968
-80.682
-80.295
-79.85
-79.376
-78.898
-78.432
-77.986
-77.568
-77.181
-76.82
-76.487
-76.183
-75.909
-75.671
-75.471
-75.304
-75.166
-75.048
-74.94
-74.837
-74.731
-74.618
-74.495
-74.359
-74.21
-74.05
-73.881
-73.702
-73.512
-73.308
-73.089
-72.852
-72.596
-72.319
-72.019
-71.697
-71.353
-70.987
-70.603
-70.2
-69.782
-69.35
-68.906
-68.453
-67.994
-67.53
-67.066
-66.603
-66.143
-65.69
-65.245
-64.811
-64.388
-63.978
-63.581
-63.198
-62.83
-62.476
-62.136
-61.807
-61.492
-61.193
-60.911
-60.648
-60.403
-60.172
-59.962
-59.779
-59.61
-59.449
-59.287
-59.113
-58.936
-58.777
-58.619
-58.444
-58.292
-58.191
-58.163
-58.244
-58.404
-58.586
-58.821
-59.171
-59.481
-59.57
-59.55
-59.412
-59.124
-59.079
-58.222
-55.524
-52.458
-49.471
-49.267
-55.083
-63.338
-71.645
-76.45
-72.869
-65.223
-57.172
-51.225
-51.526
-55.111
-58.976
-62.45
-63.703
-63.796
-64.095
-64.339
-64.701
-65.091
-65.229
-65.296
-65.436
-65.6
-65.776
-65.98
-66.206
-66.443
-66.683
-66.9
-67.06
-67.178
-67.264
-67.314
-67.33
-67.312
-67.259
-67.176
-67.068
-66.935
-66.779
-66.601
-66.405
-66.194
-65.973
-65.744
-65.513
-65.282
-65.056
-64.837
-64.629
-64.435
-64.258
-64.101
-63.965
-63.855
-63.772
-63.717
-63.693
-63.7
-63.739
-63.809
-63.91
-64.04
-64.196
-64.377
-64.578
-64.797
-65.029
-65.269
-65.514
-65.756
-65.991
-66.211
-66.409
-66.577
-66.708
-66.795
-66.829
-66.804
-66.712
-66.548
-66.304
-65.976
-65.557
-65.043
-64.43
-63.713
-62.89
-61.957
-60.914
-59.761
-58.498
-57.127
-55.652
-54.076
-52.405
-50.645
-48.801
-46.881
-44.893
-42.847
-40.754
-38.625
-36.472
-34.31
-32.157
-30.032
-27.951
-25.934
-23.999
-22.162
-20.444
-18.861
-17.431
-16.169
-15.09
-14.208
-13.538
-13.097
-12.899
-12.952
-13.263
-13.833
-14.665
-15.76
-17.114
-18.722
-20.579
-22.675
-25.009
-27.581
-30.385
-33.414
-36.655
-40.08
-43.661
-47.362
-51.139
-54.952
-58.752
-62.494
-66.13
-69.61
-72.888
-75.923
-78.676
-81.112
-83.185
-84.829
-85.985
-86.643
-86.829
-86.626
-86.098
-85.225
-84.084
-82.878
-81.929
-81.599
-82.064
-83.227
-85.028
-87.684
-91.203
-95.271
-99.136
-101.602
-101.911
-100.076
-96.228
-90.144
-81.966
-72.3
-62.42
-54.831
-51.636
-53.457
-60.53
-71.918
-84.792
-96.878
-106.314
-112.915
-118.941
-123.544
-120.712
-98.699
-45.165
43.275
159.43
286.82
408.131
514.127
602.6
675.391
733.778
775.703
797.613
797.387
775.497
733.535
673.921
599.821
514.183
420.386
322.561
223.951
127.191
35.429
-48.615
-122.872
-185.287
-234.579
-270.923
-294.854
-307.014
-308.857
-301.796
-286.865
-265.907
-241.053
-213.453
-184.012
-153.853
-123.752
-94.999
-69.637
-48.58
-31.846
-19.823
-12.628
-9.951
-11.483
-15.963
-21.232
-26.05
-29.954
-32.502
-33.637
-33.41
-31.798
-29.461
-27.58
-26.765
-27.14
-28.602
-30.769
-33.372
-36.283
-39.137
-41.378
-42.66
-42.823
-41.877
-40.01
-37.359
-33.986
-29.993
-25.537
-20.774
-15.879
-11.011
-6.242
-1.628
2.77
6.901
10.7
14.119
17.153
19.819
22.134
24.111
25.759
27.087
28.13
28.938
29.566
30.077
30.515
30.911
31.301
31.712
32.172
32.702
33.311
33.999
34.777
35.657
36.659
37.801
39.097
40.557
42.195
44.02
46.045
48.277
50.726
53.4
56.314
59.484
62.925
66.643
70.637
74.903
79.428
84.194
89.173
94.327
99.618
105.012
110.479
115.997
121.547
127.111
132.668
138.193
143.676
149.126
154.554
159.982
165.436
170.942
176.541
182.292
188.242
194.419
200.836
207.481
214.332
221.354
228.5
235.718
242.928
250.022
256.876
263.351
269.311
274.63
279.166
282.763
285.286
286.632
286.724
285.521
283.004
279.174
274.055
267.689
260.157
251.571
242.068
231.808
220.944
209.616
197.975
186.183
174.384
162.702
151.237
140.057
129.224
118.786
108.78
99.226
90.12
81.438
73.142
65.174
57.491
50.062
42.855
35.835
28.98
22.272
15.711
9.312
3.088
-2.951
-8.792
-14.42
-19.811
-24.939
-29.771
-34.275
-38.427
-42.213
-45.626
-48.66
-51.32
-53.611
-55.551
-57.163
-58.47
-59.493
-60.253
-60.771
-61.071
-61.181
-61.126
-60.932
-60.626
-60.229
-59.763
-59.248
-58.702
-58.141
-57.579
-57.028
-56.499
-56.003
-55.551
-55.154
-54.819
-54.553
-54.363
-54.254
-54.227
-54.286
-54.429
-54.656
-54.964
-55.351
-55.811
-56.341
-56.934
-57.583
-58.282
-59.023
-59.797
-60.595
-61.408
-62.227
-63.044
-63.848
-64.632
-65.387
-66.107
-66.782
-67.407
-67.975
-68.481
-68.921
-69.289
-69.584
-69.803
-69.946
-70.011
-69.999
-69.912
-69.751
-69.519
-69.22
-68.858
-68.436
-67.96
-67.436
-66.868
-66.263
-65.627
-64.968
-64.292
-63.605
-62.917
-62.232
-61.56
-60.906
-60.277
-59.68
-59.122
-58.609
-58.145
-57.737
-57.388
-57.103
-56.884
-56.733
-56.653
-56.643
-56.702
-56.831
-57.027
-57.288
-57.611
-57.993
-58.429
-58.915
-59.447
-60.02
-60.627
-61.265
-61.926
-62.605
-63.296
-63.994
-64.692
-65.384
-66.066
-66.731
-67.374
-67.99
-68.573
-69.119
-69.622
-70.079
-70.486
-70.839
-71.136
-71.376
-71.556
-71.678
-71.74
-71.745
-71.693
-71.588
-71.431
-71.227
-70.979
-70.692
-70.371
-70.019
-69.644
-69.25
-68.844
-68.431
-68.015
-67.604
-67.201
-66.812
-66.442
-66.096
-65.776
-65.489
-65.239
-65.028
-64.862
-64.742
-64.673
-64.655
-64.692
-64.785
-64.933
-65.138
-65.398
-65.712
-66.079
-66.497
-66.963
-67.473
-68.023
-68.609
-69.225
-69.867
-70.528
-71.202
-71.884
-72.567
-73.244
-73.911
-74.561
-75.189
-75.788
-76.354
-76.881
-77.363
-77.796
-78.175
-78.494
-78.75
-78.939
-79.056
-79.098
-79.062
-78.946
-78.746
-78.459
-78.085
-77.62
-77.064
-76.417
-75.677
-74.846
-73.925
-72.914
-71.817
-70.635
-69.372
-68.03
-66.613
-65.124
-63.568
-61.948
-60.269
-58.536
-56.754
-54.929
-53.066
-51.172
-49.252
-47.313
-45.361
-43.405
-41.452
-39.509
-37.586
-35.69
-33.834
-32.028
-30.284
-28.615
-27.035
-25.555
-24.19
-22.953
-21.857
-20.911
-20.126
-19.512
-19.076
-18.83
-18.781
-18.938
-19.31
-19.904
-20.727
-21.782
-23.07
-24.588
-26.33
-28.289
-30.464
-32.855
-35.463
-38.283
-41.313
-44.545
-47.967
-51.558
-55.286
-59.102
-62.956
-66.8
-70.589
-74.285
-77.85
-81.238
-84.402
-87.283
-89.827
-91.989
-93.721
-94.983
-95.757
-96.058
-95.939
-95.501
-94.835
-94.014
-93.131
-92.261
-91.49
-90.922
-90.647
-90.764
-91.439
-92.861
-95.132
-98.291
-102.233
-106.637
-111.102
-115.11
-117.949
-118.908
-117.604
-113.874
-107.837
-100.276
-92.29
-85.084
-80.446
-78.638
-77.662
-76.329
-73.327
-70.713
-74.474
-84.496
-95.493
-95.296
-65.875
0.377
101.684
229.806
368.464
505.94
633.418
738.612
813.547
853.477
857.912
835.773
796.298
743.9
679.64
601.027
507.08
401.162
289.282
177.863
71.684
-25.329
-110.394
-182.029
-238.72
-280.203
-307.878
-322.998
-327.058
-322.564
-311.389
-295.024
-275.546
-254.105
-230.9
-206.295
-180.624
-154.009
-127.432
-102.395
-79.494
-59.364
-42.933
-30.733
-23.067
-19.952
-20.361
-22.503
-25.324
-28.159
-30.368
-31.721
-32.046
-31.262
-29.959
-29.198
-29.538
-31.124
-33.909
-37.521
-41.648
-46.084
-50.375
-53.943
-56.442
-57.704
-57.72
-56.654
-54.622
-51.686
-47.979
-43.655
-38.849
-33.716
-28.38
-22.942
-17.534
-12.276
-7.273
-2.612
1.656
5.51
8.94
11.952
14.568
16.808
18.703
20.281
21.569
22.604
23.432
24.102
24.677
25.21
25.741
26.312
26.953
27.685
28.533
29.507
30.616
31.871
33.284
34.869
36.645
38.624
40.818
43.237
45.885
48.77
51.899
55.277
58.909
62.799
66.949
71.362
76.039
80.979
86.177
91.624
97.31
103.221
109.343
115.659
122.149
128.79
135.562
142.44
149.399
156.412
163.45
170.485
177.486
184.421
191.259
197.968
204.516
210.87
216.997
222.867
228.449
233.712
238.627
243.165
247.3
251.006
254.26
257.041
259.328
261.104
262.354
263.064
263.225
262.829
261.869
260.343
258.251
255.596
252.383
248.62
244.318
239.49
234.152
228.323
222.025
215.279
208.113
200.553
192.629
184.372
175.814
166.989
157.932
148.678
139.265
129.729
120.108
110.437
100.754
91.095
81.495
71.99
62.613
53.396
44.371
35.567
27.012
18.734
10.755
3.098
-4.217
-11.173
-17.754
-23.949
-29.746
-35.139
-40.123
-44.695
-48.855
-52.605
-55.951
-58.898
-61.455
-63.634
-65.447
-66.907
-68.032
-68.837
-69.341
-69.563
-69.523
-69.241
-68.738
-68.036
-67.155
-66.118
-64.946
-63.659
-62.28
-60.827
-59.322
-57.782
-56.225
-54.669
-53.129
-51.619
-50.152
-48.739
-47.39
-46.115
-44.919
-43.81
-42.789
-41.861
-41.027
-40.287
-39.639
-39.081
-38.611
-38.223
-37.912
-37.674
-37.502
-37.389
-37.328
-37.311
-37.332
-37.381
-37.453
-37.538
-37.629
-37.718
-37.798
-37.863
-37.905
-37.92
-37.901
-37.845
-37.747
-37.604
-37.414
-37.177
-36.891
-36.556
-36.175
-35.75
-35.282
-34.776
-34.236
-33.666
-33.072
-32.459
-31.834
-31.201
-30.567
-29.939
-29.323
-28.724
-28.149
-27.602
-27.091
-26.619
-26.191
-25.813
-25.488
-25.219
-25.01
-24.864
-24.782
-24.767
-24.818
-24.937
-25.122
-25.373
-25.688
-26.064
-26.497
-26.984
-27.521
-28.102
-28.723
-29.377
-30.06
-30.763
-31.482
-32.211
-32.942
-33.67
-34.389
-35.094
-35.78
-36.441
-37.074
-37.674
-38.239
-38.764
-39.247
-39.687
-40.08
-40.426
-40.724
-40.973
-41.172
-41.323
-41.426
-41.483
-41.496
-41.467
-41.399
-41.296
-41.162
-41.001
-40.818
-40.617
-40.404
-40.183
-39.959
-39.738
-39.524
-39.321
-39.135
-38.969
-38.826
-38.71
-38.623
-38.567
-38.544
-38.555
-38.602
-38.684
-38.803
-38.959
-39.152
-39.38
-39.645
-39.944
-40.276
-40.64
-41.033
-41.453
-41.898
-42.363
-42.845
-43.341
-43.846
-44.357
-44.869
-45.376
-45.876
-46.362
-46.832
-47.28
-47.703
-48.097
-48.458
-48.785
-49.075
-49.325
-49.533
-49.699
-49.819
-49.894
-49.921
-49.9
-49.829
-49.706
-49.531
-49.303
-49.021
-48.684
-48.292
-47.845
-47.343
-46.787
-46.177
-45.513
-44.797
-44.031
-43.215
-42.352
-41.443
-40.49
-39.496
-38.463
-37.393
-36.287
-35.148
-33.976
-32.775
-31.544
-30.285
-29.002
-27.694
-26.366
-25.021
-23.66
-22.289
-20.911
-19.531
-18.153
-16.783
-15.427
-14.091
-12.78
-11.502
-10.263
-9.074
-7.944
-6.883
-5.901
-5.008
-4.214
-3.529
-2.968
-2.54
-2.253
-2.116
-2.135
-2.321
-2.685
-3.236
-3.978
-4.917
-6.054
-7.392
-8.936
-10.687
-12.64
-14.788
-17.117
-19.623
-22.312
-25.188
-28.248
-31.486
-34.883
-38.428
-42.11
-45.906
-49.783
-53.7
-57.607
-61.458
-65.217
-68.851
-72.34
-75.645
-78.717
-81.489
-83.879
-85.831
-87.326
-88.354
-88.955
-89.145
-88.879
-88.267
-87.571
-87.027
-86.932
-87.384
-88.145
-89.256
-91.072
-93.623
-96.705
-99.842
-102.078
-103.098
-103.416
-103.054
-101.617
-98.988
-95.157
-91.101
-88.836
-89.21
-92.111
-97.798
-106.492
-118.504
-132.936
-145.753
-152.065
-149.616
-141.124
-132.28
-126.268
-118.988
-95.731
-41.026
52.687
182.775
329.041
467.608
582.204
661.176
708.237
734.122
743.861
742.452
728.483
694.751
639.068
562.297
467.805
362.633
252.957
142.505
34.586
-66.946
-158.372
-236.3
-297.976
-342.878
-372.077
-386.38
-386.945
-375.87
-355.82
-330.37
-303.398
-277.384
-253.524
-232.636
-215.382
-202.356
-193.429
-187.348
-182.169
-176.193
-168.68
-159.592
-148.86
-136.135
-121.391
-105.136
-88.495
-72.927
-59.268
-47.735
-38.417
-31.386
-26.664
-24.19
-23.566
-24.1
-25.295
-26.851
-28.594
-30.487
-32.435
-34.284
-35.921
-37.25
-38.168
-38.625
-38.575
-37.961
-36.784
-35.062
-32.844
-30.232
-27.329
-24.223
-20.982
-17.633
-14.203
-10.738
-7.303
-3.985
-0.879
1.963
4.508
6.73
8.625
10.197
11.462
12.473
13.29
13.964
14.539
15.042
15.496
15.934
16.397
16.938
17.612
18.461
19.516
20.802
22.344
24.176
26.308
28.725
31.41
34.348
37.544
41.032
44.821
48.879
53.227
57.924
63.014
68.55
74.528
80.855
87.5
94.547
101.862
109.078
116.11
123.008
129.68
136.47
142.561
145.8
146.786
147.385
150.941
163.513
184.265
207.197
226.173
232.522
226.291
215.526
206.418
205.856
214.581
226.581
238.316
247.174
252.549
256.873
261.085
265.04
268.737
271.741
273.947
275.65
276.901
277.61
277.735
277.233
276.013
273.973
271.014
267.047
262.062
256.141
249.372
241.868
233.734
225.05
215.897
206.345
196.457
186.29
175.907
165.38
154.8
144.279
133.916
123.79
113.952
104.416
95.173
86.185
77.425
68.871
60.51
52.348
44.392
36.655
29.152
21.9
14.902
8.141
1.608
-4.713
-10.819
-16.698
-22.327
-27.674
-32.711
-37.411
-41.758
-45.744
-49.37
-52.64
-55.568
-58.174
-60.472
-62.474
-64.191
-65.634
-66.815
-67.751
-68.463
-68.971
-69.298
-69.466
-69.498
-69.415
-69.233
-68.97
-68.638
-68.249
-67.812
-67.338
-66.837
-66.319
-65.795
-65.273
-64.761
-64.267
-63.798
-63.358
-62.952
-62.582
-62.249
-61.954
-61.697
-61.477
-61.293
-61.14
-61.017
-60.92
-60.846
-60.789
-60.746
-60.711
-60.681
-60.649
-60.612
-60.564
-60.501
-60.419
-60.313
-60.181
-60.019
-59.826
-59.6
-59.34
-59.045
-58.713
-58.345
-57.941
-57.5
-57.024
-56.514
-55.971
-55.398
-54.798
-54.173
-53.529
-52.868
-52.196
-51.517
-50.836
-50.158
-49.487
-48.828
-48.187
-47.567
-46.975
-46.414
-45.89
-45.406
-44.968
-44.578
-44.241
-43.959
-43.736
-43.572
-43.471
-43.434
-43.461
-43.554
-43.715
-43.942
-44.237
-44.6
-45.029
-45.525
-46.084
-46.706
-47.387
-48.124
-48.915
-49.755
-50.641
-51.57
-52.536
-53.536
-54.565
-55.619
-56.693
-57.781
-58.88
-59.983
-61.086
-62.184
-63.271
-64.343
-65.396
-66.426
-67.429
-68.4
-69.336
-70.233
-71.087
-71.894
-72.652
-73.357
-74.007
-74.599
-75.133
-75.606
-76.018
-76.37
-76.66
-76.89
-77.06
-77.171
-77.224
-77.222
-77.165
-77.056
-76.899
-76.697
-76.452
-76.168
-75.849
-75.499
-75.122
-74.72
-74.297
-73.858
-73.405
-72.943
-72.475
-72.005
-71.538
-71.075
-70.622
-70.18
-69.753
-69.342
-68.95
-68.577
-68.225
-67.895
-67.586
-67.299
-67.033
-66.787
-66.56
-66.35
-66.155
-65.972
-65.798
-65.629
-65.461
-65.292
-65.117
-64.932
-64.733
-64.518
-64.28
-64.017
-63.725
-63.398
-63.032
-62.622
-62.165
-61.656
-61.093
-60.471
-59.787
-59.041
-58.229
-57.35
-56.403
-55.387
-54.303
-53.149
-51.928
-50.642
-49.292
-47.882
-46.416
-44.899
-43.337
-41.735
-40.1
-38.437
-36.754
-35.057
-33.354
-31.653
-29.961
-28.289
-26.647
-25.048
-23.504
-22.029
-20.636
-19.338
-18.149
-17.081
-16.145
-15.349
-14.7
-14.206
-13.875
-13.717
-13.74
-13.951
-14.354
-14.954
-15.755
-16.758
-17.96
-19.352
-20.924
-22.672
-24.599
-26.715
-29.027
-31.536
-34.238
-37.124
-40.182
-43.389
-46.71
-50.09
-53.471
-56.797
-60.02
-63.103
-66.005
-68.669
-71.027
-73.003
-74.528
-75.553
-76.042
-75.978
-75.366
-74.238
-72.666
-70.757
-68.638
-66.453
-64.349
-62.46
-60.919
-59.866
-59.491
-60.054
-61.745
-64.565
-68.329
-72.726
-77.446
-82.219
-86.644
-90.03
-91.813
-91.987
-91.098
-89.992
-89.348
-89.623
-91.343
-95.198
-101.724
-109.256
-113.924
-113.478
-106.377
-93.12
-77.646
-56.719
-23.481
25.859
98.994
194.852
303.699
421.409
536.331
635.267
712.698
758.78
772.419
762.86
735.927
699.264
655.963
602.081
537.053
461.687
378.378
292.233
206.282
122.448
42.952
-30.937
-97.975
-156.735
-206.3
-246.039
-275.497
-294.578
-303.729
-303.574
-294.751
-278.557
-256.713
-230.599
-201.577
-171.183
-140.855
-112.351
-87.52
-67.113
-51.128
-39.68
-32.562
-29.245
-28.93
-30.01
-30.794
-30.519
-28.96
-26.043
-22.008
-17.102
-11.752
-6.954
-3.569
-1.93
-2.076
-3.725
-6.425
-9.842
-13.593
-17.137
-20.084
-22.19
-23.314
-23.512
-22.88
-21.474
-19.389
-16.732
-13.582
-10.037
-6.202
-2.171
1.93
5.973
9.864
13.522
16.884
19.905
22.545
24.79
26.651
28.149
29.302
30.127
30.644
30.883
30.888
30.713
30.418
30.068
29.715
29.407
29.187
29.086
29.132
29.346
29.741
30.322
31.098
32.08
33.281
34.714
36.39
38.316
40.5
42.946
45.662
48.65
51.914
55.456
59.273
63.359
67.714
72.336
77.223
82.377
87.79
93.445
99.326
105.41
111.664
118.048
124.51
130.992
137.451
143.851
150.168
156.392
162.507
168.502
174.37
180.09
185.647
191.029
196.215
201.191
205.964
210.549
214.991
219.35
223.646
227.884
232.051
236.095
239.966
243.597
246.893
249.783
252.208
254.108
255.455
256.218
256.338
255.754
254.378
252.099
248.858
244.622
239.375
233.152
226.009
218.026
209.338
200.063
190.293
180.12
169.603
158.798
147.792
136.669
125.528
114.492
103.654
93.09
82.876
73.042
63.604
54.551
45.83
37.396
29.227
21.311
13.654
6.269
-0.845
-7.688
-14.255
-20.559
-26.609
-32.412
-37.98
-43.31
-48.389
-53.196
-57.692
-61.84
-65.623
-69.028
-72.053
-74.704
-76.988
-78.915
-80.509
-81.785
-82.758
-83.444
-83.853
-84.002
-83.911
-83.601
-83.098
-82.427
-81.613
-80.676
-79.638
-78.516
-77.327
-76.086
-74.802
-73.487
-72.152
-70.809
-69.47
-68.147
-66.851
-65.591
-64.378
-63.221
-62.125
-61.097
-60.141
-59.259
-58.454
-57.727
-57.078
-56.506
-56.01
-55.588
-55.236
-54.951
-54.729
-54.564
-54.452
-54.386
-54.361
-54.372
-54.411
-54.475
-54.557
-54.653
-54.758
-54.868
-54.978
-55.085
-55.184
-55.271
-55.342
-55.394
-55.425
-55.429
-55.406
-55.353
-55.269
-55.151
-55
-54.814
-54.594
-54.339
-54.051
-53.731
-53.381
-53.001
-52.596
-52.168
-51.719
-51.254
-50.775
-50.287
-49.792
-49.295
-48.797
-48.303
-47.815
-47.337
-46.87
-46.418
-45.982
-45.565
-45.169
-44.795
-44.444
-44.119
-43.82
-43.55
-43.308
-43.096
-42.916
-42.768
-42.653
-42.573
-42.526
-42.515
-42.539
-42.597
-42.69
-42.815
-42.974
-43.163
-43.382
-43.629
-43.903
-44.202
-44.525
-44.869
-45.234
-45.617
-46.018
-46.435
-46.867
-47.313
-47.773
-48.246
-48.731
-49.228
-49.736
-50.254
-50.78
-51.314
-51.854
-52.399
-52.947
-53.495
-54.043
-54.587
-55.127
-55.661
-56.186
-56.701
-57.205
-57.697
-58.174
-58.637
-59.085
-59.516
-59.93
-60.326
-60.704
-61.063
-61.402
-61.72
-62.017
-62.292
-62.544
-62.771
-62.973
-63.149
-63.299
-63.421
-63.516
-63.585
-63.626
-63.642
-63.632
-63.598
-63.541
-63.463
-63.366
-63.25
-63.117
-62.968
-62.806
-62.631
-62.443
-62.245
-62.037
-61.818
-61.59
-61.354
-61.108
-60.853
-60.589
-60.317
-60.034
-59.743
-59.444
-59.135
-58.811
-58.472
-58.116
-57.742
-57.353
-56.942
-56.499
-56.035
-55.555
-55.063
-54.567
-54.054
-53.501
-52.921
-52.329
-51.683
-50.952
-50.113
-49.129
-48.028
-46.87
-45.621
-44.223
-42.832
-41.63
-40.512
-39.491
-38.604
-37.464
-37.131
-38.641
-40.534
-42.376
-41.483
-34.641
-25.429
-16.238
-10.617
-13.441
-20.415
-27.898
-33.402
-32.804
-29.069
-25.201
-21.874
-20.919
-21.283
-21.612
-22.165
-22.766
-23.5
-24.64
-26.004
-27.456
-29.054
-30.809
-32.706
-34.743
-36.918
-39.219
-41.645
-44.182
-46.771
-49.356
-51.897
-54.366
-56.73
-58.952
-60.979
-62.739
-64.17
-65.222
-65.849
-66.018
-65.723
-64.976
-63.828
-62.369
-60.672
-58.824
-56.926
-55.065
-53.371
-51.989
-51.038
-50.698
-51.196
-52.668
-55.143
-58.462
-62.196
-65.867
-69.049
-71.213
-71.798
-70.479
-67.229
-62.619
-57.837
-54.118
-52.431
-53.5
-57.804
-65.318
-75.285
-85.769
-93.686
-95.577
-88.216
-69.033
-35.957
12.502
76.657
155.165
245.037
341.913
440.851
537.323
626.694
704.047
765.213
806.985
827.209
825.68
803.204
760.312
698.498
620.466
529.178
428.408
322.401
214.268
107.262
5.713
-86.62
-166.235
-230.027
-276.73
-305.7
-317.449
-313.849
-296.261
-267.592
-229.343
-182.884
-135.127
-91.42
-58.316
-42.207
-38.835
-43.791
-52.547
-58.404
-62.299
-65.068
-65.388
-64.162
-59.977
-51.687
-40.608
-27.841
-14.727
-2.978
6.537
13.522
17.746
19.358
18.839
16.653
13.383
9.743
6.197
3.007
0.35
-1.752
-3.306
-4.261
-4.597
-4.339
-3.493
-2.076
-0.108
2.407
5.429
8.881
12.65
16.605
20.626
24.602
28.462
32.158
35.645
38.889
41.858
44.532
46.909
49
50.819
52.377
53.696
54.798
55.732
56.553
57.315
58.073
58.867
59.726
60.675
61.737
62.927
64.258
65.733
67.35
69.109
71.015
73.068
75.27
77.615
80.094
82.697
85.411
88.222
91.12
94.09
97.119
100.193
103.299
106.426
109.56
112.688
115.792
118.856
121.862
124.789
127.62
130.337
132.918
135.347
137.606
139.679
141.552
143.21
144.641
145.832
146.773
147.453
147.863
147.995
147.843
147.401
146.666
145.634
144.304
142.677
140.754
138.536
136.028
133.233
130.157
126.806
123.188
119.31
115.183
110.816
106.221
101.411
96.397
91.194
85.816
80.277
74.591
68.773
62.838
56.801
50.677
44.483
38.232
31.942
25.628
19.306
12.992
6.701
0.451
-5.745
-11.87
-17.909
-23.848
-29.673
-35.368
-40.921
-46.318
-51.547
-56.597
-61.456
-66.116
-70.566
-74.799
-78.808
-82.587
-86.131
-89.435
-92.495
-95.31
-97.877
-100.196
-102.268
-104.093
-105.675
-107.017
-108.123
-108.999
-109.652
-110.088
-110.316
-110.344
-110.184
-109.845
-109.34
-108.679
-107.877
-106.945
-105.898
-104.749
-103.511
-102.197
-100.821
-99.395
-97.932
-96.444
-94.943
-93.439
-91.943
-90.466
-89.017
-87.605
-86.238
-84.923
-83.667
-82.474
-81.351
-80.3
-79.324
-78.427
-77.609
-76.871
-76.213
-75.632
-75.127
-74.695
-74.331
-74.029
-73.786
-73.593
-73.444
-73.333
-73.253
-73.195
-73.154
-73.121
-73.09
-73.053
-73.005
-72.937
-72.844
-72.719
-72.558
-72.355
-72.105
-71.806
-71.454
-71.046
-70.58
-70.054
-69.468
-68.82
-68.112
-67.343
-66.515
-65.63
-64.692
-63.704
-62.671
-61.598
-60.492
-59.358
-58.203
-57.034
-55.858
-54.682
-53.512
-52.355
-51.22
-50.111
-49.037
-48.003
-47.016
-46.081
-45.204
-44.388
-43.638
-42.957
-42.347
-41.808
-41.344
-40.959
-40.654
-40.43
-40.287
-40.221
-40.234
-40.331
-40.499
-40.725
-40.999
-41.305
-41.649
-42.045
-42.472
-42.909
-43.387
-43.93
-44.554
-45.29
-46.103
-46.926
-47.789
-48.743
-49.63
-50.263
-50.748
-51.07
-51.193
-51.505
-50.949
-48.494
-45.609
-42.737
-42.576
-48.355
-56.5
-64.629
-69.194
-65.326
-57.335
-48.88
-42.468
-42.239
-45.241
-48.477
-51.286
-51.844
-51.217
-50.773
-50.259
-49.852
-49.466
-48.83
-48.13
-47.515
-46.941
-46.402
-45.918
-45.488
-45.105
-44.765
-44.444
-44.112
-43.785
-43.475
-43.181
-42.904
-42.645
-42.404
-42.184
-41.99
-41.821
-41.676
-41.554
-41.456
-41.381
-41.33
-41.303
-41.301
-41.322
-41.367
-41.436
-41.527
-41.641
-41.778
-41.935
-42.113
-42.31
-42.526
-42.761
-43.014
-43.284
-43.57
-43.872
-44.186
-44.513
-44.849
-45.191
-45.536
-45.879
-46.218
-46.548
-46.864
-47.162
-47.437
-47.682
-47.895
-48.068
-48.196
-48.275
-48.298
-48.259
-48.154
-47.978
-47.725
-47.391
-46.972
-46.463
-45.86
-45.161
-44.363
-43.462
-42.458
-41.347
-40.129
-38.804
-37.372
-35.835
-34.195
-32.455
-30.618
-28.691
-26.679
-24.589
-22.429
-20.206
-17.931
-15.613
-13.264
-10.894
-8.512
-6.13
-3.767
-1.436
0.846
3.066
5.213
7.27
9.209
11.018
12.701
14.256
15.684
16.974
18.081
18.99
19.721
20.247
20.491
20.389
19.874
18.934
17.647
16.045
14.036
11.702
9.381
7.177
4.994
2.885
0.522
-1.522
-1.163
1.314
3.955
3.771
-5.101
-22.692
-42.945
-59.955
-65.338
-57.95
-45.735
-34.884
-31.894
-38.304
-48.107
-57.43
-63.787
-66.213
-67.09
-67.599
-67.631
-67.305
-66.318
-64.64
-62.701
-60.711
-58.702
-56.779
-55.069
-53.67
-52.741
-52.481
-52.962
-54.182
-56.024
-58.166
-60.301
-62.207
-63.52
-63.767
-62.615
-59.895
-56.003
-51.893
-48.326
-45.814
-44.702
-45.156
-47.363
-51.303
-55.757
-58.418
-57.004
-49.372
-33.866
-9.127
26.753
75.494
136.051
204.843
278.399
353.92
432.684
517.97
607.115
691.658
757.69
790.438
784.24
743.565
679.631
604.591
525.897
444.846
358.796
267.054
171.734
76.964
-11.194
-88.75
-154.482
-207.818
-249.118
-279.377
-299.148
-309.502
-312.235
-308.776
-300.202
-287.447
-271.237
-251.98
-230.22
-206.519
-181.497
-156.176
-131.638
-108.922
-88.792
-71.886
-58.597
-48.94
-42.412
-37.927
-34.446
-31.101
-27.338
-22.898
-17.65
-11.64
-5.283
0.613
5.412
8.689
10.256
10.246
8.845
6.247
2.801
-1.007
-4.789
-8.227
-11.099
-13.337
-14.907
-15.791
-16.031
-15.698
-14.851
-13.559
-11.885
-9.879
-7.6
-5.102
-2.423
0.394
3.294
6.209
9.058
11.758
14.26
16.534
18.563
20.345
21.885
23.204
24.336
25.327
26.217
27.038
27.815
28.572
29.338
30.151
31.051
32.085
33.289
34.692
36.32
38.192
40.321
42.716
45.377
48.296
51.472
54.901
58.584
62.521
66.714
71.16
75.854
80.79
85.958
91.347
96.946
102.741
108.716
114.855
121.141
127.56
134.097
140.738
147.469
154.275
161.133
168.018
174.906
181.77
188.582
195.314
201.93
208.396
214.692
220.794
226.683
232.345
237.751
242.873
247.683
252.146
256.24
259.953
263.263
266.157
268.632
270.686
272.337
273.619
274.533
275.083
275.267
275.058
274.448
273.434
271.999
270.138
267.833
265.047
261.759
257.957
253.612
248.702
243.178
236.958
230
222.276
213.78
204.55
194.628
184.051
172.893
161.242
149.198
136.905
124.481
112.02
99.627
87.401
75.468
63.996
53.132
42.99
33.661
25.187
17.598
10.922
5.142
0.208
-3.957
-7.473
-10.432
-12.892
-14.91
-16.542
-17.86
-18.971
-19.976
-20.949
-21.945
-23.003
-24.149
-25.415
-26.799
-28.267
-29.764
-31.21
-32.55
-33.761
-34.83
-35.749
-36.506
-37.078
-37.445
-37.611
-37.579
-37.356
-36.951
-36.366
-35.62
-34.75
-33.808
-32.852
-31.923
-31.044
-30.234
-29.507
-28.878
-28.363
-27.966
-27.672
-27.484
-27.422
-27.502
-27.745
-28.15
-28.679
-29.315
-30.076
-30.931
-31.801
-32.628
-33.342
-33.93
-34.469
-34.981
-35.371
-35.728
-36.374
-37.375
-38.622
-40.151
-41.602
-43.618
-48.251
-55.061
-62.149
-66.408
-61.977
-49.182
-33.904
-21.996
-21.77
-33.798
-50.208
-64.913
-71.354
-68.353
-61.794
-55.303
-51.343
-50.678
-50.914
-50.96
-50.903
-50.663
-50.605
-50.827
-51.009
-51.056
-51.029
-50.926
-50.736
-50.476
-50.166
-49.841
-49.561
-49.349
-49.183
-49.059
-48.983
-48.957
-48.986
-49.072
-49.207
-49.392
-49.631
-49.925
-50.274
-50.679
-51.137
-51.646
-52.203
-52.805
-53.449
-54.13
-54.845
-55.588
-56.355
-57.14
-57.937
-58.742
-59.549
-60.35
-61.141
-61.914
-62.663
-63.382
-64.065
-64.706
-65.299
-65.84
-66.322
-66.742
-67.095
-67.378
-67.587
-67.719
-67.772
-67.743
-67.632
-67.437
-67.16
-66.8
-66.361
-65.845
-65.254
-64.595
-63.87
-63.087
-62.251
-61.37
-60.45
-59.5
-58.528
-57.543
-56.556
-55.575
-54.611
-53.674
-52.774
-51.921
-51.125
-50.395
-49.742
-49.174
-48.699
-48.326
-48.063
-47.916
-47.894
-48
-48.241
-48.621
-49.143
-49.809
-50.621
-51.577
-52.678
-53.92
-55.3
-56.815
-58.457
-60.221
-62.098
-64.08
-66.157
-68.318
-70.551
-72.843
-75.181
-77.552
-79.942
-82.335
-84.717
-87.074
-89.392
-91.656
-93.851
-95.965
-97.984
-99.894
-101.682
-103.336
-104.845
-106.197
-107.383
-108.393
-109.22
-109.858
-110.299
-110.541
-110.579
-110.412
-110.039
-109.461
-108.678
-107.695
-106.515
-105.145
-103.592
-101.864
-99.972
-97.926
-95.738
-93.421
-90.987
-88.451
-85.826
-83.127
-80.368
-77.564
-74.732
-71.887
-69.048
-66.234
-63.464
-60.757
-58.134
-55.611
-53.209
-50.943
-48.828
-46.876
-45.098
-43.507
-42.114
-40.931
-39.967
-39.229
-38.723
-38.452
-38.419
-38.623
-39.06
-39.719
-40.592
-41.672
-42.963
-44.471
-46.202
-48.151
-50.309
-52.667
-55.21
-57.921
-60.766
-63.695
-66.655
-69.596
-72.474
-75.256
-77.897
-80.342
-82.519
-84.352
-85.773
-86.739
-87.228
-87.211
-86.681
-85.643
-84.131
-82.24
-80.093
-77.817
-75.542
-73.406
-71.529
-70.094
-69.364
-69.506
-70.595
-72.554
-75.062
-77.827
-80.639
-83.16
-84.94
-85.669
-85.173
-83.724
-82.255
-81.603
-82.383
-85.216
-90.463
-98.166
-108.093
-119.062
-128.661
-134.318
-133.4
-123.232
-101.815
-67.463
-18.766
44.268
119.933
205.667
297.749
391.775
483.744
569.118
642.849
700.799
739.865
757.831
754.355
730.095
685.577
622.719
544.779
455.325
358.634
259.119
159.954
64.125
-24.702
-103.647
-170.559
-223.91
-263.794
-290.996
-305.865
-309.092
-302.31
-287.613
-267.623
-244.913
-220.98
-196.936
-174.221
-154.462
-138.936
-128.035
-121.264
-117.782
-117.026
-118.61
-121.822
-125.322
-127.731
-128.321
-126.941
-123.862
-119.437
-113.842
-107.438
-101.012
-95.285
-90.636
-87.163
-84.634
-82.719
-81.205
-79.799
-78.102
-75.849
-72.9
-69.223
-64.933
-60.156
-54.977
-49.514
-43.892
-38.194
-32.5
-26.863
-21.323
-15.941
-10.788
-5.928
-1.414
2.729
6.489
9.861
12.85
15.471
17.743
19.697
21.353
22.727
23.838
24.701
25.341
25.788
26.072
26.224
26.278
26.263
26.209
26.144
26.095
26.086
26.142
26.288
26.548
26.95
27.521
28.286
29.269
30.494
31.98
33.748
35.812
38.186
40.881
43.907
47.268
50.97
55.014
59.399
64.122
69.178
74.558
80.252
86.245
92.523
99.067
105.857
112.868
120.077
127.454
134.971
142.596
150.297
158.04
165.791
173.512
181.168
188.723
196.138
203.378
210.405
217.184
223.679
229.856
235.683
241.129
246.163
250.759
254.89
258.534
261.668
264.274
266.335
267.835
268.764
269.111
268.87
268.037
266.612
264.597
261.998
258.823
255.083
250.793
245.969
240.63
234.799
228.499
221.756
214.599
207.058
199.164
190.95
182.45
173.699
164.733
155.588
146.3
136.905
127.439
117.938
108.436
98.968
89.568
80.268
71.101
62.096
53.282
44.687
36.335
28.251
20.454
12.963
5.795
-1.035
-7.517
-13.642
-19.401
-24.791
-29.81
-34.457
-38.735
-42.648
-46.202
-49.405
-52.267
-54.799
-57.014
-58.925
-60.547
-61.895
-62.987
-63.838
-64.468
-64.893
-65.134
-65.208
-65.135
-64.935
-64.625
-64.226
-63.755
-63.229
-62.666
-62.081
-61.489
-60.904
-60.338
-59.804
-59.31
-58.867
-58.48
-58.157
-57.901
-57.717
-57.607
-57.57
-57.609
-57.72
-57.903
-58.155
-58.472
-58.849
-59.283
-59.768
-60.297
-60.864
-61.462
-62.083
-62.719
-63.362
-64.003
-64.633
-65.244
-65.827
-66.374
-66.876
-67.327
-67.719
-68.045
-68.3
-68.478
-68.575
-68.588
-68.513
-68.351
-68.099
-67.757
-67.327
-66.811
-66.209
-65.526
-64.764
-63.927
-63.02
-62.046
-61.013
-59.924
-58.786
-57.605
-56.388
-55.143
-53.877
-52.596
-51.31
-50.026
-48.751
-47.494
-46.263
-45.064
-43.905
-42.792
-41.732
-40.731
-39.793
-38.923
-38.124
-37.398
-36.748
-36.175
-35.679
-35.261
-34.919
-34.652
-34.46
-34.339
-34.287
-34.301
-34.378
-34.515
-34.707
-34.95
-35.239
-35.57
-35.938
-36.336
-36.76
-37.203
-37.661
-38.127
-38.597
-39.063
-39.521
-39.966
-40.392
-40.797
-41.175
-41.525
-41.843
-42.128
-42.379
-42.595
-42.776
-42.922
-43.035
-43.116
-43.166
-43.187
-43.182
-43.153
-43.102
-43.034
-42.95
-42.855
-42.752
-42.644
-42.535
-42.429
-42.33
-42.242
-42.169
-42.116
-42.085
-42.082
-42.111
-42.174
-42.275
-42.417
-42.603
-42.834
-43.111
-43.435
-43.807
-44.227
-44.693
-45.205
-45.761
-46.36
-46.999
-47.677
-48.391
-49.138
-49.916
-50.722
-51.553
-52.405
-53.276
-54.162
-55.06
-55.967
-56.879
-57.791
-58.7
-59.602
-60.492
-61.366
-62.22
-63.049
-63.849
-64.615
-65.345
-66.034
-66.678
-67.275
-67.822
-68.316
-68.754
-69.135
-69.456
-69.716
-69.912
-70.044
-70.109
-70.105
-70.031
-69.885
-69.664
-69.367
-68.992
-68.537
-68
-67.381
-66.678
-65.89
-65.017
-64.059
-63.017
-61.889
-60.678
-59.384
-58.009
-56.556
-55.026
-53.422
-51.748
-50.007
-48.203
-46.341
-44.424
-42.457
-40.446
-38.396
-36.315
-34.208
-32.085
-29.954
-27.828
-25.719
-23.639
-21.603
-19.625
-17.718
-15.899
-14.179
-12.572
-11.087
-9.737
-8.535
-7.493
-6.626
-5.944
-5.46
-5.183
-5.123
-5.288
-5.683
-6.305
-7.153
-8.227
-9.528
-11.072
-12.866
-14.913
-17.211
-19.752
-22.522
-25.503
-28.665
-31.957
-35.327
-38.726
-42.106
-45.438
-48.685
-51.8
-54.73
-57.401
-59.744
-61.718
-63.279
-64.399
-65.079
-65.332
-65.207
-64.809
-64.226
-63.553
-62.904
-62.362
-62.036
-62.062
-62.543
-63.651
-65.607
-68.507
-72.354
-77.006
-82.1
-87.272
-92.191
-96.328
-99.071
-99.986
-98.867
-96.089
-92.53
-88.955
-86.025
-84.315
-84.324
-86.468
-90.553
-95.219
-98.321
-97.232
-88.959
-71.342
-42.245
-0.196
53.764
119.361
196.596
285.271
387.28
498.41
607.725
703.114
770.181
804.073
810.986
797.316
771.456
735.776
685.024
618.146
535.878
441.154
341.094
240.093
140.502
45.583
-42.148
-120.381
-186.491
-239.145
-278.193
-303.421
-314.96
-313.667
-301.137
-280.019
-253.502
-224.572
-195.741
-168.825
-145.316
-126.682
-113.52
-105.281
-100.744
-98.05
-95.363
-91.783
-86.662
-79.154
-68.962
-56.301
-41.808
-26.866
-12.946
-0.811
9.108
16.462
21.201
23.369
23.144
21.103
17.95
14.147
9.977
5.599
1.063
-3.527
-7.993
-12.199
-16.054
-19.447
-22.294
-24.523
-26.056
-26.868
-26.991
-26.489
-25.451
-23.969
-22.102
-19.887
-17.365
-14.574
-11.583
-8.487
-5.378
-2.353
0.513
3.172
5.588
7.748
9.657
11.344
12.85
14.223
15.504
16.719
17.893
19.049
20.219
21.445
22.77
24.247
25.917
27.811
29.957
32.373
35.072
38.059
41.33
44.876
48.688
52.764
57.099
61.694
66.542
71.636
76.966
82.52
88.285
94.248
100.395
106.71
113.177
119.778
126.499
133.323
140.232
147.205
154.219
161.251
168.275
175.267
182.2
189.047
195.781
202.374
208.802
215.036
221.053
226.826
232.33
237.54
242.432
246.984
251.172
254.976
258.374
261.347
263.876
265.943
267.534
268.634
269.231
269.315
268.876
267.909
266.409
264.374
261.803
258.7
255.07
250.918
246.255
241.091
235.441
229.32
222.747
215.741
208.321
200.511
192.339
183.835
175.027
165.948
156.624
147.082
137.364
127.498
117.497
107.388
97.187
86.915
76.642
66.426
56.282
46.282
36.523
27.053
17.954
9.29
0.981
-7.042
-14.721
-22.182
-29.734
-37.345
-44.884
-52.474
-59.669
-66.752
-75.646
-86.041
-96.058
-103.086
-100.78
-87.366
-69.05
-53.347
-51.453
-69.852
-100.419
-131.448
-150.752
-148.826
-131.079
-108.882
-90.659
-83.784
-86.92
-93.148
-99.025
-101.997
-101.759
-100.824
-99.942
-98.963
-98.034
-96.795
-95.166
-93.497
-91.903
-90.37
-88.97
-87.744
-86.66
-85.704
-84.854
-84.057
-83.302
-82.616
-82.001
-81.451
-80.969
-80.554
-80.203
-79.923
-79.71
-79.557
-79.456
-79.404
-79.395
-79.423
-79.483
-79.571
-79.679
-79.804
-79.939
-80.081
-80.224
-80.366
-80.502
-80.63
-80.745
-80.847
-80.934
-81.003
-81.053
-81.085
-81.097
-81.089
-81.061
-81.014
-80.948
-80.863
-80.761
-80.642
-80.509
-80.362
-80.203
-80.035
-79.858
-79.676
-79.489
-79.301
-79.112
-78.925
-78.741
-78.561
-78.386
-78.216
-78.054
-77.897
-77.747
-77.603
-77.465
-77.331
-77.2
-77.072
-76.944
-76.816
-76.685
-76.552
-76.413
-76.268
-76.115
-75.954
-75.783
-75.602
-75.408
-75.201
-74.98
-74.743
-74.491
-74.221
-73.933
-73.627
-73.302
-72.957
-72.592
-72.207
-71.803
-71.38
-70.937
-70.477
-69.999
-69.506
-68.999
-68.48
-67.95
-67.411
-66.866
-66.317
-65.764
-65.211
-64.658
-64.108
-63.562
-63.02
-62.484
-61.956
-61.436
-60.925
-60.425
-59.935
-59.458
-58.993
-58.542
-58.106
-57.686
-57.282
-56.895
-56.527
-56.178
-55.849
-55.541
-55.255
-54.991
-54.75
-54.532
-54.337
-54.165
-54.017
-53.892
-53.791
-53.712
-53.658
-53.627
-53.619
-53.636
-53.676
-53.741
-53.83
-53.944
-54.083
-54.246
-54.435
-54.647
-54.883
-55.142
-55.423
-55.724
-56.043
-56.378
-56.727
-57.087
-57.454
-57.826
-58.197
-58.565
-58.925
-59.272
-59.603
-59.912
-60.194
-60.445
-60.659
-60.834
-60.962
-61.04
-61.063
-61.026
-60.924
-60.751
-60.504
-60.176
-59.762
-59.259
-58.661
-57.966
-57.17
-56.27
-55.264
-54.15
-52.927
-51.596
-50.156
-48.609
-46.956
-45.201
-43.348
-41.401
-39.366
-37.25
-35.06
-32.804
-30.491
-28.129
-25.728
-23.299
-20.851
-18.396
-15.945
-13.511
-11.107
-8.748
-6.452
-4.233
-2.111
-0.101
1.777
3.506
5.069
6.451
7.638
8.618
9.379
9.91
10.198
10.232
10.003
9.502
8.725
7.665
6.321
4.692
2.789
0.619
-1.809
-4.492
-7.433
-10.634
-14.087
-17.783
-21.71
-25.844
-30.158
-34.61
-39.139
-43.682
-48.178
-52.567
-56.807
-60.847
-64.631
-68.095
-71.166
-73.773
-75.873
-77.423
-78.386
-78.768
-78.593
-77.936
-76.918
-75.65
-74.245
-72.829
-71.522
-70.464
-69.787
-69.586
-69.998
-71.211
-73.334
-76.384
-80.224
-84.512
-88.906
-93.078
-96.507
-98.553
-98.698
-96.683
-92.798
-87.696
-81.868
-75.841
-70.431
-66.584
-65.065
-64.799
-62.54
-55.259
-41.227
-22.881
-5.02
11.18
29.238
60.435
118.416
211.326
338.649
485.92
631.294
751.699
829.842
863.257
859.583
832.92
796.22
753.07
700.873
634.474
551.115
453.396
347.25
238.993
132.885
31.921
-61.208
-144.29
-214.967
-271.58
-313.905
-341.879
-355.403
-355.041
-342.248
-319.395
-289.466
-255.257
-218.911
-182.352
-147.831
-117.72
-93.378
-74.986
-61.974
-53.326
-48.212
-45.968
-45.345
-44.475
-42.165
-38.038
-32.202
-25.296
-17.856
-10.154
-2.845
3.032
6.85
8.411
7.823
5.625
2.32
-1.769
-6.155
-10.273
-13.734
-16.248
-17.679
-18.089
-17.526
-16.02
-13.656
-10.528
-6.735
-2.411
2.327
7.355
12.527
17.7
22.728
27.487
31.886
35.847
39.315
42.268
44.693
46.597
48.001
48.921
49.386
49.442
49.133
48.518
47.667
46.643
45.524
44.376
43.254
42.203
41.263
40.465
39.837
39.402
39.178
39.187
39.449
39.986
40.819
41.966
43.441
45.257
47.421
49.94
52.821
56.07
59.689
63.682
68.047
72.782
77.885
83.346
89.154
95.291
101.739
108.474
115.472
122.707
130.148
137.764
145.524
153.394
161.341
169.33
177.325
185.288
193.183
200.972
208.618
216.082
223.328
230.318
237.015
243.386
249.396
255.013
260.206
264.948
269.21
272.969
276.203
278.893
281.022
282.577
283.546
283.922
283.701
282.881
281.463
279.452
276.854
273.68
269.942
265.654
260.834
255.501
249.677
243.384
236.65
229.5
221.965
214.076
205.864
197.363
188.608
179.634
170.476
161.171
151.754
142.263
132.731
123.196
113.69
104.247
94.899
85.678
76.612
67.728
59.054
50.611
42.423
34.509
26.887
19.572
12.577
5.914
-0.409
-6.385
-12.009
-17.278
-22.192
-26.753
-30.964
-34.83
-38.36
-41.561
-44.444
-47.022
-49.306
-51.311
-53.052
-54.545
-55.806
-56.851
-57.699
-58.365
-58.869
-59.228
-59.458
-59.576
-59.599
-59.543
-59.423
-59.253
-59.047
-58.817
-58.574
-58.331
-58.095
-57.877
-57.683
-57.52
-57.394
-57.309
-57.267
-57.272
-57.325
-57.425
-57.574
-57.77
-58.011
-58.296
-58.623
-58.988
-59.389
-59.822
-60.284
-60.771
-61.278
-61.803
-62.34
-62.887
-63.44
-63.995
-64.549
-65.1
-65.644
-66.179
-66.703
-67.216
-67.714
-68.199
-68.668
-69.122
-69.562
-69.987
-70.4
-70.802
-71.194
-71.578
-71.955
-72.328
-72.698
-73.065
-73.432
-73.8
-74.169
-74.54
-74.914
-75.291
-75.672
-76.055
-76.442
-76.831
-77.221
-77.612
-78.002
-78.389
-78.773
-79.151
-79.521
-79.881
-80.23
-80.565
-80.884
-81.183
-81.461
-81.715
-81.941
-82.137
-82.301
-82.43
-82.523
-82.578
-82.593
-82.569
-82.504
-82.399
-82.254
-82.071
-81.85
-81.594
-81.305
-80.984
-80.636
-80.262
-79.867
-79.455
-79.028
-78.591
-78.147
-77.701
-77.255
-76.815
-76.384
-75.964
-75.561
-75.177
-74.815
-74.48
-74.174
-73.9
-73.66
-73.457
-73.292
-73.166
-73.081
-73.036
-73.031
-73.066
-73.14
-73.251
-73.397
-73.576
-73.786
-74.024
-74.286
-74.569
-74.871
-75.187
-75.515
-75.851
-76.192
-76.537
-76.882
-77.225
-77.564
-77.898
-78.225
-78.545
-78.856
-79.158
-79.451
-79.735
-80.011
-80.28
-80.543
-80.801
-81.057
-81.312
-81.569
-81.831
-82.101
-82.383
-82.68
-82.995
-83.333
-83.696
-84.088
-84.511
-84.97
-85.465
-85.999
-86.573
-87.189
-87.845
-88.543
-89.28
-90.055
-90.865
-91.707
-92.578
-93.472
-94.385
-95.312
-96.246
-97.18
-98.11
-99.027
-99.924
-100.794
-101.628
-102.419
-103.157
-103.834
-104.441
-104.968
-105.408
-105.753
-105.993
-106.124
-106.136
-106.026
-105.787
-105.415
-104.907
-104.259
-103.471
-102.542
-101.473
-100.267
-98.926
-97.455
-95.86
-94.147
-92.326
-90.404
-88.39
-86.296
-84.131
-81.908
-79.64
-77.34
-75.022
-72.701
-70.397
-68.127
-65.91
-63.765
-61.711
-59.769
-57.956
-56.291
-54.788
-53.464
-52.33
-51.401
-50.69
-50.209
-49.97
-49.984
-50.258
-50.799
-51.612
-52.698
-54.053
-55.67
-57.54
-59.662
-62.035
-64.659
-67.529
-70.638
-73.973
-77.516
-81.238
-85.103
-89.056
-93.039
-96.995
-100.87
-104.617
-108.19
-111.54
-114.611
-117.337
-119.659
-121.532
-122.917
-123.786
-124.129
-123.969
-123.37
-122.443
-121.303
-120.047
-118.78
-117.608
-116.659
-116.094
-116.051
-116.623
-117.933
-120.131
-123.296
-127.43
-132.341
-137.557
-142.618
-147.14
-150.636
-152.578
-152.564
-150.354
-146.241
-141.16
-135.89
-130.798
-126.485
-123.689
-122.668
-123.492
-124.08
-119.958
-108.993
-90.566
-65.745
-38.282
-5.552
39.331
101.839
188.129
294.273
407.638
517.17
610.098
679.763
727.288
752.177
755.203
736.994
695.386
630.883
547.03
448.022
339.451
227.339
115.883
8.862
-89.197
-174.906
-246.075
-301.174
-340.648
-366.279
-379.354
-381.622
-375.915
-364.509
-349.542
-333.091
-315.547
-296.628
-276.474
-254.981
-231.803
-207.217
-181.624
-155.371
-129.827
-106.474
-86.28
-70.067
-58.246
-50.49
-46.095
-44.405
-44.363
-44.98
-45.667
-45.952
-45.707
-45.304
-45.33
-46.171
-48.129
-51.316
-55.57
-60.719
-66.462
-72.257
-77.526
-81.863
-85.032
-86.977
-87.774
-87.473
-86.134
-83.884
-80.881
-77.285
-73.227
-68.798
-64.072
-59.148
-54.165
-49.291
-44.663
-40.363
-36.438
-32.901
-29.761
-27.03
-24.692
-22.708
-21.036
-19.634
-18.468
-17.517
-16.744
-16.104
-15.54
-14.983
-14.381
-13.698
-12.907
-11.99
-10.93
-9.711
-8.327
-6.782
-5.071
-3.19
-1.126
1.135
3.605
6.291
9.2
12.33
15.686
19.273
23.098
27.171
31.5
36.083
40.917
45.998
51.311
56.84
62.56
68.43
74.409
80.461
86.55
92.658
98.768
104.862
110.919
116.918
122.846
128.716
134.546
140.346
146.134
151.923
157.741
163.647
169.689
175.896
182.287
188.842
195.522
202.296
209.121
215.935
222.657
229.165
235.319
241.009
246.128
250.569
254.223
256.939
258.582
259.062
258.305
256.287
253.007
248.465
242.681
235.724
227.685
218.701
208.944
198.541
187.616
176.292
164.693
152.978
141.294
129.748
118.429
107.406
96.729
86.455
76.63
67.253
58.307
49.751
41.52
33.58
25.913
18.495
11.313
4.335
-2.462
-9.079
-15.505
-21.728
-27.738
-33.531
-39.102
-44.427
-49.476
-54.214
-58.601
-62.615
-66.243
-69.477
-72.314
-74.754
-76.802
-78.473
-79.795
-80.787
-81.468
-81.858
-81.973
-81.837
-81.478
-80.919
-80.189
-79.31
-78.306
-77.198
-76.006
-74.749
-73.443
-72.101
-70.734
-69.354
-67.974
-66.605
-65.26
-63.948
-62.679
-61.46
-60.298
-59.201
-58.171
-57.211
-56.321
-55.502
-54.753
-54.071
-53.454
-52.898
-52.4
-51.955
-51.558
-51.201
-50.881
-50.588
-50.318
-50.063
-49.817
-49.573
-49.324
-49.066
-48.792
-48.497
-48.178
-47.828
-47.444
-47.021
-46.557
-46.047
-45.488
-44.878
-44.216
-43.498
-42.726
-41.897
-41.014
-40.075
-39.083
-38.038
-36.944
-35.801
-34.613
-33.383
-32.114
-30.811
-29.478
-28.12
-26.742
-25.348
-23.945
-22.537
-21.129
-19.727
-18.333
-16.954
-15.593
-14.254
-12.941
-11.658
-10.409
-9.196
-8.023
-6.892
-5.806
-4.766
-3.774
-2.832
-1.94
-1.1
-0.312
0.424
1.108
1.739
2.319
2.85
3.332
3.769
4.162
4.517
4.835
5.123
5.382
5.619
5.837
6.042
6.236
6.425
6.614
6.806
7.006
7.218
7.447
7.696
7.97
8.271
8.603
8.969
9.372
9.815
10.301
10.832
11.41
12.037
12.717
13.449
14.236
15.078
15.975
16.928
17.934
18.993
20.103
21.261
22.466
23.713
25.001
26.326
27.684
29.072
30.487
31.924
33.381
34.852
36.334
37.823
39.315
40.806
42.293
43.772
45.24
46.693
48.127
49.539
50.926
52.285
53.612
54.905
56.161
57.379
58.557
59.695
60.792
61.85
62.87
63.853
64.802
65.721
66.611
67.478
68.325
69.157
69.98
70.798
71.618
72.446
73.289
74.153
75.047
75.976
76.949
77.972
79.054
80.2
81.419
82.717
84.103
85.583
87.163
88.85
90.65
92.565
94.601
96.758
99.039
101.443
103.968
106.612
109.371
