Name,John Breau
Date of Birth,"Dec 20, 1971"
Recorded Date,2023-05-11 12:30:26 -0500
Classification,Sinus Rhythm
Symptoms,
Software Version,1.90
Device,"Watch6,3"
Sample Rate,512 hertz


Lead,Lead I
Unit,µV

-135.16
-197.354
-238.013
-258.848
-265.822
-266.982
-269.773
-275.083
-280.614
-282.855
-279.367
-271.224
-260.73
-250.094
-240.634
-232.318
-224.528
-216.697
-208.221
-198.32
-186.588
-172.955
-157.465
-140.457
-122.364
-103.489
-84.403
-65.962
-48.593
-32.407
-17.39
-3.204
10.407
23.435
36.13
49.068
62.521
76.708
91.794
107.501
123.662
140.296
157.117
173.6
189.212
202.958
213.595
220.177
221.559
216.643
204.653
184.749
156.409
120.14
77.124
28.842
-22.705
-75.489
-127.405
-175.694
-217.73
-251.939
-277.495
-294.195
-302.416
-302.672
-295.965
-284.333
-270.1
-254.878
-239.707
-225.17
-211.556
-199.168
-187.873
-176.649
-164.068
-149.214
-131.669
-111.329
-88.236
-62.282
-33.565
-2.76
29.114
61.298
93.343
125.014
156.162
186.425
215.429
243.015
269.168
293.879
317.055
338.493
357.94
375.242
390.304
403.055
413.426
421.282
426.488
428.941
428.579
425.472
419.771
411.683
401.496
389.497
375.944
361.125
345.347
328.763
311.383
293.115
273.77
253.32
232.002
210.226
188.441
167.274
147.555
130.114
115.919
105.824
100.208
99.033
102.158
109.176
119.427
132.395
147.219
162.783
178.41
193.763
208.502
222.511
235.752
247.841
258.832
269.243
279.26
288.935
298.324
307.25
315.622
323.696
331.386
338.266
344.072
348.486
351.328
352.726
352.786
351.584
349.308
346.158
342.351
338.214
333.855
329.163
323.866
317.42
309.506
300.175
289.535
277.833
265.564
253.275
241.82
232.387
225.745
222.214
221.904
224.556
229.727
236.999
245.726
255.169
264.931
274.777
284.592
294.369
303.991
313.256
321.741
328.506
332.22
331.448
324.677
310.679
288.562
257.486
217.268
168.843
113.839
54.395
-6.968
-67.948
-126.334
-179.647
-225.938
-264.307
-294.551
-317.163
-333.159
-343.535
-349.48
-352.628
-354.412
-355.677
-356.836
-357.847
-358.373
-358.082
-356.512
-352.952
-346.779
-337.724
-325.803
-311.272
-294.509
-275.863
-255.727
-234.617
-213.061
-191.44
-170.004
-148.915
-128.316
-108.432
-89.541
-71.901
-55.737
-41.265
-28.727
-18.377
-10.49
-5.312
-2.961
-3.453
-6.733
-12.701
-21.276
-32.419
-46.069
-62.103
-80.518
-101.413
-124.95
-151.389
-180.826
-213.093
-247.805
-284.411
-322.088
-359.815
-396.55
-431.143
-462.627
-490.383
-514.124
-533.905
-550.183
-563.704
-575.154
-585.233
-594.546
-603.444
-612.117
-620.56
-628.447
-635.254
-640.595
-644.178
-645.828
-645.553
-643.385
-639.404
-633.85
-627.065
-619.346
-610.935
-601.965
-592.483
-582.548
-572.242
-561.644
-550.811
-539.792
-528.665
-517.554
-506.632
-496.093
-486.087
-476.73
-468.128
-460.268
-453.067
-446.387
-439.952
-433.497
-426.847
-419.744
-411.937
-403.462
-394.476
-385.314
-376.64
-368.884
-362.191
-356.844
-352.984
-350.246
-348.024
-345.207
-340.024
-331.122
-317.504
-297.941
-271.628
-238.474
-198.778
-153.805
-105.783
-56.608
-8.25
36.689
75.959
107.737
130.473
143.739
147.851
142.864
129.363
108.845
83.035
54.057
24.166
-5.087
-32.251
-55.458
-73.121
-84.103
-87.839
-84.715
-75.488
-60.716
-41.166
-18.005
7.322
33.06
57.784
80.891
102.119
121.222
137.994
152.291
164.363
175.035
185.142
195.038
204.779
214.304
223.615
232.882
242.079
250.785
258.459
264.772
269.622
273.089
275.268
276.125
275.693
274.191
271.937
269.237
266.321
263.311
260.293
257.407
254.772
252.461
250.512
248.921
247.686
246.818
246.321
246.182
246.376
246.863
247.601
248.544
249.631
250.813
252.053
253.312
254.572
255.819
257.04
258.234
259.411
260.581
261.757
262.958
264.19
265.471
266.817
268.249
269.791
271.459
273.256
275.183
277.235
279.401
281.67
284.025
286.44
288.891
291.354
293.806
296.224
298.585
300.859
303.021
305.04
306.89
308.545
309.984
311.181
312.115
312.767
313.118
313.154
312.858
312.218
311.217
309.845
308.089
305.942
303.397
300.448
297.092
293.33
289.162
284.596
279.636
274.294
268.578
262.504
256.086
249.342
242.291
234.956
227.358
219.523
211.478
203.249
194.865
186.356
177.752
169.083
160.38
151.675
142.997
134.379
125.849
117.438
109.175
101.089
93.207
85.554
78.156
71.035
64.213
57.71
51.543
45.728
40.278
35.204
30.517
26.222
22.325
18.828
15.731
13.033
10.729
8.815
7.28
6.117
5.312
4.853
4.726
4.913
5.399
6.164
7.19
8.458
9.946
11.633
13.5
15.524
17.683
19.958
22.326
24.767
27.261
29.788
32.331
34.87
37.389
39.872
42.304
44.67
46.958
49.156
51.254
53.243
55.114
56.86
58.478
59.96
61.305
62.51
63.574
64.495
65.275
65.914
66.413
66.775
67.003
67.099
67.068
66.913
66.638
66.248
65.748
65.141
64.434
63.63
62.735
61.753
60.689
59.549
58.336
57.057
55.715
54.316
52.864
51.365
49.822
48.241
46.627
44.984
43.317
41.632
39.933
38.227
36.519
34.816
33.123
31.447
29.794
28.174
26.591
25.055
23.572
22.152
20.803
19.533
18.351
17.265
16.285
15.418
14.675
14.062
13.588
13.262
13.09
13.079
13.237
13.57
14.083
14.781
15.669
16.75
18.027
19.503
21.178
23.053
25.128
27.401
29.869
32.53
35.379
38.412
41.622
45.003
48.547
52.246
56.092
60.074
64.184
68.41
72.742
77.169
81.68
86.264
90.91
95.605
100.339
105.101
109.879
114.662
119.44
124.204
128.943
133.648
138.311
142.923
147.478
151.968
156.387
160.73
164.992
169.169
173.259
177.26
181.169
184.988
188.715
192.353
195.901
199.362
202.738
206.03
209.24
212.373
215.43
218.416
221.333
224.186
226.979
229.715
232.4
235.038
237.63
240.181
242.693
245.171
247.617
250.034
252.425
254.791
257.133
259.453
261.753
264.033
266.292
268.528
270.741
272.93
275.099
277.246
279.373
281.477
283.558
285.617
287.659
289.687
291.701
293.699
295.675
297.626
299.547
301.432
303.267
305.032
306.709
308.277
309.722
311.033
312.2
313.208
314.039
314.665
315.063
315.225
315.158
314.876
314.391
313.707
312.832
311.802
310.703
309.578
308.393
307.034
305.362
303.322
301.004
298.497
295.737
292.743
289.688
286.954
285.112
284.462
284.809
285.825
287.337
288.987
290.21
290.039
286.987
280.012
268.866
253.563
234.222
211.377
185.859
159.14
133.585
111.215
93.424
81.466
76.156
77.623
85.535
98.769
115.215
132.701
149.03
161.699
168.63
168.485
160.415
144.152
120.032
88.74
51.57
10.571
-32.242
-75.343
-117.38
-156.991
-192.72
-223.278
-247.991
-266.954
-280.46
-288.525
-291.435
-290.045
-285.793
-280.416
-275.445
-272.001
-271.233
-274.601
-283.068
-296.862
-315.586
-338.254
-363.765
-391.109
-418.951
-445.576
-469.726
-490.692
-508.168
-522.361
-533.588
-542.134
-548.602
-553.851
-558.472
-562.798
-566.993
-570.97
-574.666
-578.099
-581.167
-583.701
-585.623
-586.908
-587.592
-587.791
-587.582
-586.999
-586.101
-584.948
-583.595
-582.111
-580.535
-578.879
-577.146
-575.327
-573.397
-571.324
-569.078
-566.637
-563.989
-561.136
-558.084
-554.849
-551.445
-547.893
-544.199
-540.356
-536.357
-532.198
-527.88
-523.416
-518.824
-514.131
-509.361
-504.535
-499.674
-494.789
-489.885
-484.964
-480.022
-475.052
-470.051
-465.017
-459.951
-454.857
-449.734
-444.58
-439.393
-434.168
-428.9
-423.583
-418.214
-412.789
-407.307
-401.769
-396.177
-390.538
-384.857
-379.14
-373.393
-367.622
-361.836
-356.04
-350.243
-344.452
-338.677
-332.928
-327.215
-321.549
-315.941
-310.405
-304.951
-299.591
-294.337
-289.201
-284.194
-279.326
-274.608
-270.05
-265.661
-261.45
-257.424
-253.592
-249.957
-246.527
-243.305
-240.293
-237.494
-234.908
-232.533
-230.368
-228.41
-226.653
-225.094
-223.724
-222.538
-221.525
-220.678
-219.985
-219.435
-219.017
-218.717
-218.523
-218.42
-218.395
-218.433
-218.521
-218.643
-218.786
-218.935
-219.078
-219.199
-219.288
-219.331
-219.317
-219.235
-219.075
-218.828
-218.485
-218.038
-217.482
-216.811
-216.019
-215.104
-214.062
-212.891
-211.591
-210.161
-208.603
-206.917
-205.106
-203.174
-201.123
-198.959
-196.685
-194.308
-191.832
-189.265
-186.611
-183.877
-181.07
-178.196
-175.262
-172.272
-169.234
-166.152
-163.033
-159.88
-156.699
-153.493
-150.265
-147.021
-143.76
-140.487
-137.203
-133.91
-130.608
-127.298
-123.98
-120.655
-117.322
-113.981
-110.631
-107.271
-103.9
-100.517
-97.121
-93.711
-90.285
-86.842
-83.382
-79.904
-76.406
-72.889
-69.353
-65.798
-62.225
-58.634
-55.028
-51.408
-47.776
-44.135
-40.488
-36.84
-33.192
-29.55
-25.917
-22.299
-18.699
-15.122
-11.574
-8.057
-4.578
-1.14
2.252
5.595
8.884
12.116
15.288
18.397
21.441
24.418
27.326
30.165
32.935
35.635
38.267
40.832
43.332
45.77
48.15
50.475
52.751
54.982
57.175
59.337
61.474
63.593
65.704
67.812
69.927
72.057
74.21
76.394
78.618
80.89
83.218
85.612
88.078
90.623
93.255
95.981
98.805
101.735
104.774
107.927
111.197
114.588
118.102
121.74
125.504
129.394
133.407
137.543
141.8
146.173
150.659
155.252
159.946
164.735
169.611
174.569
179.598
184.692
189.84
195.034
200.264
205.519
210.786
216.054
221.309
226.54
231.734
236.881
241.969
246.988
251.931
256.79
261.557
266.224
270.78
275.22
279.537
283.725
287.78
291.697
295.472
299.106
302.603
305.964
309.189
312.273
315.208
317.99
320.623
323.111
325.46
327.679
329.779
331.781
333.719
335.623
337.519
339.427
341.361
343.346
345.417
347.606
349.949
352.467
355.168
358.059
361.148
364.42
367.856
371.42
375.048
378.678
382.253
385.705
388.977
392.009
394.71
396.971
398.743
400.053
401.012
401.819
402.667
403.706
405.136
407.235
410.157
413.822
417.923
421.896
425.188
427.514
428.626
428.205
426.268
423.297
420.228
418.574
419.923
425.419
436.156
453.284
477.377
508.333
545.278
586.365
629.399
672.323
712.685
747.685
774.923
792.464
799.136
794.724
779.361
753.542
718.771
677.335
631.69
584.412
537.75
493.581
453.938
420.475
393.768
373.595
359.239
349.589
343.602
340.164
337.658
334.553
329.958
323.469
315.101
305.12
293.682
281.002
267.625
254.149
240.935
228.107
215.526
202.921
190.089
176.866
163.025
148.309
132.552
115.689
97.79
79.043
59.671
39.884
19.883
-0.14
-20.048
-39.731
-59.083
-78.039
-96.545
-114.554
-132.035
-148.94
-165.199
-180.745
-195.549
-209.617
-223.002
-235.757
-247.917
-259.519
-270.585
-281.138
-291.2
-300.773
-309.838
-318.377
-326.373
-333.823
-340.74
-347.14
-353.026
-358.39
-363.212
-367.475
-371.172
-374.297
-376.845
-378.809
-380.189
-380.998
-381.26
-381
-380.24
-379.002
-377.304
-375.164
-372.607
-369.658
-366.342
-362.687
-358.719
-354.469
-349.966
-345.245
-340.335
-335.268
-330.072
-324.773
-319.4
-313.983
-308.548
-303.123
-297.734
-292.404
-287.161
-282.028
-277.026
-272.177
-267.499
-263.009
-258.723
-254.654
-250.815
-247.215
-243.863
-240.765
-237.927
-235.35
-233.038
-230.991
-229.206
-227.681
-226.411
-225.39
-224.611
-224.065
-223.742
-223.63
-223.717
-223.991
-224.439
-225.046
-225.799
-226.682
-227.682
-228.784
-229.972
-231.234
-232.553
-233.917
-235.311
-236.723
-238.141
-239.553
-240.948
-242.317
-243.65
-244.938
-246.175
-247.352
-248.464
-249.506
-250.472
-251.359
-252.164
-252.885
-253.519
-254.067
-254.526
-254.899
-255.184
-255.384
-255.499
-255.532
-255.484
-255.357
-255.153
-254.875
-254.526
-254.108
-253.624
-253.076
-252.468
-251.802
-251.08
-250.306
-249.481
-248.609
-247.691
-246.73
-245.727
-244.686
-243.608
-242.495
-241.35
-240.174
-238.97
-237.739
-236.483
-235.206
-233.908
-232.593
-231.261
-229.917
-228.562
-227.2
-225.832
-224.462
-223.094
-221.73
-220.374
-219.028
-217.696
-216.382
-215.087
-213.817
-212.572
-211.358
-210.176
-209.03
-207.923
-206.857
-205.835
-204.859
-203.933
-203.057
-202.235
-201.467
-200.755
-200.101
-199.506
-198.97
-198.495
-198.081
-197.728
-197.435
-197.202
-197.029
-196.914
-196.856
-196.853
-196.904
-197.006
-197.157
-197.356
-197.6
-197.888
-198.216
-198.584
-198.988
-199.426
-199.896
-200.396
-200.923
-201.474
-202.048
-202.642
-203.254
-203.881
-204.521
-205.171
-205.828
-206.49
-207.153
-207.814
-208.472
-209.123
-209.764
-210.393
-211.009
-211.608
-212.188
-212.747
-213.284
-213.797
-214.281
-214.737
-215.16
-215.55
-215.904
-216.219
-216.494
-216.725
-216.912
-217.051
-217.14
-217.178
-217.162
-217.089
-216.959
-216.77
-216.521
-216.211
-215.841
-215.412
-214.925
-214.382
-213.784
-213.134
-212.434
-211.685
-210.891
-210.054
-209.176
-208.262
-207.316
-206.341
-205.344
-204.33
-203.303
-202.269
-201.233
-200.203
-199.184
-198.182
-197.202
-196.251
-195.336
-194.466
-193.648
-192.889
-192.191
-191.561
-191.004
-190.526
-190.131
-189.819
-189.592
-189.452
-189.404
-189.453
-189.606
-189.865
-190.23
-190.708
-191.308
-192.044
-192.93
-193.97
-195.16
-196.499
-197.987
-199.622
-201.396
-203.296
-205.3
-207.397
-209.582
-211.852
-214.204
-216.613
-219.042
-221.45
-223.786
-226.013
-228.123
-230.121
-232.018
-233.866
-235.709
-237.595
-239.607
-241.746
-243.953
-246.137
-248.134
-249.798
-251.066
-251.92
-252.377
-252.637
-252.979
-253.696
-255.235
-257.967
-262.112
-267.788
-274.866
-282.798
-290.809
-298.145
-303.831
-306.866
-306.323
-301.281
-291.27
-276.6
-258.064
-236.455
-212.787
-188.344
-164.673
-143.698
-127.003
-115.295
-108.746
-107.554
-111.924
-121.732
-136.166
-153.55
-172.08
-190.45
-207.635
-222.454
-233.28
-238.454
-237.029
-229.082
-215.199
-195.924
-171.719
-143.228
-111.801
-79.319
-47.363
-16.782
12.068
38.972
63.6
85.605
105.2
123.234
140.609
157.848
175.11
192.377
209.738
227.441
245.471
263.412
280.692
296.921
311.974
325.902
338.753
350.452
360.97
370.462
379.214
387.471
395.354
402.899
410.095
416.999
423.713
430.289
436.729
443.009
449.094
454.969
460.64
466.092
471.286
476.172
480.686
484.789
488.473
491.733
494.574
496.989
498.959
500.478
501.558
502.214
502.468
502.341
501.848
501.017
499.889
498.509
496.931
495.193
493.32
491.336
489.258
487.104
484.894
482.641
480.349
478.023
475.672
473.303
470.926
468.546
466.158
463.759
461.343
458.907
456.448
453.961
451.442
448.888
446.295
443.661
440.985
438.264
435.491
432.661
429.767
426.8
423.754
420.622
417.394
414.064
410.624
407.068
403.39
399.585
395.648
391.573
387.357
382.996
378.488
373.83
369.021
364.061
358.95
353.691
348.285
342.737
337.049
331.227
325.277
319.203
313.013
306.715
300.316
293.825
287.252
280.608
273.904
267.153
260.367
253.561
246.747
239.94
233.156
226.409
219.714
213.088
206.544
200.1
193.769
187.567
181.51
175.61
169.883
164.342
158.999
153.866
148.955
144.277
139.842
135.658
131.734
128.077
124.693
121.587
118.763
116.224
113.971
112.005
110.323
108.925
107.805
106.959
106.38
106.06
105.991
106.161
106.559
107.173
107.989
108.993
110.17
111.504
112.978
114.576
116.281
118.074
119.939
121.857
123.811
125.784
127.758
129.716
131.641
133.516
135.328
137.06
138.698
140.229
141.64
142.921
144.06
145.049
145.879
146.544
147.037
147.354
147.492
147.448
147.222
146.813
146.223
145.455
144.51
143.393
142.108
140.662
139.058
137.305
135.408
133.375
131.214
128.931
126.536
124.035
121.438
118.751
115.982
113.139
110.229
107.259
104.236
101.165
98.053
94.905
91.726
88.52
85.291
82.043
78.778
75.499
72.208
68.907
65.596
62.278
58.952
55.619
52.281
48.938
45.591
42.239
38.885
35.529
32.172
28.816
25.461
22.109
18.763
15.426
12.1
8.789
5.497
2.228
-1.013
-4.221
-7.39
-10.517
-13.594
-16.616
-19.577
-22.471
-25.291
-28.03
-30.683
-33.242
-35.701
-38.055
-40.296
-42.421
-44.424
-46.302
-48.052
-49.67
-51.154
-52.502
-53.714
-54.789
-55.727
-56.53
-57.199
-57.737
-58.15
-58.442
-58.621
-58.694
-58.67
-58.557
-58.363
-58.098
-57.769
-57.384
-56.948
-56.47
-55.956
-55.416
-54.857
-54.287
-53.716
-53.148
-52.591
-52.048
-51.523
-51.016
-50.525
-50.048
-49.586
-49.14
-48.719
-48.326
-47.96
-47.614
-47.283
-46.954
-46.614
-46.245
-45.822
-45.318
-44.708
-43.97
-43.09
-42.054
-40.85
-39.458
-37.85
-35.999
-33.899
-31.558
-28.987
-26.202
-23.206
-20.007
-16.647
-13.189
-9.695
-6.237
-2.865
0.395
3.493
6.338
8.881
11.144
13.254
15.462
18.013
21.057
24.741
29.267
34.73
41.031
47.843
54.537
60.47
65.249
68.538
69.987
69.627
67.965
65.935
65.02
66.769
72.34
82.933
99.806
123.569
154.064
190.316
230.402
272.163
313.637
352.4
385.62
410.787
425.857
429.758
422.486
404.278
375.55
337.507
292.076
241.676
189.122
136.712
86.198
39.516
-1.618
-35.99
-62.77
-81.957
-94.316
-100.519
-101.191
-97.367
-89.996
-79.987
-68.463
-56.05
-42.999
-29.716
-16.659
-4.216
7.14
17.045
25.489
32.348
37.501
41.049
43.248
44.582
45.544
46.486
47.535
48.724
50.028
51.325
52.374
52.741
52.084
50.208
47.044
42.688
37.241
30.799
23.544
15.743
7.621
-0.636
-8.888
-17.074
-25.108
-32.872
-40.292
-47.314
-53.898
-60.021
-65.651
-70.744
-75.272
-79.225
-82.595
-85.389
-87.611
-89.258
-90.354
-90.944
-91.081
-90.831
-90.24
-89.328
-88.128
-86.685
-85.032
-83.199
-81.191
-78.975
-76.534
-73.866
-70.953
-67.775
-64.274
-60.346
-55.904
-50.881
-45.218
-38.88
-31.802
-23.872
-15.002
-5.132
5.786
17.762
30.83
45.059
60.476
77.065
94.757
113.419
132.934
153.226
174.201
195.763
217.781
240.061
262.423
284.722
306.796
328.477
349.566
369.813
389.012
407.034
423.793
439.248
453.36
466.051
477.271
486.997
495.229
502.009
507.384
511.378
514.054
515.524
515.921
515.426
514.201
512.325
509.869
506.906
503.494
499.72
495.664
491.37
486.891
482.287
477.599
472.871
468.123
463.323
458.442
453.445
448.297
443.026
437.657
432.188
426.635
421.016
415.34
409.638
403.935
398.208
392.465
386.735
381.044
375.448
369.989
364.675
359.517
354.493
349.574
344.748
339.983
335.215
330.384
325.411
320.207
314.721
308.887
302.607
295.806
288.392
280.292
271.467
261.89
251.55
240.457
228.614
216.048
202.834
189.07
174.88
160.42
145.829
131.243
116.81
102.67
88.966
75.835
63.4
51.763
40.998
31.188
22.417
14.746
8.2
2.758
-1.645
-5.085
-7.637
-9.361
-10.297
-10.492
-9.989
-8.815
-7.011
-4.595
-1.549
2.104
6.33
11.121
16.484
22.473
29.191
36.725
45.141
54.489
64.774
75.979
88.067
100.951
114.546
128.748
143.415
158.432
173.696
189.065
204.375
219.415
233.913
247.6
260.231
271.557
281.368
289.508
295.852
300.338
302.926
303.585
302.307
299.081
293.889
286.736
277.673
266.788
254.244
240.248
225.01
208.776
191.787
174.24
156.31
138.136
119.828
101.507
83.303
65.345
47.791
30.812
14.545
-0.884
-15.406
-29.02
-41.747
-53.657
-64.846
-75.388
-85.344
-94.761
-103.654
-112.051
-120.001
-127.548
-134.775
-141.789
-148.684
-155.57
-162.537
-169.614
-176.817
-184.113
-191.424
-198.694
-205.877
-212.943
-219.903
-226.768
-233.544
-240.257
-246.922
-253.551
-260.175
-266.789
-273.386
-279.991
-286.633
-293.383
-300.353
-307.631
-315.289
-323.385
-331.93
-340.934
-350.403
-360.304
-370.59
-381.193
-392.016
-402.993
-414.082
-425.221
-436.353
-447.392
-458.221
-468.747
-478.904
-488.626
-497.877
-506.62
-514.814
-522.451
-529.542
-536.116
-542.226
-547.902
-553.149
-557.988
-562.438
-566.535
-570.34
-573.887
-577.184
-580.236
-583.035
-585.572
-587.843
-589.826
-591.487
-592.79
-593.695
-594.176
-594.228
-593.827
-592.945
-591.53
-589.504
-586.811
-583.426
-579.335
-574.55
-569.099
-563.017
-556.357
-549.201
-541.617
-533.674
-525.434
-516.938
-508.252
-499.463
-490.7
-482.136
-473.935
-466.239
-459.157
-452.765
-447.117
-442.259
-438.208
-434.944
-432.45
-430.696
-429.659
-429.352
-429.722
-430.633
-431.839
-432.968
-433.649
-433.579
-432.522
-430.29
-426.853
-422.31
-416.911
-411.131
-405.435
-400.193
-395.583
-391.507
-387.555
-383.117
-377.484
-369.793
-359.149
-344.619
-325.581
-301.955
-274.187
-243.267
-210.385
-176.814
-144.152
-114.471
-89.765
-71.72
-61.615
-59.931
-66.921
-82.901
-107.603
-139.911
-178.191
-220.335
-264.093
-307.73
-349.36
-386.726
-417.916
-441.597
-457.262
-465.318
-466.554
-461.666
-451.735
-438.19
-422.459
-405.956
-389.443
-373.088
-356.991
-341.273
-325.973
-311.27
-297.405
-284.484
-273.001
-263.582
-256.632
-252.479
-251.233
-252.595
-256.062
-261.173
-267.272
-273.765
-280.279
-286.503
-292.293
-297.749
-303.079
-308.432
-313.966
-319.754
-325.725
-331.77
-337.728
-343.374
-348.468
-352.857
-356.458
-359.25
-361.288
-362.641
-363.391
-363.65
-363.548
-363.192
-362.645
-361.944
-361.108
-360.163
-359.141
-358.059
-356.921
-355.715
-354.426
-353.043
-351.55
-349.921
-348.121
-346.11
-343.846
-341.291
-338.422
-335.222
-331.68
-327.79
-323.55
-318.963
-314.039
-308.792
-303.234
-297.379
-291.238
-284.826
-278.16
-271.26
-264.148
-256.844
-249.369
-241.744
-233.989
-226.123
-218.163
-210.127
-202.033
-193.897
-185.736
-177.567
-169.409
-161.28
-153.2
-145.186
-137.254
-129.422
-121.704
-114.115
-106.667
-99.371
-92.239
-85.278
-78.497
-71.904
-65.505
-59.305
-53.307
-47.515
-41.931
-36.556
-31.388
-26.428
-21.672
-17.118
-12.762
-8.599
-4.624
-0.833
2.781
6.224
9.504
12.628
15.603
18.437
21.138
23.715
26.175
28.527
30.778
32.934
35.003
36.991
38.904
40.746
42.524
44.241
45.901
47.508
49.065
50.575
52.039
53.46
54.838
56.174
57.469
58.722
59.935
61.105
62.233
63.318
64.358
65.353
66.302
67.202
68.053
68.853
69.601
70.295
70.935
71.519
72.046
72.518
72.932
73.29
73.593
73.84
74.035
74.177
74.27
74.315
74.315
74.274
74.193
74.077
73.93
73.754
73.555
73.337
73.103
72.858
72.607
72.354
72.103
71.86
71.627
71.411
71.215
71.043
70.901
70.79
70.716
70.682
70.69
70.744
70.846
70.998
71.201
71.457
71.767
72.131
72.55
73.023
73.551
74.132
74.765
75.449
76.182
76.963
77.79
78.662
79.575
80.527
81.517
82.542
83.6
84.688
85.803
86.942
88.103
89.283
90.479
91.687
92.906
94.131
95.361
96.593
97.824
99.052
100.273
101.487
102.69
103.88
105.055
106.213
107.352
108.469
109.564
110.633
111.676
112.689
113.67
114.617
115.528
116.4
117.231
118.017
118.757
119.448
120.087
120.672
121.202
121.673
122.084
122.433
122.718
122.938
123.089
123.172
123.185
123.127
122.997
122.795
122.522
122.176
121.759
121.272
120.714
120.089
119.396
118.639
117.819
116.939
116.002
115.011
113.971
112.886
111.76
110.597
109.402
108.18
106.935
105.673
104.398
103.113
101.824
100.536
99.252
97.978
96.717
95.473
94.249
93.049
91.876
90.729
89.61
88.518
87.453
86.414
85.399
84.409
83.44
82.493
81.57
80.671
79.794
78.938
78.1
77.278
76.471
75.678
74.896
74.123
73.36
72.608
71.873
71.155
70.455
69.768
69.084
68.397
67.706
67.011
66.312
65.615
64.927
64.262
63.648
63.106
62.656
62.313
62.09
62.005
62.079
62.335
62.799
63.494
64.433
65.619
67.047
68.697
70.547
72.57
74.707
76.895
79.06
81.118
82.999
84.642
85.968
86.863
87.269
87.187
86.711
86.077
85.536
85.286
85.548
86.592
88.546
91.351
94.735
98.024
100.517
101.755
101.295
98.806
94.409
88.633
82.516
77.879
76.608
80.236
90.366
108.252
134.381
168.617
209.822
255.645
303.496
350.759
394.307
431.216
459.026
475.602
479.955
472.235
452.846
422.719
383.667
337.729
287.311
235.244
183.761
134.683
90.034
51.378
19.639
-4.475
-20.958
-30.534
-33.79
-31.39
-24.576
-14.446
-1.881
12.072
26.72
41.769
56.682
70.851
84.117
96.258
106.923
116.126
123.842
129.951
134.713
138.619
141.909
144.858
147.839
150.875
153.945
157.056
159.923
162.148
163.531
163.913
163.145
161.312
158.55
154.996
150.948
146.71
142.466
138.364
134.515
130.965
127.759
124.927
122.444
120.269
118.378
116.75
115.366
114.195
113.175
112.238
111.311
110.35
109.327
108.226
107.034
105.74
104.341
102.85
101.287
99.675
98.032
96.379
94.735
93.138
91.629
90.252
89.057
88.081
87.35
86.889
86.715
86.842
87.279
88.03
89.09
90.457
92.13
94.107
96.385
98.956
101.806
104.923
108.288
111.885
115.695
119.699
123.878
128.21
132.676
137.255
141.927
146.671
151.462
156.277
161.09
165.876
170.61
175.267
179.823
184.253
188.536
192.648
196.572
200.287
203.778
207.027
210.021
212.747
215.195
217.355
219.219
220.781
222.037
222.985
223.623
223.954
223.979
223.704
223.134
222.277
221.142
219.74
218.081
216.178
214.044
211.693
209.139
206.396
203.482
200.41
197.197
193.861
190.415
186.876
183.259
179.578
175.847
172.079
168.286
164.48
160.67
156.868
153.084
149.326
145.604
141.925
138.298
134.73
131.227
127.793
124.433
121.148
117.94
114.809
111.754
108.775
105.87
103.039
100.283
97.603
95.001
92.477
90.034
87.67
85.387
83.183
81.056
79.002
77.021
75.111
73.276
71.522
69.853
68.27
66.767
65.338
63.969
62.644
61.342
60.043
58.731
57.401
56.052
54.698
53.353
52.033
50.746
49.487
48.256
47.055
45.888
44.769
43.719
42.77
41.962
41.342
40.941
40.772
40.826
41.067
41.448
41.908
42.398
42.888
43.348
43.752
44.075
44.286
44.347
44.208
43.807
43.068
41.936
40.375
38.382
35.99
33.252
30.244
27.031
23.668
20.198
16.658
13.08
9.494
5.938
2.449
-0.916
-4.089
-7.009
-9.63
-11.931
-13.917
-15.613
-17.061
-18.301
-19.363
-20.27
-21.035
-21.664
-22.161
-22.526
-22.757
-22.864
-22.868
-22.788
-22.64
-22.433
-22.161
-21.811
-21.364
-20.8
-20.104
-19.264
-18.276
-17.141
-15.864
-14.455
-12.927
-11.292
-9.556
-7.725
-5.803
-3.798
-1.718
0.426
2.622
4.857
7.117
9.391
11.667
13.934
16.185
18.413
20.615
22.785
24.918
27.009
29.052
31.04
32.968
34.826
36.607
38.302
39.905
41.409
42.809
44.099
45.276
46.338
47.285
48.116
48.831
49.428
49.905
50.264
50.504
50.627
50.632
50.523
50.301
49.973
49.546
49.026
48.412
47.703
46.892
45.974
44.95
43.821
42.587
41.252
39.826
38.327
36.786
35.227
33.673
32.143
30.653
29.226
27.889
26.665
25.581
24.658
23.903
23.324
22.921
22.68
22.586
22.599
22.644
22.647
22.519
22.168
21.527
20.499
18.955
16.822
14.075
10.782
7.132
3.335
-0.432
-3.932
-6.885
-9.098
-10.5
-11.309
-12.058
-13.351
-15.719
-19.626
-25.491
-33.513
-43.497
-54.615
-65.354
-73.844
-78.223
-76.76
-67.758
-49.892
-22.514
14.072
58.34
107.847
159.81
211.158
258.213
297.473
325.86
340.748
341.666
329.148
302.937
264.325
214.018
152.81
86.341
19.568
-42.358
-93.763
-135.461
-168.693
-194.467
-215.251
-229.692
-236.874
-237.413
-231.516
-221.123
-207.858
-192.528
-176.305
-159.786
-143.379
-127.63
-112.615
-98.435
-85.54
-73.941
-63.386
-53.656
-44.264
-34.952
-25.83
-16.864
-7.893
0.975
9.509
17.373
24.003
29.11
32.689
34.673
35.038
33.856
31.233
27.428
22.835
17.72
12.247
6.596
0.93
-4.566
-9.687
-14.326
-18.45
-22.025
-25.031
-27.445
-29.251
-30.469
-31.15
-31.346
-31.102
-30.454
-29.433
-28.092
-26.509
-24.765
-22.947
-21.114
-19.3
-17.535
-15.835
-14.209
-12.653
-11.152
-9.68
-8.218
-6.75
-5.268
-3.769
-2.239
-0.661
0.983
2.718
4.554
6.497
8.546
10.696
12.939
15.261
17.644
20.063
22.499
24.933
27.351
29.74
32.085
34.372
36.586
38.712
40.737
42.648
44.436
46.091
47.604
48.968
50.179
51.234
52.131
52.868
53.44
53.847
54.087
54.16
54.065
53.805
53.379
52.79
52.042
51.139
50.085
48.886
47.547
46.072
44.469
42.743
40.9
38.946
36.888
34.731
32.482
30.146
27.73
25.24
22.681
20.058
17.377
14.644
11.863
9.039
6.176
3.279
0.353
-2.6
-5.575
-8.567
-11.574
-14.59
-17.613
-20.639
-23.663
-26.683
-29.695
-32.695
-35.679
-38.645
-41.588
-44.503
-47.388
-50.238
-53.049
-55.817
-58.538
-61.207
-63.821
-66.376
-68.868
-71.293
-73.648
-75.928
-78.131
-80.253
-82.291
-84.242
-86.104
-87.874
-89.552
-91.134
-92.621
-94.011
-95.305
-96.502
-97.603
-98.608
-99.52
-100.339
-101.068
-101.71
-102.267
-102.743
-103.141
-103.466
-103.72
-103.909
-104.037
-104.108
-104.126
-104.097
-104.024
-103.914
-103.769
-103.595
-103.397
-103.179
-102.944
-102.699
-102.445
-102.187
-101.929
-101.673
-101.422
-101.18
-100.949
-100.731
-100.527
-100.339
-100.169
-100.017
-99.884
-99.769
-99.674
-99.597
-99.538
-99.496
-99.471
-99.462
-99.467
-99.487
-99.519
-99.563
-99.618
-99.684
-99.757
-99.839
-99.927
-100.021
-100.12
-100.223
-100.329
-100.437
-100.547
-100.659
-100.771
-100.884
-100.996
-101.107
-101.217
-101.325
-101.432
-101.536
-101.639
-101.741
-101.841
-101.941
-102.039
-102.138
-102.236
-102.333
-102.431
-102.527
-102.622
-102.715
-102.805
-102.891
-102.973
-103.049
-103.118
-103.179
-103.231
-103.272
-103.302
-103.318
-103.32
-103.305
-103.273
-103.223
-103.154
-103.066
-102.959
-102.831
-102.684
-102.518
-102.333
-102.128
-101.906
-101.665
-101.408
-101.136
-100.851
-100.555
-100.25
-99.942
-99.636
-99.336
-99.05
-98.783
-98.54
-98.33
-98.157
-98.029
-97.947
-97.917
-97.945
-98.035
-98.196
-98.431
-98.745
-99.142
-99.626
-100.2
-100.866
-101.624
-102.469
-103.402
-104.422
-105.537
-106.756
-108.084
-109.523
-111.072
-112.729
-114.488
-116.342
-118.272
-120.252
-122.258
-124.269
-126.271
-128.251
-130.189
-132.06
-133.833
-135.476
-136.965
-138.283
-139.424
-140.384
-141.174
-141.816
-142.342
-142.812
-143.291
-143.842
-144.534
-145.428
-146.585
-148.092
-150.068
-152.583
-155.635
-159.134
-162.882
-166.663
-170.305
-173.598
-176.246
-178.041
-179.009
-179.418
-179.848
-180.936
-183.065
-186.518
-191.652
-198.56
-206.822
-215.535
-223.146
-227.835
-228.259
-223.25
-211.478
-192.084
-164.914
-130.52
-90.609
-47.572
-3.524
39.201
77.663
109.147
131.177
141.75
140.143
126.36
100.532
63.503
17.011
-36.755
-94.916
-154.363
-212.611
-267.279
-316.12
-357.439
-389.966
-413.128
-427.361
-433.704
-433.294
-427.604
-418.095
-406.126
-393.278
-380.803
-369.408
-359.364
-350.66
-343.111
-336.649
-331.249
-326.521
-322.018
-317.361
-312.384
-307.202
-301.96
-296.639
-291.118
-285.489
-280.049
-275.237
-271.392
-268.579
-266.76
-265.921
-266.096
-267.242
-269.17
-271.534
-274.017
-276.452
-278.761
-280.926
-282.919
-284.685
-286.195
-287.461
-288.48
-289.253
-289.779
-290.036
-290.026
-289.785
-289.366
-288.855
-288.349
-287.907
-287.562
-287.333
-287.214
-287.203
-287.303
-287.503
-287.794
-288.17
-288.618
-289.134
-289.715
-290.342
-290.985
-291.6
-292.124
-292.516
-292.753
-292.818
-292.705
-292.416
-291.953
-291.339
-290.608
-289.784
-288.89
-287.94
-286.939
-285.904
-284.859
-283.83
-282.853
-281.958
-281.163
-280.485
-279.94
-279.517
-279.194
-278.928
-278.652
-278.317
-277.881
-277.3
-276.548
-275.602
-274.434
-273.026
-271.357
-269.391
-267.106
-264.483
-261.501
-258.199
-254.632
-250.882
-247.069
-243.295
-239.659
-236.288
-233.306
-230.81
-228.898
-227.627
-227.045
-227.31
-228.567
-230.953
-234.587
-239.444
-245.504
-252.811
-261.363
-270.971
-281.325
-291.95
-302.431
-312.667
-322.331
-331.081
-338.708
-344.89
-350.576
-357.165
-364.656
-373.527
-381.751
-385.582
-385.707
-382.29
-379.528
-385.885
-401.005
-421.518
-436.337
-425.756
-379.999
-296.436
-183.117
-60.357
56.047
155.422
232.572
289.662
327.93
346.656
348.442
339.562
329.947
332.584
354.039
391.614
436.973
478.024
507.678
526.049
536.883
545.918
555.955
566.621
576.668
584.528
589.889
593.373
595.485
596.688
597.274
597.314
596.922
596.172
595.022
593.45
591.46
589.057
586.256
583.078
579.516
575.551
571.216
566.569
561.703
556.752
551.802
546.895
542.053
537.295
532.672
528.248
524.081
520.21
516.662
513.451
510.607
508.159
506.095
504.363
502.864
501.452
500.026
498.528
496.918
495.17
493.25
491.114
488.741
486.131
483.286
480.205
476.878
473.29
469.457
465.421
461.249
457.037
452.849
448.724
444.69
440.76
436.946
433.257
429.682
426.193
422.771
419.399
416.067
412.775
409.507
406.237
402.933
399.555
396.074
392.473
388.737
384.856
380.827
376.649
372.332
367.894
363.349
358.709
353.983
349.179
344.307
339.379
334.411
329.417
324.409
319.403
314.41
309.447
304.525
299.658
294.855
290.125
285.479
280.927
276.48
272.147
267.939
263.866
259.937
256.161
252.546
249.097
245.82
242.72
239.8
237.06
234.502
232.124
229.927
227.908
226.063
224.39
222.883
221.537
220.345
219.301
218.397
217.624
216.971
216.429
215.986
215.631
215.35
215.13
214.956
214.816
214.694
214.575
214.445
214.29
214.097
213.851
213.541
213.155
212.679
212.102
211.412
210.598
209.649
208.559
207.317
205.919
204.362
202.645
200.768
198.728
196.518
194.134
191.576
188.845
185.945
182.887
179.684
176.356
172.932
169.443
165.915
162.37
158.822
155.286
151.782
148.338
144.987
141.761
138.678
135.754
133.01
130.447
128.048
125.774
123.554
121.331
119.075
116.759
114.351
111.815
109.09
106.116
102.851
99.235
95.177
90.644
85.662
80.378
75.124
70.266
66.119
63.008
61.258
60.996
62.129
64.27
66.588
68.215
68.555
67.088
63.422
57.662
50.413
42.838
36.944
34.864
38.279
48.82
67.825
95.803
132.538
176.901
226.439
278.261
329.569
377.116
417.674
448.557
467.41
472.716
464.227
442.134
407.014
360.39
304.343
241.362
174.531
106.763
40.51
-21.548
-76.843
-123.396
-159.758
-185.406
-200.76
-206.466
-203.232
-192.493
-176.158
-156.321
-135.1
-113.994
-93.986
-76.072
-61.374
-50.561
-43.677
-40.274
-39.595
-41.118
-44.466
-49.066
-54.026
-58.466
-61.978
-64.591
-66.569
-68.098
-69.252
-70.164
-71.19
-72.822
-75.282
-78.481
-82.188
-86.152
-90.225
-94.32
-98.259
-101.751
-104.573
-106.627
-107.914
-108.511
-108.482
-107.844
-106.647
-104.988
-102.989
-100.786
-98.484
-96.129
-93.747
-91.366
-89.013
-86.73
-84.553
-82.487
-80.531
-78.686
-76.952
-75.337
-73.838
-72.434
-71.083
-69.743
-68.379
-66.972
-65.51
-63.984
-62.382
-60.694
-58.92
-57.063
-55.128
-53.116
-51.022
-48.842
-46.572
-44.217
-41.782
-39.273
-36.697
-34.056
-31.358
-28.608
-25.813
-22.979
-20.11
-17.21
-14.285
-11.344
-8.395
-5.451
-2.521
0.382
3.246
6.057
8.801
11.465
14.037
16.504
18.853
21.072
23.148
25.071
26.828
28.408
29.802
30.998
31.988
32.763
33.315
33.639
33.728
33.58
33.191
32.56
31.686
30.572
29.219
27.63
25.811
23.766
21.503
19.03
16.357
13.495
10.454
7.248
3.89
0.393
-3.228
-6.959
-10.784
-14.689
-18.658
-22.675
-26.726
-30.793
-34.862
-38.917
-42.943
-46.925
-50.849
-54.702
-58.471
-62.144
-65.711
-69.161
-72.485
-75.675
-78.724
-81.627
-84.378
-86.973
-89.41
-91.686
-93.802
-95.758
-97.554
-99.193
-100.679
-102.014
-103.204
-104.253
-105.168
-105.955
-106.619
-107.17
-107.614
-107.959
-108.214
-108.386
-108.485
-108.519
-108.496
-108.425
-108.312
-108.166
-107.993
-107.801
-107.595
-107.382
-107.165
-106.951
-106.742
-106.541
-106.352
-106.177
-106.016
-105.872
-105.743
-105.631
-105.534
-105.452
-105.383
-105.326
-105.278
-105.236
-105.199
-105.163
-105.125
-105.082
-105.03
-104.966
-104.887
-104.788
-104.667
-104.521
-104.346
-104.14
-103.9
-103.624
-103.312
-102.961
-102.57
-102.14
-101.67
-101.161
-100.614
-100.031
-99.412
-98.762
-98.081
-97.374
-96.643
-95.893
-95.126
-94.346
-93.559
-92.768
-91.979
-91.195
-90.422
-89.664
-88.927
-88.215
-87.533
-86.886
-86.279
-85.715
-85.2
-84.736
-84.328
-83.978
-83.689
-83.463
-83.303
-83.209
-83.182
-83.222
-83.329
-83.501
-83.737
-84.036
-84.393
-84.806
-85.273
-85.788
-86.348
-86.949
-87.584
-88.249
-88.938
-89.644
-90.362
-91.084
-91.803
-92.513
-93.206
-93.876
-94.515
-95.116
-95.673
-96.18
-96.629
-97.015
-97.332
-97.576
-97.741
-97.824
-97.822
-97.732
-97.552
-97.282
-96.921
-96.47
-95.931
-95.305
-94.596
-93.805
-92.939
-92.001
-90.997
-89.935
-88.821
-87.664
-86.475
-85.267
-84.049
-82.834
-81.634
-80.462
-79.329
-78.248
-77.227
-76.275
-75.403
-74.622
-73.942
-73.374
-72.924
-72.6
-72.408
-72.356
-72.446
-72.681
-73.057
-73.572
-74.228
-75.031
-75.989
-77.108
-78.387
-79.822
-81.405
-83.129
-84.981
-86.939
-88.967
-91.033
-93.108
-95.169
-97.196
-99.165
-101.038
-102.774
-104.33
-105.673
-106.782
-107.645
-108.254
-108.613
-108.739
-108.666
-108.454
-108.171
-107.881
-107.654
-107.559
-107.656
-108.039
-108.84
-110.13
-111.914
-114.097
-116.448
-118.724
-120.718
-122.166
-122.755
-122.285
-120.733
-118.394
-115.919
-113.991
-113.161
-113.876
-116.485
-121.061
-127.23
-133.977
-139.65
-142.35
-140.302
-131.976
-115.969
-91.292
-57.736
-15.977
32.336
84.813
138.877
191.841
240.575
281.993
313.502
333.038
339.435
332.367
311.817
278.312
233.432
179.511
119.28
55.82
-7.984
-69.459
-125.697
-173.957
-212.297
-239.784
-256.313
-262.571
-259.581
-248.552
-231.444
-210.779
-188.974
-167.894
-148.907
-132.728
-119.797
-110.636
-105.126
-102.431
-101.54
-101.453
-101.29
-100.687
-99.452
-97.015
-93.099
-88.028
-82.184
-76.116
-70.68
-65.386
-59.613
-54.517
-50.424
-49.065
-52.483
-57.942
-63.458
-66.451
-63.548
-57.609
-51.123
-45.783
-44.372
-44.956
-45.599
-45.911
-44.701
-42.706
-40.844
-38.963
-37.224
-35.607
-33.971
-32.462
-31.183
-30.098
-29.198
-28.484
-27.942
-27.542
-27.251
-27.026
-26.826
-26.644
-26.475
-26.292
-26.075
-25.799
-25.438
-24.975
-24.398
-23.688
-22.833
-21.822
-20.644
-19.296
-17.773
-16.071
-14.188
-12.12
-9.866
-7.426
-4.803
-2.002
0.972
4.111
7.405
10.844
14.413
18.1
21.89
25.766
29.712
33.71
37.742
41.789
45.833
49.853
53.829
57.743
61.574
65.302
68.908
72.372
75.677
78.805
81.739
84.465
86.967
89.233
91.251
93.013
94.508
95.731
96.677
97.341
97.721
97.817
97.631
97.166
96.427
95.419
94.151
92.632
90.871
88.882
86.675
84.265
81.666
78.892
75.96
72.887
69.688
66.383
62.988
59.521
56.002
52.448
48.876
45.304
41.749
38.227
34.755
31.346
28.015
24.776
21.641
18.622
15.729
12.971
10.357
7.895
5.589
3.445
1.466
-0.344
-1.985
-3.456
-4.758
-5.891
-6.858
-7.662
-8.308
-8.799
-9.142
-9.343
-9.408
-9.346
-9.164
-8.87
-8.473
-7.983
-7.407
-6.756
-6.038
-5.262
-4.438
-3.575
-2.681
-1.765
-0.834
0.102
1.037
1.963
2.876
3.768
4.634
5.471
6.273
7.038
7.762
8.443
9.08
9.669
10.212
10.707
11.154
11.554
11.908
12.217
12.483
12.708
12.895
13.045
13.163
13.251
13.312
13.35
13.368
13.37
13.36
13.341
13.317
13.292
13.269
13.25
13.24
13.24
13.253
13.281
13.326
13.388
13.47
13.571
13.692
13.833
13.994
14.175
14.375
14.593
14.827
15.076
15.339
15.613
15.896
16.186
16.48
16.777
17.073
17.366
17.652
17.929
18.194
18.444
18.675
18.885
19.071
19.23
19.36
19.459
19.526
19.558
19.555
19.515
19.439
19.325
19.174
18.986
18.762
18.503
18.209
17.884
17.528
17.144
16.734
16.3
15.847
15.376
14.89
14.394
13.89
13.382
12.873
12.369
11.872
11.387
10.918
10.47
10.046
9.65
9.288
8.96
8.672
8.426
8.225
8.071
7.968
7.915
7.915
7.969
8.079
8.244
8.464
8.739
9.068
9.449
9.882
10.364
10.894
11.467
12.08
12.732
13.417
14.132
14.872
15.631
16.405
17.186
17.969
18.744
19.504
20.24
20.944
21.607
22.22
22.775
23.264
23.683
24.026
24.289
24.465
24.548
24.533
24.415
24.191
23.859
23.417
22.86
22.192
21.418
20.541
19.565
18.489
17.305
16.009
14.603
13.089
11.475
9.772
7.991
6.152
4.287
2.426
0.598
-1.176
-2.883
-4.501
-6.005
-7.361
-8.524
-9.465
-10.166
-10.607
-10.786
-10.711
-10.404
-9.909
-9.29
-8.602
-7.906
-7.263
-6.736
-6.403
-6.333
-6.614
-7.379
-8.694
-10.552
-12.861
-15.38
-17.822
-19.94
-21.419
-21.897
-21.177
-19.254
-16.435
-13.405
-10.896
-9.507
-9.752
-12.041
-16.474
-22.662
-29.536
-35.362
-38.126
-35.958
-27.251
-10.444
15.578
51.066
95.349
146.604
202.143
259.211
314.94
365.832
408.54
440.233
458.551
462.498
452.119
427.512
389.436
339.852
281.179
216.426
149.129
81.992
17.377
-41.834
-93.21
-135.018
-166.018
-186.103
-196.06
-196.489
-188.277
-173.2
-153.206
-130.426
-106.985
-84.328
-63.491
-45.479
-31.04
-20.3
-12.968
-8.336
-5.485
-3.646
-2.077
-0.141
2.683
6.626
11.565
17.119
22.758
27.965
32.254
35.305
36.927
37.06
35.855
33.6
30.68
27.473
24.317
21.434
18.95
16.976
15.589
14.825
14.688
15.144
16.131
17.611
19.561
21.927
24.626
27.545
30.54
33.511
36.403
39.169
41.784
44.215
46.424
48.398
50.151
51.689
53.023
54.158
55.092
55.851
56.48
57.027
57.551
58.094
58.685
59.349
60.108
60.978
61.973
63.099
64.351
65.732
67.247
68.902
70.705
72.658
74.754
76.988
79.352
81.839
84.439
87.144
89.94
92.818
95.768
98.779
101.84
104.94
108.061
111.187
114.3
117.381
120.408
123.363
126.222
128.967
131.575
134.028
136.307
138.391
140.265
141.91
143.309
144.449
145.315
145.893
146.173
146.145
145.802
145.136
144.144
142.823
141.173
139.195
136.892
134.27
131.335
128.095
124.561
120.744
116.657
112.316
107.737
102.937
97.935
92.752
87.406
81.921
76.318
70.618
64.844
59.019
53.165
47.304
41.459
35.649
29.898
24.224
18.649
13.189
7.862
2.686
-2.325
-7.157
-11.797
-16.234
-20.457
-24.459
-28.233
-31.771
-35.071
-38.128
-40.941
-43.51
-45.836
-47.92
-49.767
-51.381
-52.766
-53.93
-54.88
-55.624
-56.171
-56.53
-56.713
-56.728
-56.588
-56.303
-55.886
-55.347
-54.699
-53.953
-53.12
-52.212
-51.239
-50.212
-49.142
-48.037
-46.908
-45.763
-44.61
-43.456
-42.31
-41.178
-40.066
-38.979
-37.922
-36.9
-35.916
-34.975
-34.078
-33.228
-32.426
-31.675
-30.975
-30.326
-29.728
-29.181
-28.684
-28.237
-27.838
-27.485
-27.178
-26.914
-26.691
-26.508
-26.363
-26.255
-26.181
-26.141
-26.132
-26.153
-26.204
-26.282
-26.386
-26.515
-26.668
-26.845
-27.043
-27.263
-27.503
-27.763
-28.042
-28.34
-28.656
-28.989
-29.34
-29.707
-30.092
-30.493
-30.91
-31.345
-31.796
-32.264
-32.749
-33.25
-33.768
-34.302
-34.852
-35.416
-35.994
-36.585
-37.187
-37.8
-38.421
-39.049
-39.683
-40.322
-40.962
-41.604
-42.244
-42.881
-43.514
-44.141
-44.759
-45.368
-45.965
-46.549
-47.118
-47.671
-48.205
-48.72
-49.212
-49.68
-50.122
-50.536
-50.921
-51.273
-51.592
-51.877
-52.126
-52.339
-52.515
-52.653
-52.753
-52.816
-52.84
-52.826
-52.774
-52.683
-52.555
-52.388
-52.185
-51.945
-51.669
-51.356
-51.008
-50.625
-50.208
-49.756
-49.271
-48.752
-48.202
-47.621
-47.011
-46.374
-45.711
-45.026
-44.32
-43.596
-42.856
-42.104
-41.342
-40.572
-39.798
-39.022
-38.248
-37.479
-36.72
-35.976
-35.252
-34.556
-33.893
-33.268
-32.69
-32.162
-31.691
-31.28
-30.932
-30.651
-30.442
-30.31
-30.26
-30.295
-30.417
-30.63
-30.935
-31.335
-31.827
-32.406
-33.068
-33.812
-34.642
-35.567
-36.593
-37.72
-38.949
-40.276
-41.698
-43.207
-44.786
-46.406
-48.038
-49.656
-51.239
-52.773
-54.238
-55.602
-56.828
-57.874
-58.705
-59.308
-59.668
-59.772
-59.628
-59.25
-58.671
-57.963
-57.2
-56.454
-55.811
-55.342
-55.122
-55.264
-55.906
-57.156
-59.053
-61.524
-64.37
-67.373
-70.314
-72.923
-74.878
-75.893
-75.851
-74.984
-73.866
-73.193
-73.599
-75.592
-79.575
-85.762
-93.963
-103.281
-112.106
-118.402
-120.054
-115.239
-102.305
-79.896
-47.361
-5.032
45.649
102.209
161.637
220.869
276.462
324.822
362.809
387.809
398.177
393.504
373.966
340.245
294.048
237.82
174.422
107.244
39.433
-26.431
-87.554
-141.388
-186.147
-220.54
-244.148
-257.495
-261.184
-255.923
-243.309
-225.202
-203.496
-180.299
-157.119
-134.995
-115.22
-98.887
-86.323
-77.495
-71.952
-68.753
-67.249
-66.824
-66.438
-65.224
-62.745
-58.793
-53.582
-47.682
-41.487
-35.424
-30.133
-26.029
-23.305
-22.031
-21.991
-22.823
-24.243
-25.943
-27.589
-29
-30.059
-30.677
-30.849
-30.561
-29.8
-28.599
-27.001
-25.03
-22.728
-20.143
-17.348
-14.46
-11.587
-8.796
-6.137
-3.624
-1.268
0.912
2.906
4.712
6.335
7.785
9.066
10.178
11.132
11.955
12.687
13.388
14.106
14.875
15.724
16.674
17.741
18.94
20.281
21.762
23.388
25.163
27.094
29.191
31.46
33.902
36.512
39.284
42.21
45.285
48.498
51.839
55.299
58.866
62.53
66.282
70.11
73.998
77.931
81.889
85.854
89.805
93.723
97.583
101.366
105.049
108.61
112.03
115.288
118.364
121.239
123.893
126.31
128.474
130.367
131.977
133.289
134.293
134.978
135.337
135.362
135.05
134.396
133.401
132.065
130.392
128.385
126.05
123.397
120.433
117.172
113.626
109.81
105.74
101.432
96.907
92.183
87.281
82.221
77.026
71.716
66.313
60.841
55.319
49.771
44.218
38.681
33.181
27.738
22.37
17.098
11.937
6.905
2.016
-2.714
-7.274
-11.652
-15.838
-19.822
-23.599
-27.162
-30.507
-33.631
-36.533
-39.213
-41.672
-43.912
-45.939
-47.755
-49.368
-50.784
-52.011
-53.058
-53.933
-54.646
-55.208
-55.628
-55.917
-56.086
-56.147
-56.11
-55.987
-55.787
-55.522
-55.203
-54.838
-54.439
-54.013
-53.57
-53.117
-52.661
-52.209
-51.767
-51.34
-50.932
-50.547
-50.188
-49.858
-49.557
-49.287
-49.048
-48.84
-48.663
-48.515
-48.395
-48.3
-48.23
-48.181
-48.152
-48.139
-48.14
-48.151
-48.171
-48.195
-48.222
-48.248
-48.27
-48.285
-48.292
-48.287
-48.27
-48.237
-48.188
-48.122
-48.037
-47.933
-47.81
-47.668
-47.507
-47.327
-47.131
-46.918
-46.692
-46.452
-46.201
-45.942
-45.675
-45.404
-45.13
-44.856
-44.583
-44.315
-44.052
-43.798
-43.553
-43.322
-43.104
-42.903
-42.72
-42.556
-42.414
-42.295
-42.199
-42.129
-42.085
-42.067
-42.076
-42.113
-42.177
-42.268
-42.385
-42.528
-42.696
-42.887
-43.1
-43.333
-43.584
-43.851
-44.131
-44.423
-44.723
-45.03
-45.339
-45.649
-45.957
-46.26
-46.554
-46.836
-47.105
-47.355
-47.585
-47.79
-47.967
-48.112
-48.222
-48.294
-48.325
-48.311
-48.249
-48.137
-47.973
-47.753
-47.478
-47.144
-46.75
-46.296
-45.781
-45.205
-44.568
-43.872
-43.117
-42.305
-41.438
-40.52
-39.553
-38.54
-37.486
-36.394
-35.269
-34.116
-32.942
-31.751
-30.55
-29.348
-28.154
-26.979
-25.83
-24.719
-23.656
-22.65
-21.712
-20.851
-20.072
-19.382
-18.787
-18.295
-17.914
-17.65
-17.509
-17.496
-17.614
-17.867
-18.258
-18.784
-19.441
-20.222
-21.126
-22.154
-23.315
-24.612
-26.042
-27.603
-29.284
-31.075
-32.961
-34.918
-36.909
-38.899
-40.859
-42.763
-44.597
-46.337
-47.956
-49.415
-50.675
-51.706
-52.487
-53
-53.247
-53.238
-53.003
-52.591
-52.062
-51.478
-50.908
-50.417
-50.073
-49.95
-50.111
-50.649
-51.694
-53.302
-55.449
-58.011
-60.692
-63.176
-65.215
-66.491
-66.62
-65.419
-62.938
-59.54
-56.058
-53.334
-51.917
-52.306
-54.914
-59.697
-66.09
-72.904
-78.047
-79.273
-74.791
-62.893
-42.136
-11.842
27.896
76.001
129.974
186.738
243.297
296.23
342.059
377.813
400.885
409.516
403.35
382.684
348.188
301.525
244.991
181.161
113.227
44.338
-22.963
-86.067
-142.429
-190.204
-228.063
-255.205
-271.816
-278.493
-275.778
-264.873
-247.514
-225.46
-200.587
-174.643
-148.856
-124.347
-102.451
-84.058
-69.414
-58.399
-50.523
-45.167
-41.841
-39.928
-38.435
-36.409
-33.372
-29.228
-24.163
-18.513
-12.529
-6.491
-0.942
3.509
6.549
8.123
8.381
7.627
6.088
3.959
1.558
-0.769
-2.775
-4.284
-5.243
-5.685
-5.614
-5.028
-3.955
-2.431
-0.515
1.721
4.224
6.935
9.796
12.744
15.694
18.573
21.332
23.923
26.324
28.53
30.528
32.322
33.925
35.349
36.616
37.758
38.796
39.763
40.691
41.614
42.576
43.615
44.756
46.019
47.419
48.964
50.664
52.522
54.534
56.698
59.012
61.47
64.072
66.813
69.684
72.675
75.774
78.968
82.245
85.592
88.998
92.447
95.926
99.42
102.917
106.401
109.855
113.262
116.603
119.858
123.011
126.041
128.929
131.659
134.211
136.571
138.723
140.652
142.346
143.792
144.98
145.898
146.54
146.899
146.968
146.744
146.225
145.41
144.3
142.898
141.208
139.236
136.989
134.476
131.706
128.692
125.446
121.981
118.313
114.458
110.432
106.253
101.94
97.51
92.982
88.377
83.712
79.006
74.278
69.546
64.827
60.139
55.498
50.92
46.419
42.01
37.705
33.517
29.457
25.534
21.757
18.134
14.67
11.372
8.243
5.286
2.503
-0.106
-2.54
-4.803
-6.895
-8.821
-10.584
-12.19
-13.643
-14.951
-16.119
-17.155
-18.065
-18.859
-19.542
-20.123
-20.609
-21.008
-21.328
-21.575
-21.757
-21.88
-21.951
-21.975
-21.958
-21.905
-21.821
-21.71
-21.575
-21.42
-21.247
-21.059
-20.858
-20.645
-20.421
-20.187
-19.943
-19.691
-19.428
-19.156
-18.874
-18.581
-18.276
-17.96
-17.631
-17.289
-16.933
-16.565
-16.183
-15.787
-15.379
-14.958
-14.526
-14.084
-13.633
-13.174
-12.711
-12.244
-11.776
-11.311
-10.85
-10.397
-9.954
-9.525
-9.113
-8.721
-8.352
-8.01
-7.697
-7.417
-7.173
-6.967
-6.801
-6.68
-6.603
-6.573
-6.592
-6.66
-6.777
-6.945
-7.163
-7.43
-7.745
-8.108
-8.517
-8.968
-9.461
-9.992
-10.558
-11.156
-11.781
-12.43
-13.098
-13.781
-14.475
-15.175
-15.877
-16.575
-17.265
-17.943
-18.603
-19.24
-19.851
-20.43
-20.973
-21.476
-21.936
-22.348
-22.709
-23.017
-23.269
-23.462
-23.595
-23.665
-23.672
-23.613
-23.489
-23.298
-23.04
-22.717
-22.328
-21.875
-21.359
-20.781
-20.145
-19.451
-18.702
-17.9
-17.047
-16.147
-15.204
-14.219
-13.198
-12.143
-11.059
-9.951
-8.824
-7.681
-6.529
-5.37
-4.211
-3.057
-1.912
-0.782
0.327
1.409
2.456
3.46
4.414
5.311
6.143
6.904
7.586
8.185
8.696
9.117
9.443
9.67
9.793
9.808
9.711
9.502
9.179
8.74
8.184
7.515
6.74
5.864
4.891
3.818
2.638
1.35
-0.044
-1.539
-3.13
-4.808
-6.563
-8.376
-10.215
-12.049
-13.852
-15.602
-17.287
-18.884
-20.364
-21.691
-22.823
-23.731
-24.403
-24.823
-24.98
-24.881
-24.543
-24.001
-23.328
-22.59
-21.852
-21.195
-20.686
-20.384
-20.372
-20.764
-21.648
-23.066
-24.967
-27.168
-29.487
-31.784
-33.865
-35.45
-36.266
-36.111
-35.088
-33.721
-32.504
-31.746
-31.813
-33.144
-36.223
-41.421
-47.777
-52.842
-54.477
-51.526
-45.033
-37.384
-28.789
-16.615
4.791
41.375
95.684
166.373
247.14
329.022
402.563
457.984
489.298
494.908
477.033
442.552
397.626
345.748
288.761
225.709
156.846
84.984
13.55
-53.083
-111.421
-159.771
-197.336
-224.062
-240.493
-247.472
-245.857
-236.8
-221.848
-202.628
-180.71
-157.446
-133.83
-110.642
-88.915
-69.809
-53.904
-41.27
-31.734
-24.938
-20.547
-18.248
-17.266
-16.382
-14.846
-12.396
-8.989
-4.88
-0.295
4.643
9.49
13.517
16.297
17.692
17.761
16.83
15.176
12.985
10.553
8.24
6.306
4.936
4.209
4.08
4.52
5.515
7.022
8.995
11.374
14.086
17.053
20.198
23.44
26.69
29.876
32.943
35.84
38.53
40.988
43.206
45.182
46.928
48.452
49.757
50.859
51.779
52.547
53.198
53.771
54.304
54.833
55.383
55.977
56.631
57.355
58.155
59.034
59.987
61.016
62.122
63.305
64.568
65.907
67.319
68.798
70.338
71.93
73.567
75.241
76.947
78.676
80.42
82.173
83.928
85.677
87.409
89.113
90.777
92.389
93.936
95.406
96.785
98.061
99.221
100.255
101.152
101.902
102.495
102.923
103.177
103.25
103.135
102.826
102.317
101.605
100.687
99.559
98.221
96.672
94.915
92.95
90.781
88.413
85.851
83.1
80.169
77.065
73.798
70.378
66.815
63.122
59.309
55.391
51.379
47.287
43.128
38.916
34.663
30.384
26.091
21.797
17.515
13.256
9.033
4.858
0.743
-3.303
-7.269
-11.143
-14.918
-18.585
-22.135
-25.561
-28.857
-32.018
-35.039
-37.915
-40.644
-43.223
-45.651
-47.927
-50.051
-52.024
-53.846
-55.521
-57.051
-58.438
-59.687
-60.801
-61.785
-62.642
-63.379
-63.999
-64.509
-64.913
-65.217
-65.426
-65.548
-65.586
-65.549
-65.441
-65.269
-65.038
-64.756
-64.427
-64.056
-63.65
-63.212
-62.749
-62.264
-61.762
-61.246
-60.72
-60.189
-59.654
-59.119
-58.586
-58.058
-57.537
-57.025
-56.524
-56.035
-55.56
-55.101
-54.659
-54.236
-53.833
-53.451
-53.092
-52.755
-52.442
-52.153
-51.889
-51.65
-51.436
-51.248
-51.085
-50.947
-50.836
-50.749
-50.689
-50.654
-50.645
-50.662
-50.704
-50.772
-50.866
-50.986
-51.132
-51.304
-51.502
-51.725
-51.973
-52.247
-52.544
-52.864
-53.207
-53.572
-53.957
-54.362
-54.785
-55.224
-55.679
-56.147
-56.628
-57.12
-57.62
-58.128
-58.642
-59.161
-59.681
-60.202
-60.72
-61.235
-61.742
-62.241
-62.727
-63.199
-63.652
-64.086
-64.495
-64.879
-65.234
-65.557
-65.846
-66.099
-66.312
-66.484
-66.611
-66.692
-66.724
-66.705
-66.635
-66.51
-66.331
-66.096
-65.804
-65.454
-65.046
-64.58
-64.054
-63.47
-62.827
-62.126
-61.368
-60.556
-59.691
-58.775
-57.813
-56.806
-55.761
-54.679
-53.566
-52.426
-51.262
-50.081
-48.888
-47.688
-46.487
-45.293
-44.114
-42.962
-41.843
-40.765
-39.735
-38.76
-37.849
-37.009
-36.246
-35.554
-34.943
-34.43
-34.03
-33.759
-33.62
-33.595
-33.685
-33.909
-34.255
-34.674
-35.125
-35.565
-35.986
-36.448
-36.975
-37.517
-38.132
-39.034
-40.267
-41.759
-43.53
-45.332
-47.55
-51.485
-56.834
-62.341
-65.983
-63.94
-56.363
-47.037
-39.703
-39.715
-47.453
-57.798
-66.79
-70.189
-67.222
-61.742
-56.19
-52.247
-50.517
-49.545
-48.693
-48.082
-47.755
-48.11
-49.334
-51.264
-53.756
-56.603
-59.57
-62.471
-65.07
-67.028
-68.081
-68.153
-67.531
-66.881
-66.812
-67.88
-70.672
-75.684
-83.279
-92.644
-101.405
-106.977
-106.935
-101.684
-94.362
-86.43
-78.058
-63.763
-33.243
20.686
102.242
205.17
312.902
407.209
469.818
493.624
483.802
451.153
410.256
368.645
326.098
279.924
225.521
162.296
93.818
23.827
-43.734
-105.941
-161.264
-208.375
-246.149
-274.059
-292.234
-301.013
-300.924
-292.939
-278.308
-258.585
-235.586
-210.846
-185.34
-159.885
-135.463
-113.007
-93.209
-76.424
-62.447
-50.925
-41.926
-35.503
-31.124
-28.181
-26.192
-24.642
-23.782
-23.393
-21.786
-18.709
-15.313
-13.615
-17.693
-27.648
-39.055
-47.601
-47.794
-39.246
-27.542
-16.959
-11.818
-13.128
-17.183
-21.653
-24.797
-25.689
-25.649
-25.315
-24.614
-23.633
-22.055
-19.76
-17.068
-14.28
-11.574
-9.084
-6.879
-4.95
-3.305
-1.95
-0.839
0.088
0.864
1.524
2.098
2.594
3.031
3.445
3.869
4.353
4.943
5.673
6.578
7.684
9
10.537
12.3
14.278
16.461
18.828
21.346
23.997
26.769
29.654
32.652
35.758
38.961
42.258
45.645
49.12
52.688
56.345
60.079
63.894
67.806
71.844
76.061
80.483
85.105
89.909
94.857
99.898
104.986
110.051
115.004
119.768
124.27
128.453
132.281
135.698
138.63
140.992
142.669
143.584
143.699
142.991
141.458
139.123
136.02
132.219
127.831
122.943
117.632
111.961
105.966
99.706
93.258
86.707
80.152
73.675
67.33
61.17
55.24
49.561
44.146
38.972
33.99
29.166
24.488
19.952
15.572
11.354
7.29
3.38
-0.381
-3.996
-7.459
-10.772
-13.937
-16.947
-19.788
-22.435
-24.849
-27.003
-28.884
-30.483
-31.803
-32.846
-33.612
-34.111
-34.359
-34.369
-34.153
-33.722
-33.085
-32.255
-31.249
-30.085
-28.784
-27.368
-25.853
-24.256
-22.594
-20.88
-19.129
-17.353
-15.557
-13.753
-11.948
-10.153
-8.378
-6.63
-4.917
-3.246
-1.624
-0.056
1.454
2.904
4.292
5.617
6.879
8.078
9.216
10.293
11.312
12.274
13.182
14.037
14.844
15.605
16.324
17.002
17.644
18.253
18.831
19.38
19.904
20.402
20.876
21.327
21.755
22.161
22.544
22.904
23.241
23.553
23.839
24.098
24.328
24.526
24.689
24.814
24.899
24.939
24.932
24.875
24.765
24.598
24.373
24.087
23.739
23.325
22.845
22.298
21.683
21
20.248
19.43
18.546
17.599
16.592
15.527
14.41
13.244
12.034
10.785
9.503
8.195
6.865
5.522
4.172
2.823
1.484
0.161
-1.136
-2.398
-3.618
-4.788
-5.897
-6.94
-7.909
-8.796
-9.593
-10.295
-10.895
-11.388
-11.768
-12.032
-12.174
-12.194
-12.088
-11.855
-11.497
-11.013
-10.405
-9.675
-8.827
-7.865
-6.794
-5.618
-4.344
-2.98
-1.534
-0.014
1.57
3.208
4.888
6.596
8.318
10.04
11.748
13.427
15.063
16.64
18.146
19.568
20.896
22.12
23.226
24.204
25.042
25.73
26.261
26.628
26.824
26.844
26.687
26.358
25.859
25.193
24.358
23.346
22.15
20.773
19.216
17.489
15.603
13.572
11.421
9.188
6.908
4.617
2.344
0.105
-2.077
-4.172
-6.148
-7.955
-9.555
-10.924
-12.042
-12.907
-13.529
-13.929
-14.151
-14.264
-14.342
-14.462
-14.689
-15.069
-15.659
-16.515
-17.737
-19.474
-21.791
-24.688
-28.1
-31.832
-35.639
-39.276
-42.349
-44.375
-45.113
-44.462
-42.499
-39.783
-37.072
-35.139
-34.936
-36.639
-39.24
-41.831
-44.019
-47.1
-53.298
-62.21
-69.471
-66.318
-44.518
-1.675
58.559
127.098
196.79
265.472
331.995
394.707
446.674
477.942
482.7
461.111
420.396
369.602
314.282
256.183
193.643
126.079
55.603
-14.47
-80.025
-138.41
-188.559
-229.75
-261.714
-284.489
-298.378
-304.132
-302.672
-294.602
-280.611
-261.64
-238.804
-213.401
-186.449
-158.658
-130.89
-104.319
-80.079
-59.111
-41.845
-28.107
-17.754
-10.697
-6.518
-4.513
-3.782
-3.321
-2.577
-1.482
0.007
1.875
3.944
5.966
7.539
8.153
7.608
5.977
3.388
0.087
-3.648
-7.562
-11.341
-14.656
-17.337
-19.324
-20.61
-21.26
-21.334
-20.886
-20.017
-18.833
-17.418
-15.84
-14.156
-12.421
-10.724
-9.145
-7.734
-6.522
-5.511
-4.701
-4.088
-3.655
-3.367
-3.18
-3.046
-2.924
-2.781
-2.577
-2.27
-1.81
-1.14
-0.22
0.984
2.496
4.332
6.505
9.025
11.894
15.103
18.643
22.506
26.681
31.163
35.938
40.989
46.299
51.843
57.595
63.54
69.658
75.927
82.328
88.826
95.381
101.976
108.592
115.171
121.662
128.016
134.175
140.126
145.874
151.363
156.524
161.427
166.163
170.634
174.822
178.726
182.068
185.52
189.74
193.75
197.249
198.461
195.266
190.001
184.221
180.25
181.28
184.495
187.514
188.711
185.39
179.503
173.028
166.421
160.898
155.788
150.223
144.398
138.227
131.797
125.317
118.698
111.874
104.907
97.832
90.667
83.443
76.195
68.953
61.763
54.669
47.687
40.832
34.13
27.6
21.26
15.129
9.221
3.545
-1.883
-7.053
-11.956
-16.584
-20.933
-24.998
-28.777
-32.271
-35.48
-38.407
-41.056
-43.433
-45.545
-47.399
-49.005
-50.372
-51.512
-52.436
-53.156
-53.685
-54.037
-54.224
-54.262
-54.162
-53.94
-53.608
-53.18
-52.668
-52.084
-51.442
-50.752
-50.026
-49.273
-48.504
-47.729
-46.956
-46.194
-45.45
-44.731
-44.042
-43.39
-42.78
-42.215
-41.699
-41.235
-40.825
-40.47
-40.173
-39.932
-39.75
-39.623
-39.553
-39.537
-39.574
-39.661
-39.797
-39.98
-40.206
-40.475
-40.783
-41.129
-41.51
-41.925
-42.371
-42.846
-43.349
-43.878
-44.432
-45.009
-45.607
-46.226
-46.864
-47.521
-48.194
-48.884
-49.588
-50.307
-51.039
-51.783
-52.539
-53.307
-54.084
-54.871
-55.667
-56.471
-57.282
-58.1
-58.923
-59.75
-60.579
-61.409
-62.237
-63.062
-63.88
-64.687
-65.481
-66.258
-67.013
-67.742
-68.44
-69.102
-69.724
-70.3
-70.826
-71.296
-71.705
-72.048
-72.321
-72.518
-72.634
-72.665
-72.607
-72.454
-72.203
-71.852
-71.395
-70.831
-70.157
-69.371
-68.47
-67.455
-66.323
-65.076
-63.714
-62.238
-60.651
-58.957
-57.158
-55.261
-53.271
-51.194
-49.039
-46.812
-44.523
-42.179
-39.792
-37.37
-34.925
-32.468
-30.009
-27.561
-25.139
-22.754
-20.422
-18.155
-15.969
-13.876
-11.891
-10.025
-8.29
-6.694
-5.248
-3.96
-2.841
-1.9
-1.143
-0.577
-0.207
-0.035
-0.066
-0.297
-0.722
-1.333
-2.125
-3.095
-4.246
-5.58
-7.09
-8.773
-10.621
-12.62
-14.756
-17.007
-19.335
-21.706
-24.084
-26.44
-28.75
-30.988
-33.122
-35.109
-36.906
-38.464
-39.746
-40.731
-41.41
-41.787
-41.886
-41.737
-41.379
-40.88
-40.325
-39.755
-39.184
-38.631
-38.131
-37.805
-37.864
-38.439
-39.521
-41.131
-43.364
-46.105
-49.052
-51.854
-53.815
-54.999
-56.617
-58.516
-59.898
-59.386
-53.813
-44.331
-35.19
-29.521
-32.299
-43.012
-57.224
-73.81
-88.091
-96.498
-95.624
-76.801
-37.253
21.674
95.644
175.22
255.625
333.949
405.641
465.667
506.218
522.164
514.448
488.797
452.577
410.042
361.774
306.166
242.478
172.673
100.264
29.028
-38.198
-99.615
-153.858
-199.849
-236.704
-263.923
-281.554
-289.85
-289.2
-280.371
-264.617
-243.499
-218.667
-191.75
-164.166
-137.351
-112.957
-92.321
-76.051
-64.184
-56.397
-52.125
-50.768
-51.518
-53.07
-54.103
-53.885
-52.188
-49.116
-44.976
-40.021
-34.527
-29.115
-24.525
-21.133
-19.021
-18.016
-17.755
-17.999
-18.595
-19.274
-19.726
-19.73
-19.135
-17.919
-16.171
-13.949
-11.296
-8.27
-4.927
-1.355
2.337
6.045
9.67
13.14
16.417
19.466
22.257
24.765
26.959
28.835
30.412
31.703
32.722
33.48
33.984
34.266
34.374
34.361
34.283
34.185
34.097
34.049
34.072
34.189
34.422
34.785
35.281
35.919
36.711
37.672
38.813
40.143
41.661
43.369
45.264
47.344
49.607
52.047
54.657
57.429
60.357
63.432
66.645
69.986
73.438
76.986
80.609
84.289
88.004
91.732
95.449
99.132
102.757
106.303
109.745
113.062
116.232
119.233
122.045
124.648
127.023
129.153
131.022
132.615
133.918
134.92
135.611
135.983
136.03
135.747
135.132
134.184
132.904
131.296
129.364
127.115
124.559
121.706
118.569
115.162
111.501
107.602
103.484
99.165
94.666
90.007
85.208
80.291
75.276
70.185
65.039
59.858
54.663
49.474
44.309
39.189
34.131
29.151
24.266
19.491
14.84
10.326
5.962
1.758
-2.278
-6.137
-9.813
-13.301
-16.598
-19.7
-22.608
-25.322
-27.843
-30.175
-32.322
-34.288
-36.08
-37.705
-39.169
-40.482
-41.652
-42.687
-43.598
-44.392
-45.081
-45.673
-46.178
-46.605
-46.965
-47.265
-47.515
-47.725
-47.902
-48.054
-48.191
-48.317
-48.442
-48.57
-48.706
-48.857
-49.025
-49.215
-49.429
-49.67
-49.94
-50.238
-50.566
-50.924
-51.31
-51.724
-52.164
-52.629
-53.115
-53.621
-54.145
-54.684
-55.235
-55.797
-56.367
-56.943
-57.521
-58.101
-58.679
-59.254
-59.823
-60.385
-60.937
-61.478
-62.007
-62.523
-63.025
-63.512
-63.984
-64.44
-64.882
-65.309
-65.723
-66.124
-66.514
-66.895
-67.268
-67.635
-67.998
-68.36
-68.722
-69.087
-69.457
-69.833
-70.217
-70.611
-71.015
-71.432
-71.86
-72.303
-72.758
-73.228
-73.712
-74.209
-74.72
-75.243
-75.778
-76.323
-76.877
-77.437
-78.002
-78.57
-79.136
-79.7
-80.256
-80.802
-81.335
-81.85
-82.342
-82.809
-83.244
-83.645
-84.006
-84.324
-84.593
-84.81
-84.97
-85.071
-85.109
-85.082
-84.986
-84.82
-84.582
-84.27
-83.884
-83.422
-82.884
-82.271
-81.582
-80.82
-79.986
-79.083
-78.113
-77.079
-75.987
-74.84
-73.644
-72.404
-71.127
-69.818
-68.485
-67.135
-65.777
-64.418
-63.07
-61.741
-60.444
-59.188
-57.986
-56.848
-55.784
-54.804
-53.917
-53.129
-52.445
-51.873
-51.419
-51.089
-50.889
-50.823
-50.893
-51.102
-51.45
-51.938
-52.562
-53.312
-54.183
-55.169
-56.269
-57.49
-58.832
-60.291
-61.86
-63.529
-65.288
-67.124
-69.012
-70.914
-72.797
-74.626
-76.376
-78.03
-79.561
-80.933
-82.106
-83.03
-83.669
-84.003
-84.012
-83.681
-83.018
-82.036
-80.77
-79.295
-77.68
-76
-74.35
-72.803
-71.428
-70.335
-69.661
-69.519
-69.974
-70.964
-72.277
-73.708
-75.075
-76.118
-76.51
-75.966
-74.324
-71.77
-68.969
-66.574
-65.032
-64.98
-67.053
-71.489
-78.415
-86.557
-92.929
-95.847
-94.292
-88.109
-79.064
-65.062
-41.384
-4.259
50.377
120.111
196.763
272.799
339.965
393.734
434.151
460.308
471.685
467.768
447.079
409.891
358.087
294.277
221.828
144.424
65.588
-11.627
-84.355
-150.015
-206.628
-252.714
-287.413
-310.881
-323.893
-327.192
-321.755
-308.973
-290.465
-268.177
-243.992
-219.147
-194.571
-171.367
-150.727
-133.545
-120.136
-110.164
-103.017
-98.311
-95.706
-94.606
-94.035
-92.954
-90.822
-87.631
-83.65
-79.137
-74.272
-69.276
-64.625
-60.938
-58.531
-57.395
-57.303
-57.91
-58.95
-60.233
-61.5
-62.422
-62.762
-62.39
-61.279
-59.505
-57.13
-54.189
-50.734
-46.836
-42.578
-38.062
-33.385
-28.637
-23.909
-19.272
-14.782
-10.495
-6.456
-2.697
0.766
3.935
6.823
9.44
11.795
13.906
15.798
17.51
19.086
20.572
22.014
23.45
24.911
26.424
28.011
29.687
31.467
33.362
35.381
37.534
39.83
42.272
44.859
47.582
50.423
53.363
56.377
59.448
62.564
65.724
68.934
72.202
75.54
78.948
82.419
85.942
89.511
93.12
96.768
100.464
104.228
108.085
112.066
116.19
120.454
124.837
129.291
133.757
138.162
142.449
146.572
150.492
154.174
157.583
160.682
163.424
165.752
167.601
168.891
169.563
169.582
168.943
167.676
165.834
163.495
160.726
157.582
154.114
150.36
146.358
142.145
137.763
133.258
128.692
124.144
119.678
115.349
111.185
107.192
103.354
99.636
96.009
92.451
88.947
85.494
82.093
78.749
75.47
72.264
69.131
66.056
63.028
60.037
57.083
54.175
51.331
48.577
45.936
43.428
41.069
38.867
36.824
34.94
33.209
31.619
30.164
28.84
27.643
26.572
25.623
24.788
24.06
23.429
22.883
22.413
22.009
21.661
21.362
21.107
20.89
20.71
20.563
20.447
20.357
20.289
20.24
20.204
20.179
20.16
20.144
20.128
20.11
20.088
20.06
20.027
19.986
19.938
19.881
19.814
19.738
19.651
19.554
19.445
19.324
19.191
19.045
18.886
18.713
18.526
18.324
18.106
17.871
17.62
17.35
17.062
16.754
16.426
16.077
15.707
15.315
14.903
14.468
14.012
13.534
13.034
12.512
11.967
11.401
10.812
10.202
9.57
8.918
8.245
7.554
6.844
6.117
5.375
4.619
3.85
3.071
2.283
1.488
0.689
-0.114
-0.917
-1.719
-2.518
-3.312
-4.099
-4.877
-5.645
-6.399
-7.138
-7.861
-8.565
-9.247
-9.908
-10.543
-11.152
-11.733
-12.283
-12.801
-13.284
-13.731
-14.14
-14.509
-14.836
-15.119
-15.358
-15.55
-15.696
-15.792
-15.84
-15.836
-15.782
-15.674
-15.513
-15.297
-15.026
-14.697
-14.313
-13.871
-13.372
-12.816
-12.203
-11.535
-10.811
-10.032
-9.201
-8.317
-7.383
-6.402
-5.375
-4.307
-3.201
-2.06
-0.888
0.309
1.526
2.759
4.002
5.249
6.496
7.736
8.961
10.166
11.343
12.483
13.576
14.614
15.585
16.481
17.292
18.007
18.617
19.115
19.494
19.749
19.873
19.86
19.703
19.397
18.939
18.325
17.554
16.625
15.537
14.296
12.907
11.377
9.711
7.909
5.966
3.878
1.65
-0.714
-3.208
-5.82
-8.538
-11.341
-14.195
-17.067
-19.925
-22.741
-25.496
-28.163
-30.708
-33.088
-35.252
-37.157
-38.775
-40.087
-41.074
-41.734
-42.074
-42.12
-41.933
-41.59
-41.164
-40.736
-40.382
-40.175
-40.225
-40.685
-41.674
-43.259
-45.396
-47.913
-50.616
-53.318
-55.747
-57.559
-58.451
-58.23
-57.046
-55.44
-53.989
-53.288
-53.944
-56.447
-61.177
-68.214
-76.846
-85.632
-92.976
-96.807
-94.87
-85.342
-66.187
-36.471
2.674
50.61
106.799
170.486
242.376
318.884
391.732
452.769
492.742
508.228
503.151
481.38
447.73
404.357
349.711
284.468
210.806
132.384
54.383
-19.272
-85.585
-142.061
-187.344
-220.712
-242.334
-253.346
-254.869
-248.127
-234.813
-216.785
-196.019
-174.253
-152.485
-131.318
-111.516
-94.012
-79.484
-68.11
-59.554
-53.324
-49.171
-46.895
-46.028
-45.668
-44.819
-42.937
-39.952
-36.07
-31.506
-26.428
-21.095
-16.03
-11.889
-9.04
-7.548
-7.257
-7.886
-9.201
-10.993
-12.99
-14.877
-16.433
-17.545
-18.156
-18.3
-17.997
-17.251
-16.09
-14.558
-12.696
-10.553
-8.197
-5.694
-3.118
-0.554
1.944
4.337
6.592
8.69
10.613
12.354
13.918
15.319
16.566
17.672
18.649
19.515
20.306
21.061
21.824
22.639
23.544
24.565
25.727
27.049
28.544
30.223
32.089
34.14
36.38
38.809
41.429
44.242
47.243
50.425
53.777
57.288
60.944
64.734
68.641
72.651
76.749
80.92
85.147
89.416
93.708
98.004
102.282
106.521
110.698
114.79
118.773
122.625
126.323
129.844
133.167
136.274
139.144
141.76
144.104
146.162
147.919
149.363
150.481
151.266
151.709
151.804
151.547
150.937
149.975
148.661
147
144.997
142.66
139.996
137.018
133.737
130.166
126.321
122.218
117.876
113.313
108.548
103.604
98.501
93.26
87.905
82.458
76.94
71.374
65.782
60.185
54.605
49.063
43.579
38.172
32.86
27.661
22.591
17.665
12.898
8.301
3.886
-0.337
-4.359
-8.173
-11.773
-15.155
-18.314
-21.251
-23.963
-26.452
-28.719
-30.767
-32.6
-34.223
-35.642
-36.863
-37.893
-38.741
-39.414
-39.922
-40.274
-40.481
-40.551
-40.497
-40.327
-40.052
-39.683
-39.23
-38.702
-38.11
-37.463
-36.769
-36.038
-35.277
-34.493
-33.695
-32.887
-32.077
-31.268
-30.465
-29.673
-28.895
-28.134
-27.393
-26.674
-25.98
-25.311
-24.67
-24.057
-23.473
-22.918
-22.392
-21.896
-21.429
-20.99
-20.578
-20.193
-19.834
-19.499
-19.188
-18.899
-18.631
-18.383
-18.153
-17.941
-17.745
-17.566
-17.402
-17.253
-17.119
-17.001
-16.898
-16.812
-16.742
-16.689
-16.653
-16.636
-16.637
-16.658
-16.698
-16.757
-16.837
-16.938
-17.059
-17.202
-17.366
-17.552
-17.76
-17.99
-18.244
-18.52
-18.82
-19.144
-19.493
-19.866
-20.264
-20.687
-21.135
-21.608
-22.106
-22.628
-23.172
-23.739
-24.326
-24.933
-25.557
-26.197
-26.851
-27.517
-28.194
-28.879
-29.57
-30.266
-30.964
-31.662
-32.359
-33.052
-33.74
-34.418
-35.085
-35.74
-36.377
-36.997
-37.594
-38.166
-38.711
-39.225
-39.705
-40.148
-40.551
-40.911
-41.225
-41.492
-41.708
-41.871
-41.979
-42.031
-42.026
-41.961
-41.838
-41.654
-41.41
-41.106
-40.74
-40.315
-39.831
-39.287
-38.685
-38.027
-37.314
-36.549
-35.734
-34.872
-33.967
-33.023
-32.043
-31.033
-29.998
-28.942
-27.872
-26.792
-25.71
-24.633
-23.568
-22.522
-21.504
-20.525
-19.593
-18.72
-17.912
-17.179
-16.531
-15.978
-15.528
-15.19
-14.97
-14.874
-14.91
-15.086
-15.408
-15.88
-16.503
-17.274
-18.195
-19.266
-20.486
-21.849
-23.346
-24.966
-26.704
-28.56
-30.532
-32.611
-34.788
-37.046
-39.372
-41.754
-44.175
-46.606
-49.018
-51.376
-53.649
-55.82
-57.869
-59.78
-61.545
-63.136
-64.524
-65.69
-66.6
-67.23
-67.602
-67.723
-67.587
-67.26
-66.838
-66.47
-66.431
-66.949
-68.093
-69.896
-72.383
-75.461
-78.97
-82.583
-85.587
-87.232
-87.107
-85.004
-80.893
-75.009
-67.686
-59.522
-51.841
-46.263
-44.013
-45.94
-52.367
-62.993
-77.237
-94.042
-111.331
-126.197
-135.545
-136.423
-126.42
-104.502
-70.906
-26.23
28.769
94.296
170.897
256.533
344.938
425.036
485.146
517.797
522.255
505.012
473.398
431.698
380.872
318.845
245.135
162.587
75.808
-9.908
-90.239
-162.135
-223.362
-272.443
-308.327
-330.99
-341.281
-340.077
-328.998
-310.336
-286.306
-259.267
-231.545
-204.625
-179.717
-158.235
-140.732
-127.009
-116.725
-109.069
-103.047
-98.124
-93.599
-88.42
-82.15
-74.804
-66.521
-57.83
-49.301
-41.235
-34.104
-28.563
-24.911
-23.219
-23.398
-25.086
-27.925
-31.635
-35.853
-40.157
-44.218
-47.775
-50.665
-52.852
-54.318
-55.047
-55.051
-54.361
-53.026
-51.109
-48.69
-45.84
-42.636
-39.17
-35.534
-31.83
-28.17
-24.647
-21.324
-18.242
-15.419
-12.86
-10.569
-8.54
-6.748
-5.16
-3.737
-2.444
-1.249
-0.118
0.991
2.125
3.334
4.657
6.121
7.744
9.539
11.517
13.685
16.044
18.587
21.307
24.198
27.255
30.476
33.854
37.378
41.034
44.808
48.687
52.656
56.702
60.808
64.958
69.135
73.322
77.504
81.661
85.774
89.821
93.78
97.629
101.347
104.911
108.3
111.494
114.473
117.218
119.714
121.944
123.895
125.552
126.905
127.945
128.664
129.054
129.111
128.832
128.217
127.265
125.98
124.364
122.424
120.166
117.601
114.737
111.588
108.166
104.487
100.566
96.419
92.067
87.527
82.819
77.965
72.984
67.899
62.731
57.502
52.233
46.944
41.657
36.391
31.164
25.997
20.905
15.905
11.013
6.244
1.61
-2.875
-7.2
-11.356
-15.332
-19.122
-22.719
-26.118
-29.313
-32.301
-35.081
-37.65
-40.01
-42.16
-44.103
-45.842
-47.379
-48.722
-49.874
-50.843
-51.636
-52.26
-52.724
-53.037
-53.208
-53.245
-53.159
-52.958
-52.653
-52.252
-51.765
-51.2
-50.568
-49.877
-49.134
-48.348
-47.526
-46.676
-45.805
-44.92
-44.027
-43.132
-42.241
-41.361
-40.495
-39.65
-38.829
-38.038
-37.279
-36.556
-35.871
-35.227
-34.625
-34.067
-33.553
-33.084
-32.66
-32.279
-31.943
-31.648
-31.395
-31.181
-31.004
-30.864
-30.757
-30.682
-30.637
-30.62
-30.629
-30.662
-30.717
-30.792
-30.883
-30.99
-31.108
-31.236
-31.37
-31.507
-31.645
-31.781
-31.913
-32.037
-32.151
-32.253
-32.342
-32.415
-32.471
-32.51
-32.53
-32.532
-32.516
-32.483
-32.433
-32.369
-32.291
-32.201
-32.101
-31.993
-31.878
-31.759
-31.637
-31.515
-31.394
-31.278
-31.169
-31.069
-30.981
-30.909
-30.854
-30.82
-30.81
-30.827
-30.873
-30.95
-31.062
-31.211
-31.399
-31.627
-31.895
-32.206
-32.557
-32.949
-33.38
-33.847
-34.347
-34.878
-35.435
-36.014
-36.612
-37.223
-37.843
-38.467
-39.088
-39.702
-40.303
-40.884
-41.438
-41.96
-42.443
-42.881
-43.266
-43.592
-43.854
-44.044
-44.156
-44.185
-44.125
-43.97
-43.716
-43.357
-42.891
-42.315
-41.628
-40.83
-39.92
-38.901
-37.775
-36.546
-35.218
-33.798
-32.29
-30.702
-29.042
-27.319
-25.542
-23.72
-21.865
-19.987
-18.101
-16.221
-14.365
-12.546
-10.78
-9.085
-7.474
-5.962
-4.562
-3.285
-2.14
-1.139
-0.293
0.387
0.89
1.206
1.329
1.257
0.991
0.538
-0.095
-0.898
-1.867
-2.999
-4.297
-5.765
-7.403
-9.21
-11.182
-13.306
-15.56
-17.911
-20.319
-22.752
-25.196
-27.641
-30.078
-32.468
-34.763
-36.909
-38.858
-40.581
-42.032
-43.142
-43.885
-44.316
-44.577
-44.838
-45.198
-45.62
-46.044
-46.513
-47.028
-47.479
-47.632
-47.238
-46.268
-45
-43.759
-42.592
-41.495
-40.554
-39.95
-39.909
-40.388
-41.025
-41.577
-42.254
-43.367
-45.264
-48.295
-52.634
-58.497
-65.282
-71.092
-73.915
-72.375
-67.603
-62.357
-57.418
-50.263
-33.189
2.865
63.319
147.407
245.038
341.798
422.89
477.354
503.552
505.72
491.615
468.394
437.969
398.888
348.379
285.453
212.278
133.058
52.782
-24.92
-97.466
-162.529
-218.453
-263.802
-297.526
-319.761
-331.275
-332.754
-325.211
-310.029
-288.73
-263.205
-235.382
-206.521
-177.479
-149.321
-123.135
-99.826
-80.115
-64.064
-51.247
-41.44
-34.506
-29.998
-27.226
-25.344
-23.437
-21.101
-18.399
-15.352
-12.001
-8.525
-5.185
-2.399
-0.668
-0.16
-0.726
-2.177
-4.249
-6.651
-9.14
-11.399
-13.087
-14.028
-14.174
-13.534
-12.189
-10.208
-7.643
-4.593
-1.178
2.505
6.352
10.279
14.216
18.063
21.729
25.153
28.286
31.111
33.627
35.833
37.739
39.374
40.767
41.955
42.975
43.857
44.637
45.358
46.064
46.807
47.628
48.557
49.621
50.837
52.216
53.772
55.507
57.419
59.505
61.763
64.194
66.798
69.573
72.512
75.606
78.845
82.219
85.718
89.332
93.046
96.848
100.724
104.66
108.644
112.658
116.685
120.706
124.699
128.644
132.521
136.307
139.98
143.519
146.904
150.114
153.131
155.937
158.514
160.846
162.918
164.718
166.232
167.45
168.363
168.962
169.243
169.2
168.832
168.137
167.116
165.772
164.108
162.131
159.849
157.269
154.403
151.263
147.862
144.216
140.34
136.253
131.971
127.515
122.905
118.16
113.302
108.351
103.329
98.256
93.152
88.038
82.933
77.856
72.826
67.86
62.974
58.186
53.509
48.957
44.542
40.277
36.172
32.235
28.475
24.898
21.509
18.312
15.311
12.506
9.898
7.486
5.267
3.238
1.394
-0.27
-1.762
-3.087
-4.255
-5.274
-6.154
-6.903
-7.532
-8.051
-8.47
-8.799
-9.048
-9.228
-9.347
-9.415
-9.441
-9.435
-9.404
-9.356
-9.299
-9.24
-9.184
-9.139
-9.109
-9.098
-9.112
-9.154
-9.227
-9.333
-9.474
-9.651
-9.866
-10.118
-10.407
-10.733
-11.094
-11.49
-11.92
-12.38
-12.87
-13.388
-13.932
-14.499
-15.088
-15.698
-16.325
-16.969
-17.629
-18.302
-18.987
-19.684
-20.392
-21.109
-21.835
-22.57
-23.312
-24.062
-24.819
-25.583
-26.354
-27.131
-27.914
-28.704
-29.501
-30.305
-31.115
-31.932
-32.755
-33.584
-34.419
-35.26
-36.105
-36.953
-37.804
-38.657
-39.51
-40.362
-41.211
-42.054
-42.889
-43.715
-44.528
-45.325
-46.104
-46.861
-47.594
-48.299
-48.974
-49.616
-50.221
-50.787
-51.311
-51.791
-52.222
-52.604
-52.933
-53.206
-53.422
-53.578
-53.673
-53.705
-53.672
-53.574
-53.408
-53.176
-52.875
-52.506
-52.069
-51.563
-50.99
-50.35
-49.645
-48.876
-48.044
-47.151
-46.2
-45.194
-44.135
-43.024
-41.866
-40.663
-39.419
-38.136
-36.818
-35.469
-34.092
-32.691
-31.271
-29.836
-28.391
-26.939
-25.487
-24.04
-22.603
-21.182
-19.783
-18.41
-17.071
-15.773
-14.521
-13.322
-12.183
-11.112
-10.116
-9.204
-8.385
-7.667
-7.057
-6.563
-6.193
-5.954
-5.851
-5.886
-6.064
-6.39
-6.868
-7.504
-8.298
-9.252
-10.365
-11.635
-13.063
-14.643
-16.364
-18.22
-20.2
-22.297
-24.517
-26.856
-29.307
-31.864
-34.512
-37.235
-40.018
-42.835
-45.651
-48.434
-51.146
-53.761
-56.261
-58.616
-60.801
-62.783
-64.516
-65.974
-67.125
-67.933
-68.391
-68.504
-68.293
-67.816
-67.109
-66.192
-65.186
-64.201
-63.341
-62.758
-62.457
-62.439
-62.906
-63.981
-65.543
-67.427
-69.236
-70.464
-71.025
-70.803
-69.35
-66.441
-62.222
-57.14
-52.192
-48.513
-46.725
-47.245
-50.601
-57.114
-65.699
-74.536
-82.146
-85.912
-85.212
-80.095
-66.289
-40.792
-0.839
56.105
124.625
197.724
270.446
337.362
397.346
451.264
495.344
523.907
532.132
514.791
471.688
409.164
332.461
247.498
161.44
76.58
-3.46
-74.03
-135.564
-187.007
-228.027
-260.733
-284.022
-297.585
-302.281
-298.176
-287.076
-271.083
-251.701
-230.505
-208.181
-185.117
-162.026
-139.7
-119.185
-101.157
-85.546
-72.151
-60.965
-51.912
-44.874
-39.382
-34.415
-29.323
-24.016
-18.549
-13.06
-7.695
-2.497
2.226
5.781
7.791
8.217
7.172
4.981
1.935
-1.787
-5.856
-9.791
-13.255
-16.038
-18.036
-19.305
-19.876
-19.732
-18.913
-17.485
-15.525
-13.13
-10.381
-7.329
-4.046
-0.614
2.87
6.282
9.533
12.572
15.368
17.917
20.215
22.258
24.062
25.659
27.085
28.378
29.574
30.697
31.785
32.878
34.025
35.28
36.682
38.257
40.024
41.995
44.178
46.583
49.207
52.04
55.073
58.3
61.716
65.315
69.09
73.025
77.106
81.315
85.635
90.05
94.541
99.089
103.672
108.272
112.868
117.44
121.967
126.425
130.79
135.036
139.14
143.076
146.82
150.348
153.637
156.665
159.412
161.86
163.992
165.791
167.243
168.336
169.06
169.404
169.362
168.929
168.101
166.878
165.26
163.25
160.854
158.078
154.932
151.425
147.572
143.387
138.885
134.084
129.004
123.664
118.086
112.293
106.309
100.157
93.862
87.449
80.943
74.37
67.755
61.121
54.493
47.894
41.349
34.878
28.504
22.247
16.126
10.16
4.367
-1.238
-6.641
-11.827
-16.784
-21.504
-25.976
-30.193
-34.149
-37.84
-41.263
-44.416
-47.299
-49.914
-52.263
-54.35
-56.18
-57.759
-59.095
-60.194
-61.068
-61.724
-62.173
-62.426
-62.495
-62.39
-62.125
-61.711
-61.161
-60.488
-59.704
-58.822
-57.855
-56.814
-55.712
-54.561
-53.371
-52.153
-50.919
-49.677
-48.437
-47.207
-45.995
-44.809
-43.654
-42.538
-41.464
-40.438
-39.462
-38.541
-37.677
-36.872
-36.128
-35.446
-34.825
-34.267
-33.771
-33.335
-32.959
-32.641
-32.378
-32.17
-32.012
-31.902
-31.838
-31.816
-31.832
-31.884
-31.968
-32.08
-32.218
-32.378
-32.557
-32.751
-32.959
-33.178
-33.405
-33.639
-33.878
-34.12
-34.365
-34.611
-34.858
-35.105
-35.352
-35.599
-35.847
-36.096
-36.346
-36.598
-36.853
-37.113
-37.379
-37.651
-37.932
-38.223
-38.526
-38.842
-39.174
-39.523
-39.89
-40.278
-40.688
-41.122
-41.58
-42.065
-42.576
-43.114
-43.68
-44.273
-44.893
-45.539
-46.209
-46.903
-47.617
-48.35
-49.099
-49.86
-50.629
-51.404
-52.18
-52.952
-53.718
-54.471
-55.208
-55.923
-56.612
-57.269
-57.89
-58.47
-59.001
-59.481
-59.902
-60.262
-60.554
-60.775
-60.92
-60.986
-60.969
-60.866
-60.674
-60.392
-60.017
-59.55
-58.989
-58.336
-57.593
-56.761
-55.845
-54.849
-53.777
-52.636
-51.431
-50.169
-48.855
-47.5
-46.11
-44.695
-43.264
-41.827
-40.396
-38.984
-37.604
-36.271
-34.996
-33.792
-32.672
-31.649
-30.736
-29.943
-29.279
-28.754
-28.376
-28.159
-28.109
-28.233
-28.534
-29.012
-29.669
-30.505
-31.519
-32.702
-34.048
-35.546
-37.193
-38.99
-40.935
-43.022
-45.241
-47.578
-50.018
-52.546
-55.14
-57.767
-60.393
-62.982
-65.5
-67.922
-70.218
-72.357
-74.315
-76.06
-77.562
-78.788
-79.698
-80.265
-80.493
-80.41
-80.032
-79.382
-78.513
-77.551
-76.723
-76.255
-76.267
-76.768
-77.751
-79.298
-81.409
-83.842
-86.041
-87.329
-87.254
-85.719
-82.784
-78.386
-72.614
-66.035
-59.788
-55.378
-54.013
-56.206
-62.03
-71.436
-83.938
-98.266
-112.329
-123.142
-127.58
-123.256
-108.144
-81.288
-43.369
4.602
61.541
127.333
202.657
285.467
369.179
442.549
493.824
516.642
511.908
487.192
450.779
406.782
355.656
295.368
225.171
147.685
67.191
-11.813
-85.703
-151.914
-208.698
-254.763
-289.091
-311.702
-323.165
-323.969
-315.204
-298.4
-275.223
-247.801
-218.272
-188.065
-158.538
-131.287
-107.532
-88.174
-73.63
-63.52
-57.185
-54.143
-53.683
-54.742
-56.224
-57.033
-56.511
-54.644
-51.641
-47.704
-43.172
-38.502
-34.266
-31.133
-29.443
-29.13
-29.979
-31.701
-33.988
-36.588
-39.183
-41.375
-42.927
-43.752
-43.836
-43.254
-42.066
-40.29
-37.989
-35.255
-32.17
-28.827
-25.316
-21.695
-18.05
-14.455
-10.962
-7.633
-4.5
-1.572
1.145
3.661
5.992
8.149
10.151
12.026
13.799
15.504
17.18
18.864
20.602
22.432
24.381
26.475
28.731
31.158
33.763
36.546
39.503
42.63
45.926
49.385
53.005
56.779
60.698
64.752
68.926
73.205
77.575
82.022
86.531
91.084
95.667
100.264
104.858
109.433
113.971
118.45
122.851
127.151
131.331
135.369
139.243
142.933
146.42
149.686
152.713
155.486
157.988
160.208
162.131
163.747
165.046
166.02
166.663
166.969
166.936
166.562
165.848
164.796
163.409
161.694
159.658
157.308
154.655
151.71
148.486
144.997
141.258
137.286
133.096
128.709
124.143
119.417
114.553
109.569
104.487
99.328
94.112
88.858
83.587
78.318
73.07
67.861
62.709
57.63
52.64
47.755
42.988
38.352
33.859
29.519
25.341
21.334
17.504
13.858
10.399
7.133
4.061
1.185
-1.496
-3.981
-6.274
-8.376
-10.292
-12.026
-13.585
-14.974
-16.2
-17.271
-18.194
-18.979
-19.633
-20.166
-20.586
-20.903
-21.125
-21.262
-21.322
-21.314
-21.247
-21.129
-20.967
-20.768
-20.539
-20.288
-20.019
-19.739
-19.453
-19.165
-18.88
-18.602
-18.334
-18.078
-17.839
-17.616
-17.413
-17.229
-17.066
-16.924
-16.803
-16.703
-16.622
-16.56
-16.516
-16.489
-16.478
-16.48
-16.494
-16.52
-16.555
-16.597
-16.647
-16.701
-16.759
-16.821
-16.884
-16.949
-17.014
-17.079
-17.142
-17.205
-17.266
-17.324
-17.381
-17.435
-17.487
-17.538
-17.586
-17.634
-17.68
-17.726
-17.773
-17.821
-17.871
-17.925
-17.982
-18.045
-18.114
-18.191
-18.275
-18.369
-18.473
-18.588
-18.714
-18.853
-19.005
-19.17
-19.349
-19.543
-19.751
-19.975
-20.213
-20.466
-20.734
-21.017
-21.314
-21.626
-21.951
-22.289
-22.639
-23.001
-23.373
-23.755
-24.144
-24.538
-24.936
-25.336
-25.735
-26.129
-26.517
-26.896
-27.263
-27.614
-27.948
-28.26
-28.547
-28.806
-29.035
-29.229
-29.385
-29.499
-29.568
-29.59
-29.56
-29.478
-29.339
-29.142
-28.884
-28.564
-28.18
-27.731
-27.215
-26.631
-25.98
-25.262
-24.479
-23.633
-22.726
-21.762
-20.744
-19.678
-18.567
-17.417
-16.234
-15.024
-13.795
-12.553
-11.308
-10.068
-8.844
-7.645
-6.484
-5.372
-4.32
-3.341
-2.447
-1.652
-0.969
-0.409
0.018
0.303
0.438
0.412
0.22
-0.144
-0.682
-1.395
-2.286
-3.359
-4.614
-6.046
-7.64
-9.383
-11.262
-13.269
-15.402
-17.656
-20.021
-22.485
-25.038
-27.674
-30.383
-33.144
-35.918
-38.658
-41.323
-43.887
-46.346
-48.698
-50.936
-53.025
-54.915
-56.555
-57.905
-58.956
-59.687
-60.047
-60.045
-59.744
-59.29
-58.955
-58.969
-59.382
-60.204
-61.402
-62.796
-64.297
-65.717
-66.51
-66.209
-64.598
-61.566
-57.325
-52.315
-46.646
-40.545
-34.786
-30.101
-27.16
-26.637
-28.624
-32.993
-40.238
-49.808
-59.672
-68.19
-73.288
-75.063
-76.891
-79.294
-80.109
-73.684
-50.324
-5.116
61.355
145.07
237.875
331.945
420.6
495.223
546.742
569.996
563.787
532.634
486.039
430.213
368.078
300.247
224.81
143.079
59.032
-23.052
-98.249
-163.333
-216.857
-257.78
-285.988
-302.017
-306.489
-300.602
-286.283
-265.632
-240.844
-214.185
-187.362
-161.756
-138.931
-120.089
-105.637
-95.452
-88.91
-85.032
-83.077
-82.304
-81.509
-79.526
-75.71
-69.873
-62.332
-53.691
-44.429
-35.013
-26.158
-18.625
-12.9
-9.194
-7.414
-7.255
-8.422
-10.636
-13.56
-16.812
-20.1
-23.196
-25.917
-28.191
-29.975
-31.23
-31.959
-32.175
-31.877
-31.082
-29.833
-28.17
-26.155
-23.854
-21.303
-18.557
-15.677
-12.739
-9.84
-7.051
-4.405
-1.922
0.388
2.518
4.461
6.234
7.873
9.416
10.899
12.351
13.79
15.246
16.754
18.352
20.084
21.982
24.063
26.343
28.835
31.546
34.483
37.642
41.01
44.574
48.327
52.259
56.363
60.628
65.037
69.572
74.215
78.948
83.752
88.606
93.488
98.375
103.245
108.077
112.849
117.537
122.119
126.568
130.861
134.972
138.878
142.555
145.979
149.131
151.989
154.535
156.754
158.629
160.149
161.301
162.076
162.466
162.466
162.071
161.281
160.096
158.518
156.552
154.206
151.487
148.406
144.977
141.214
137.135
132.756
128.099
123.184
118.034
112.673
107.127
101.421
95.581
89.635
83.609
77.531
71.428
65.327
59.254
53.235
47.294
41.456
35.743
30.178
24.781
19.572
14.568
9.786
5.241
0.947
-3.085
-6.843
-10.321
-13.511
-16.409
-19.011
-21.315
-23.323
-25.037
-26.459
-27.596
-28.455
-29.044
-29.374
-29.454
-29.297
-28.917
-28.327
-27.542
-26.578
-25.45
-24.175
-22.769
-21.247
-19.628
-17.926
-16.158
-14.339
-12.485
-10.61
-8.729
-6.856
-5.002
-3.18
-1.402
0.322
1.983
3.571
5.08
6.503
7.834
9.069
10.203
11.236
12.165
12.99
13.711
14.33
14.848
15.269
15.597
15.834
15.987
16.059
16.057
15.985
15.849
15.656
15.412
15.121
14.789
14.423
14.028
13.609
13.171
12.718
12.255
11.786
11.314
10.844
10.377
9.916
9.462
9.017
8.582
8.158
7.743
7.337
6.939
6.549
6.163
5.78
5.397
5.013
4.624
4.227
3.82
3.4
2.965
2.511
2.036
1.538
1.016
0.467
-0.11
-0.715
-1.349
-2.012
-2.705
-3.425
-4.173
-4.946
-5.744
-6.563
-7.401
-8.254
-9.118
-9.99
-10.864
-11.737
-12.602
-13.454
-14.289
-15.1
-15.882
-16.629
-17.335
-17.995
-18.604
-19.156
-19.645
-20.067
-20.418
-20.692
-20.886
-20.997
-21.021
-20.958
-20.805
-20.56
-20.224
-19.796
-19.277
-18.668
-17.971
-17.189
-16.325
-15.382
-14.367
-13.284
-12.139
-10.939
-9.691
-8.403
-7.082
-5.736
-4.374
-3.005
-1.637
-0.28
1.056
2.361
3.625
4.835
5.981
7.05
8.03
8.91
9.679
10.325
10.839
11.215
11.444
11.521
11.44
11.194
10.778
10.187
9.42
8.473
7.347
6.042
4.559
2.907
1.094
-0.873
-2.992
-5.265
-7.695
-10.278
-13.009
-15.88
-18.877
-21.987
-25.185
-28.436
-31.7
-34.941
-38.122
-41.223
-44.217
-47.071
-49.748
-52.2
-54.384
-56.273
-57.845
-59.089
-60.012
-60.634
-61.001
-61.188
-61.276
-61.356
-61.529
-61.879
-62.483
-63.424
-64.797
-66.753
-69.419
-72.828
-76.897
-81.436
-86.228
-91.053
-95.597
-99.397
-102.016
-103.213
-103.128
-102.238
-100.976
-99.909
-99.793
-101.272
-105.034
-110.792
-116.609
-121.235
-124.033
-124.779
-124.642
-121.056
-108.112
-81.419
-37.131
23.457
93.995
171.108
252.085
333.467
411.255
475.43
514.654
523.292
501.871
458.049
401.198
336.698
266.102
188.027
102.54
12.792
-76.678
-160.343
-233.986
-295.417
-343.327
-377.22
-397.514
-404.95
-400.417
-385.676
-363.001
-334.67
-303.071
-270.387
-238.2
-207.96
-181.336
-159.368
-142.274
-129.845
-121.393
-116.064
-113.165
-111.834
-110.745
-108.741
-105.315
-100.382
-94.248
-87.383
-80.115
-72.847
-66.293
-61.191
-57.923
-56.539
-56.807
-58.355
-60.91
-64.227
-67.943
-71.617
-74.887
-77.556
-79.556
-80.916
-81.69
-81.88
-81.51
-80.662
-79.376
-77.652
-75.548
-73.127
-70.333
-67.148
-63.718
-60.091
-56.422
-53.254
-50.041
-46.076
-42.27
-38.717
-37.503
-41.85
-49.195
-56.828
-60.599
-53.691
-38.952
-21.785
-6.767
-2.614
-8.448
-18.991
-31.882
-39.611
-40.297
-36.328
-26.904
-16.351
-7.507
-0.252
3.477
5.359
7.352
9.645
13.274
17.77
22.344
27.104
31.946
36.937
42.21
47.616
53.025
58.411
63.746
69.015
74.198
79.273
84.218
89.024
93.686
98.175
102.461
106.52
110.329
113.866
117.115
120.055
122.667
124.939
126.858
128.414
129.597
130.4
130.817
130.845
130.483
129.732
128.595
127.075
125.179
122.917
120.298
117.336
114.044
110.437
106.534
102.352
97.912
93.234
88.341
83.256
78.001
72.601
67.082
61.468
55.783
50.052
44.301
38.551
32.827
27.151
21.545
16.029
10.624
5.347
0.217
-4.75
-9.538
-14.134
-18.524
-22.698
-26.646
-30.359
-33.83
-37.053
-40.025
-42.743
-45.206
-47.413
-49.366
-51.068
-52.524
-53.737
-54.715
-55.465
-55.996
-56.317
-56.439
-56.372
-56.128
-55.719
-55.157
-54.456
-53.627
-52.684
-51.64
-50.509
-49.302
-48.034
-46.717
-45.363
-43.986
-42.596
-41.205
-39.825
-38.467
-37.139
-35.852
-34.615
-33.437
-32.324
-31.283
-30.322
-29.446
-28.66
-27.967
-27.371
-26.875
-26.48
-26.187
-25.996
-25.908
-25.921
-26.033
-26.241
-26.545
-26.939
-27.421
-27.986
-28.629
-29.347
-30.133
-30.982
-31.888
-32.846
-33.849
-34.891
-35.966
-37.067
-38.189
-39.326
-40.47
-41.617
-42.76
-43.894
-45.013
-46.112
-47.186
-48.232
-49.245
-50.221
-51.159
-52.054
-52.905
-53.71
-54.467
-55.177
-55.838
-56.451
-57.015
-57.533
-58.004
-58.431
-58.815
-59.159
-59.464
-59.733
-59.969
-60.174
-60.351
-60.503
-60.631
-60.74
-60.831
-60.908
-60.971
-61.024
-61.069
-61.106
-61.137
-61.162
-61.183
-61.2
-61.212
-61.22
-61.223
-61.22
-61.211
-61.193
-61.167
-61.129
-61.078
-61.011
-60.926
-60.82
-60.69
-60.535
-60.351
-60.137
-59.889
-59.606
-59.287
-58.931
-58.537
-58.102
-57.628
-57.116
-56.565
-55.98
-55.361
-54.713
-54.042
-53.353
-52.653
-51.951
-51.254
-50.568
-49.904
-49.266
-48.663
-48.103
-47.593
-47.141
-46.756
-46.445
-46.219
-46.086
-46.054
-46.129
-46.316
-46.617
-47.032
-47.561
-48.203
-48.963
-49.845
-50.851
-51.978
-53.221
-54.576
-56.033
-57.577
-59.18
-60.806
-62.423
-64.002
-65.52
-66.961
-68.303
-69.516
-70.562
-71.409
-72.038
-72.441
-72.619
-72.55
-72.217
-71.642
-70.88
-70.019
-69.158
-68.326
-67.512
-66.787
-66.291
-66.169
-66.585
-67.568
-69.026
-71.008
-73.62
-76.771
-80.16
-83.264
-85.413
-86.238
-85.654
-83.4
-79.281
-73.393
-66.131
-58.518
-51.876
-47.147
-45.125
-45.906
-48.294
-51.016
-52.459
-52.674
-54.481
-58.686
-63.457
-62.204
-43.499
-0.258
68.186
156.552
253.97
350.374
438.699
511.824
562.65
586.918
582.446
552.025
504.125
444.812
377.963
305.508
226.025
140.969
54.359
-29.873
-107.097
-174.144
-229.75
-273.008
-303.554
-321.908
-328.914
-325.543
-313.145
-293.325
-267.745
-238.314
-207.001
-175.169
-144.029
-114.948
-88.967
-66.852
-48.963
-34.981
-24.297
-16.48
-10.92
-6.745
-3.136
0.775
5.484
10.915
16.845
23.063
29.248
35.015
39.91
43.396
45.246
45.589
44.65
42.733
40.138
37.151
34.155
31.568
29.644
28.493
28.126
28.485
29.537
31.259
33.581
36.396
39.598
43.087
46.792
50.655
54.605
58.549
62.372
65.987
69.345
72.42
75.209
77.712
79.927
81.871
83.58
85.097
86.463
87.716
88.886
90.008
91.123
92.277
93.522
94.897
96.428
98.133
100.025
102.114
104.408
106.906
109.6
112.482
115.545
118.785
122.199
125.777
129.509
133.379
137.372
141.473
145.665
149.932
154.254
158.611
162.984
167.354
171.7
176.002
180.237
184.381
188.409
192.298
196.025
199.565
202.897
205.999
208.851
211.433
213.729
215.722
217.398
218.745
219.749
220.403
220.697
220.626
220.184
219.369
218.181
216.619
214.688
212.392
209.738
206.735
203.394
199.727
195.748
191.474
186.922
182.111
177.061
171.793
166.329
160.691
154.902
148.987
142.968
136.87
130.715
124.527
118.329
112.141
105.987
99.886
93.858
87.922
82.096
76.398
70.844
65.448
60.226
55.19
50.351
45.721
41.307
37.119
33.161
29.439
25.956
22.714
19.713
16.953
14.431
12.145
10.089
8.259
6.648
5.249
4.053
3.053
2.239
1.601
1.13
0.816
0.647
0.614
0.707
0.914
1.225
1.629
2.117
2.677
3.299
3.972
4.688
5.436
6.207
6.991
7.782
8.57
9.348
10.109
10.848
11.558
12.234
12.873
13.469
14.019
14.521
14.973
15.372
15.718
16.009
16.245
16.426
16.552
16.623
16.64
16.603
16.514
16.373
16.183
15.945
15.66
15.332
14.963
14.555
14.111
13.633
13.126
12.591
12.032
11.452
10.853
10.238
9.611
8.972
8.326
7.674
7.018
6.36
5.702
5.044
4.389
3.737
3.09
2.447
1.81
1.178
0.553
-0.065
-0.676
-1.281
-1.878
-2.469
-3.053
-3.63
-4.203
-4.77
-5.334
-5.894
-6.451
-7.008
-7.563
-8.118
-8.674
-9.231
-9.788
-10.347
-10.908
-11.469
-12.03
-12.591
-13.151
-13.708
-14.262
-14.81
-15.35
-15.882
-16.402
-16.908
-17.398
-17.869
-18.318
-18.743
-19.141
-19.51
-19.846
-20.149
-20.414
-20.639
-20.823
-20.963
-21.056
-21.1
-21.095
-21.039
-20.932
-20.773
-20.563
-20.302
-19.993
-19.636
-19.236
-18.796
-18.317
-17.806
-17.267
-16.705
-16.126
-15.538
-14.946
-14.359
-13.789
-13.244
-12.735
-12.273
-11.869
-11.534
-11.278
-11.111
-11.039
-11.07
-11.21
-11.468
-11.85
-12.366
-13.021
-13.82
-14.766
-15.864
-17.114
-18.514
-20.056
-21.734
-23.541
-25.475
-27.545
-29.753
-32.096
-34.572
-37.17
-39.878
-42.68
-45.55
-48.447
-51.332
-54.167
-56.919
-59.567
-62.085
-64.44
-66.592
-68.489
-70.082
-71.339
-72.233
-72.751
-72.902
-72.706
-72.207
-71.474
-70.586
-69.634
-68.709
-67.89
-67.256
-66.88
-66.881
-67.448
-68.7
-70.645
-73.196
-76.115
-79.133
-82.014
-84.374
-85.691
-85.647
-84.202
-81.626
-78.574
-75.813
-74.11
-74.343
-77.367
-82.852
-89.269
-94.963
-98.308
-99.645
-100.471
-99.795
-94.07
-76.677
-40.411
17.544
95.712
187.825
284.687
376.865
453.915
508.17
536.023
538.161
520.985
490.73
450.793
401.964
342.19
270.956
190.799
105.853
20.932
-60.206
-135.003
-201.325
-257.553
-302.304
-334.804
-355.152
-363.564
-360.654
-347.67
-326.3
-298.698
-267.268
-234.175
-201.314
-170.646
-143.87
-122.156
-105.984
-95.058
-88.622
-85.759
-85.42
-86.362
-87.261
-86.946
-84.828
-80.899
-75.445
-68.922
-61.836
-54.753
-48.395
-43.497
-40.414
-39.14
-39.471
-41.062
-43.604
-46.818
-50.315
-53.643
-56.476
-58.638
-60.072
-60.823
-60.916
-60.346
-59.143
-57.37
-55.108
-52.445
-49.452
-46.178
-42.679
-39.023
-35.299
-31.615
-28.063
-24.697
-21.551
-18.636
-15.961
-13.537
-11.361
-9.408
-7.644
-6.03
-4.534
-3.131
-1.791
-0.478
0.852
2.252
3.759
5.399
7.19
9.146
11.276
13.591
16.092
18.772
21.623
24.637
27.81
31.138
34.615
38.228
41.961
45.8
49.729
53.734
57.797
61.901
66.027
70.155
74.269
78.349
82.376
86.327
90.181
93.912
97.498
100.917
104.145
107.158
109.937
112.459
114.708
116.665
118.314
119.642
120.635
121.283
121.578
121.512
121.081
120.281
119.112
117.576
115.675
113.417
110.808
107.858
104.578
100.983
97.086
92.905
88.458
83.765
78.846
73.723
68.421
62.961
57.369
51.67
45.887
40.048
34.176
28.297
22.434
16.611
10.852
5.176
-0.394
-5.84
-11.144
-16.288
-21.257
-26.037
-30.616
-34.983
-39.128
-43.045
-46.727
-50.171
-53.372
-56.331
-59.048
-61.525
-63.764
-65.77
-67.549
-69.107
-70.453
-71.593
-72.539
-73.3
-73.886
-74.309
-74.58
-74.711
-74.714
-74.601
-74.383
-74.072
-73.68
-73.217
-72.693
-72.12
-71.507
-70.861
-70.193
-69.509
-68.817
-68.122
-67.429
-66.744
-66.069
-65.409
-64.766
-64.141
-63.536
-62.952
-62.389
-61.847
-61.326
-60.825
-60.343
-59.879
-59.432
-59.001
-58.584
-58.179
-57.786
-57.404
-57.03
-56.664
-56.306
-55.953
-55.607
-55.266
-54.93
-54.599
-54.275
-53.958
-53.648
-53.348
-53.059
-52.782
-52.521
-52.277
-52.054
-51.853
-51.678
-51.53
-51.413
-51.329
-51.28
-51.269
-51.296
-51.363
-51.472
-51.623
-51.816
-52.052
-52.33
-52.648
-53.007
-53.404
-53.837
-54.305
-54.804
-55.331
-55.884
-56.457
-57.049
-57.653
-58.265
-58.88
-59.493
-60.096
-60.685
-61.253
-61.793
-62.298
-62.763
-63.18
-63.542
-63.845
-64.08
-64.244
-64.329
-64.331
-64.245
-64.067
-63.793
-63.419
-62.943
-62.363
-61.677
-60.884
-59.984
-58.975
-57.858
-56.634
-55.305
-53.872
-52.337
-50.704
-48.977
-47.159
-45.257
-43.277
-41.224
-39.106
-36.932
-34.71
-32.449
-30.157
-27.845
-25.522
-23.2
-20.889
-18.6
-16.345
-14.137
-11.989
-9.915
-7.925
-6.032
-4.249
-2.587
-1.06
0.322
1.551
2.617
3.513
4.229
4.754
5.084
5.215
5.147
4.878
4.407
3.732
2.859
1.796
0.552
-0.865
-2.456
-4.218
-6.146
-8.231
-10.459
-12.816
-15.288
-17.859
-20.501
-23.186
-25.879
-28.543
-31.151
-33.677
-36.093
-38.375
-40.492
-42.403
-44.068
-45.446
-46.51
-47.257
-47.713
-47.892
-47.791
-47.455
-47.005
-46.643
-46.586
-46.945
-47.689
-48.789
-50.385
-52.562
-55.186
-57.84
-59.912
-60.998
-61.091
-60.284
-58.38
-55.222
-51.02
-46.492
-42.825
-41.065
-41.776
-45.255
-51.956
-61.485
-72.127
-81.752
-88.465
-92.697
-96.609
-100.513
-100.467
-87.631
-53.032
7.097
88.711
180.401
270.608
351.684
420.225
476.989
522.008
553.135
567.804
563.398
539.017
495.797
436.067
363.119
280.533
192.31
102.583
14.951
-67.007
-140.018
-201.732
-250.53
-285.567
-307.19
-316.335
-313.964
-301.854
-282.393
-257.921
-230.828
-203.185
-176.326
-151.413
-129.808
-112.27
-98.762
-88.835
-81.651
-76.38
-72.53
-69.503
-66.314
-62.097
-56.525
-49.73
-42.173
-34.382
-26.684
-19.368
-12.965
-8.065
-4.989
-3.765
-4.179
-5.867
-8.532
-11.971
-15.892
-19.94
-23.816
-27.256
-30.12
-32.389
-34.055
-35.105
-35.543
-35.382
-34.651
-33.418
-31.749
-29.706
-27.349
-24.719
-21.865
-18.859
-15.781
-12.737
-9.798
-7.001
-4.364
-1.897
0.394
2.502
4.441
6.252
7.973
9.637
11.274
12.899
14.536
16.222
17.994
19.894
21.952
24.184
26.605
29.222
32.044
35.072
38.302
41.718
45.305
49.053
52.952
56.992
61.162
65.442
69.815
74.262
78.764
83.302
87.855
92.403
96.925
101.399
105.806
110.128
114.342
118.429
122.365
126.13
129.702
133.06
136.185
139.056
141.655
143.967
145.976
147.669
149.034
150.062
150.743
151.071
151.042
150.653
149.903
148.793
147.326
145.508
143.344
140.844
138.018
134.877
131.435
127.706
123.708
119.458
114.973
110.275
105.384
100.321
95.108
89.769
84.325
78.801
73.219
67.603
61.975
56.358
50.775
45.245
39.789
34.428
29.178
24.059
19.085
14.271
9.632
5.178
0.922
-3.129
-6.965
-10.581
-13.972
-17.133
-20.063
-22.76
-25.225
-27.459
-29.465
-31.246
-32.809
-34.158
-35.3
-36.244
-36.997
-37.568
-37.968
-38.205
-38.292
-38.237
-38.053
-37.75
-37.339
-36.831
-36.237
-35.566
-34.83
-34.037
-33.197
-32.317
-31.405
-30.469
-29.516
-28.551
-27.58
-26.607
-25.638
-24.676
-23.725
-22.787
-21.865
-20.96
-20.074
-19.208
-18.364
-17.541
-16.741
-15.962
-15.206
-14.471
-13.758
-13.066
-12.394
-11.742
-11.11
-10.497
-9.904
-9.329
-8.775
-8.241
-7.728
-7.239
-6.774
-6.336
-5.927
-5.548
-5.203
-4.894
-4.623
-4.393
-4.207
-4.067
-3.975
-3.934
-3.945
-4.011
-4.133
-4.311
-4.547
-4.841
-5.194
-5.605
-6.073
-6.598
-7.177
-7.81
-8.494
-9.225
-10.002
-10.819
-11.673
-12.559
-13.47
-14.401
-15.345
-16.295
-17.245
-18.186
-19.111
-20.011
-20.88
-21.709
-22.491
-23.219
-23.885
-24.483
-25.006
-25.448
-25.803
-26.067
-26.235
-26.302
-26.265
-26.122
-25.871
-25.51
-25.038
-24.455
-23.761
-22.959
-22.05
-21.037
-19.924
-18.716
-17.417
-16.034
-14.576
-13.048
-11.461
-9.823
-8.144
-6.433
-4.703
-2.962
-1.221
0.508
2.214
3.887
5.515
7.087
8.592
10.016
11.349
12.577
13.689
14.673
15.518
16.214
16.751
17.124
17.327
17.354
17.203
16.867
16.343
15.629
14.725
13.632
12.351
10.885
9.242
7.433
5.47
3.365
1.123
-1.257
-3.774
-6.422
-9.194
-12.079
-15.063
-18.131
-21.255
-24.397
-27.518
-30.578
-33.546
-36.399
-39.112
-41.651
-43.978
-46.041
-47.794
-49.205
-50.247
-50.906
-51.187
-51.114
-50.733
-50.116
-49.343
-48.507
-47.695
-46.983
-46.445
-46.149
-46.207
-46.8
-48.061
-50.027
-52.643
-55.717
-59.018
-62.335
-65.315
-67.437
-68.278
-67.704
-65.903
-63.376
-60.842
-59.019
-58.672
-60.889
-65.647
-71.335
-76.387
-79.031
-79.753
-81.858
-85.466
-87.35
-80.124
-52.861
-0.731
74.775
167.476
266.156
361.766
446.947
513.545
556.481
573.208
564.31
535.548
492.844
439.525
377.253
305.458
224.594
137.895
49.681
-35.269
-113.091
-181.274
-238.15
-282.65
-314.163
-332.767
-339.068
-334.137
-319.568
-297.338
-269.611
-238.68
-206.698
-175.514
-146.862
-122.2
-102.47
-87.947
-78.322
-72.89
-70.775
-71.009
-72.437
-73.819
-74.07
-72.651
-69.554
-65.052
-59.579
-53.596
-47.622
-42.291
-38.251
-35.812
-34.925
-35.353
-36.719
-38.676
-40.952
-43.227
-45.147
-46.473
-47.089
-46.968
-46.175
-44.772
-42.786
-40.274
-37.308
-33.968
-30.353
-26.559
-22.677
-18.802
-15.008
-11.349
-7.879
-4.638
-1.651
1.069
3.532
5.753
7.747
9.525
11.106
12.515
13.791
14.976
16.116
17.258
18.44
19.693
21.045
22.518
24.125
25.879
27.782
29.832
32.032
34.385
36.893
39.558
42.377
45.344
48.453
51.696
55.062
58.541
62.12
65.788
69.532
73.338
77.193
81.082
84.99
88.899
92.788
96.637
100.424
104.129
107.727
111.199
114.52
117.67
120.629
123.376
125.894
128.165
130.171
131.897
133.328
134.451
135.255
135.728
135.863
135.652
135.089
134.172
132.899
131.271
129.291
126.963
124.293
121.29
117.965
114.33
110.399
106.187
101.712
96.991
92.047
86.898
81.567
76.077
70.451
64.713
58.886
52.994
47.061
41.109
35.163
29.244
23.375
17.578
11.872
6.278
0.816
-4.498
-9.646
-14.614
-19.386
-23.951
-28.298
-32.418
-36.303
-39.948
-43.348
-46.501
-49.407
-52.067
-54.483
-56.659
-58.601
-60.315
-61.809
-63.092
-64.174
-65.066
-65.778
-66.322
-66.711
-66.957
-67.072
-67.07
-66.962
-66.761
-66.481
-66.133
-65.73
-65.284
-64.804
-64.302
-63.787
-63.269
-62.755
-62.252
-61.765
-61.3
-60.863
-60.456
-60.083
-59.744
-59.436
-59.163
-58.926
-58.716
-58.526
-58.348
-58.172
-58.001
-57.841
-57.679
-57.5
-57.324
-57.162
-57.024
-56.926
-56.847
-56.749
-56.647
-56.573
-56.434
-56.118
-55.688
-55.138
-54.446
-53.844
-52.707
-50.427
-47.876
-45.319
-44.36
-46.913
-50.867
-54.815
-56.66
-53.521
-47.957
-42.14
-37.559
-36.671
-37.73
-38.965
-39.988
-39.721
-38.799
-38.034
-37.278
-36.637
-36.061
-35.391
-34.735
-34.182
-33.705
-33.299
-32.975
-32.729
-32.555
-32.448
-32.391
-32.362
-32.367
-32.407
-32.476
-32.569
-32.68
-32.802
-32.93
-33.059
-33.181
-33.289
-33.375
-33.433
-33.456
-33.438
-33.373
-33.256
-33.081
-32.843
-32.538
-32.163
-31.713
-31.188
-30.585
-29.903
-29.144
-28.306
-27.392
-26.405
-25.347
-24.22
-23.031
-21.783
-20.482
-19.135
-17.75
-16.334
-14.897
-13.452
-12.01
-10.584
-9.187
-7.833
-6.534
-5.303
-4.154
-3.094
-2.133
-1.28
-0.545
0.06
0.527
0.847
1.014
1.02
0.863
0.536
0.04
-0.617
-1.431
-2.398
-3.518
-4.801
-6.25
-7.864
-9.641
-11.571
-13.644
-15.843
-18.143
-20.503
-22.881
-25.239
-27.543
-29.773
-31.903
-33.9
-35.725
-37.326
-38.659
-39.7
-40.421
-40.81
-40.876
-40.642
-40.16
-39.51
-38.774
-38.04
-37.406
-36.97
-36.826
-37.052
-37.754
-39.081
-41.141
-43.979
-47.501
-51.426
-55.444
-59.301
-62.659
-65.099
-66.279
-65.98
-64.421
-62.38
-60.63
-59.726
-60.282
-62.881
-67.784
-75.08
-83.262
-89.038
-90.373
-86.01
-75.93
-62.202
-42.788
-12.848
31.289
93.715
171.712
256.23
339.369
412.339
469.888
511.956
537.43
545.492
535.675
506.306
457.276
390.669
309.598
218.015
120.567
21.7
-74.727
-164.69
-244.407
-311.235
-363.383
-399.894
-421.287
-428.738
-423.401
-407.333
-383.083
-352.947
-319.374
-284.633
-250.034
-216.632
-185.721
-157.913
-133.458
-112.618
-94.994
-79.945
-67.27
-56.622
-47.287
-38.818
-30.705
-22.32
-13.64
-4.877
3.931
12.59
20.782
28.295
34.753
39.688
43.02
44.875
45.423
44.953
43.738
42.029
40.177
38.595
37.561
37.219
37.619
38.724
40.496
42.914
45.92
49.418
53.309
57.509
61.934
66.535
71.258
76.013
80.709
85.252
89.541
93.519
97.16
100.443
103.37
105.956
108.215
110.184
111.909
113.431
114.786
116.011
117.132
118.186
119.218
120.27
121.392
122.616
123.965
125.456
127.101
128.905
130.873
132.999
135.271
137.682
140.224
142.891
145.679
148.577
151.573
154.654
157.803
161.003
164.24
167.495
170.75
173.986
177.185
180.328
183.399
186.377
189.243
191.975
194.551
196.953
199.158
201.147
202.901
204.402
205.632
206.578
207.225
207.561
207.575
207.258
206.603
205.603
204.253
202.552
200.499
198.093
195.339
192.24
188.803
185.036
180.95
176.556
171.867
166.899
161.667
156.188
150.482
144.569
138.467
132.199
125.786
119.25
112.614
105.899
99.129
92.325
85.51
78.703
71.927
65.2
58.544
51.976
45.514
39.175
32.975
26.929
21.051
15.354
9.849
4.546
-0.547
-5.421
-10.071
-14.491
-18.679
-22.632
-26.349
-29.831
-33.078
-36.094
-38.881
-41.444
-43.789
-45.92
-47.844
-49.569
-51.101
-52.448
-53.618
-54.62
-55.462
-56.152
-56.699
-57.112
-57.4
-57.571
-57.634
-57.597
-57.469
-57.258
-56.971
-56.615
-56.199
-55.727
-55.208
-54.647
-54.05
-53.421
-52.766
-52.089
-51.395
-50.688
-49.97
-49.246
-48.519
-47.791
-47.067
-46.348
-45.638
-44.941
-44.258
-43.593
-42.949
-42.328
-41.735
-41.17
-40.638
-40.141
-39.682
-39.264
-38.889
-38.561
-38.28
-38.051
-37.875
-37.754
-37.69
-37.685
-37.741
-37.858
-38.038
-38.281
-38.589
-38.962
-39.399
-39.901
-40.466
-41.093
-41.782
-42.529
-43.332
-44.188
-45.095
-46.047
-47.042
-48.074
-49.139
-50.23
-51.343
-52.47
-53.607
-54.746
-55.88
-57.003
-58.107
-59.188
-60.236
-61.247
-62.213
-63.129
-63.987
-64.783
-65.511
-66.165
-66.74
-67.231
-67.635
-67.947
-68.166
-68.288
-68.311
-68.234
-68.055
-67.776
-67.395
-66.913
-66.333
-65.655
-64.884
-64.024
-63.078
-62.052
-60.953
-59.787
-58.56
-57.282
-55.958
-54.598
-53.21
-51.804
-50.389
-48.974
-47.571
-46.191
-44.846
-43.55
-42.313
-41.148
-40.066
-39.08
-38.202
-37.446
-36.819
-36.33
-35.987
-35.799
-35.775
-35.922
-36.244
-36.741
-37.415
-38.266
-39.295
-40.502
-41.879
-43.414
-45.096
-46.915
-48.869
-50.957
-53.168
-55.494
-57.921
-60.434
-63.02
-65.663
-68.33
-70.987
-73.594
-76.108
-78.505
-80.764
-82.867
-84.804
-86.539
-88.026
-89.229
-90.105
-90.633
-90.831
-90.703
-90.24
-89.508
-88.603
-87.703
-87.099
-86.946
-87.26
-88.034
-89.239
-90.866
-92.908
-95.085
-96.803
-97.614
-97.314
-95.906
-93.558
-90.233
-85.849
-80.753
-75.854
-72.152
-70.386
-70.932
-73.879
-79.549
-88.348
-99.395
-110.135
-117.603
-118.825
-113.88
-106.231
-97.851
-89.002
-73.779
-39.798
22.428
117.093
237.074
362.467
471.734
547.941
584.799
588.871
571.434
541.352
502.174
451.801
386.538
306.208
214.325
116.731
20.191
-70.264
-151.325
-220.515
-276.503
-318.686
-347.063
-362.653
-366.967
-361.583
-348.344
-329.218
-306.056
-280.597
-254.296
-228.021
-202.552
-178.817
-157.478
-138.944
-123.292
-110.166
-99.174
-90.153
-82.744
-76.297
-70.178
-63.756
-56.779
-49.482
-42.132
-34.903
-28.047
-21.883
-16.812
-13.346
-11.691
-11.719
-13.211
-15.877
-19.446
-23.701
-28.316
-32.865
-37.024
-40.575
-43.399
-45.497
-46.86
-47.466
-47.337
-46.525
-45.101
-43.153
-40.755
-37.961
-34.823
-31.39
-27.736
-23.955
-20.142
-16.389
-12.758
-9.276
-5.966
-2.838
0.11
2.893
5.54
8.095
10.597
13.073
15.549
18.045
20.587
23.214
25.958
28.857
31.935
35.203
38.673
42.348
46.227
50.305
54.567
58.993
63.565
68.269
73.09
78.015
83.026
88.104
93.227
98.374
103.523
108.65
113.734
118.751
123.677
128.49
133.168
137.692
142.039
146.189
150.119
153.809
157.237
160.385
163.234
165.768
167.971
169.829
171.331
172.467
173.229
173.611
173.607
173.215
172.433
171.262
169.705
167.764
165.447
162.761
159.715
156.32
152.59
148.54
144.185
139.544
134.635
129.48
124.099
118.515
112.752
106.832
100.781
94.621
88.379
82.078
75.743
69.398
63.066
56.77
50.533
44.374
38.316
32.376
26.573
20.924
15.446
10.154
5.06
0.179
-4.48
-8.906
-13.092
-17.03
-20.715
-24.145
-27.316
-30.228
-32.882
-35.281
-37.427
-39.327
-40.986
-42.411
-43.612
-44.596
-45.376
-45.961
-46.363
-46.595
-46.668
-46.596
-46.391
-46.067
-45.635
-45.11
-44.503
-43.828
-43.096
-42.32
-41.512
-40.682
-39.841
-39
-38.167
-37.352
-36.563
-35.806
-35.089
-34.416
-33.793
-33.223
-32.711
-32.258
-31.867
-31.538
-31.272
-31.067
-30.924
-30.841
-30.815
-30.844
-30.926
-31.057
-31.236
-31.457
-31.719
-32.018
-32.35
-32.712
-33.1
-33.512
-33.943
-34.391
-34.852
-35.324
-35.804
-36.289
-36.777
-37.267
-37.756
-38.244
-38.728
-39.208
-39.684
-40.154
-40.618
-41.076
-41.529
-41.976
-42.418
-42.856
-43.29
-43.721
-44.148
-44.573
-44.995
-45.414
-45.829
-46.241
-46.648
-47.05
-47.445
-47.833
-48.212
-48.582
-48.941
-49.287
-49.618
-49.933
-50.229
-50.505
-50.758
-50.984
-51.183
-51.351
-51.486
-51.586
-51.648
-51.669
-51.648
-51.581
-51.467
-51.303
-51.087
-50.819
-50.496
-50.119
-49.687
-49.2
-48.66
-48.068
-47.426
-46.735
-45.999
-45.221
-44.404
-43.551
-42.668
-41.758
-40.828
-39.882
-38.927
-37.971
-37.02
-36.085
-35.173
-34.295
-33.46
-32.678
-31.96
-31.316
-30.752
-30.278
-29.901
-29.627
-29.466
-29.426
-29.512
-29.733
-30.092
-30.595
-31.246
-32.045
-32.989
-34.074
-35.296
-36.654
-38.151
-39.791
-41.575
-43.5
-45.563
-47.754
-50.059
-52.458
-54.916
-57.398
-59.868
-62.291
-64.643
-66.899
-69.027
-70.991
-72.745
-74.244
-75.455
-76.349
-76.9
-77.108
-76.987
-76.582
-75.973
-75.236
-74.447
-73.693
-73.055
-72.623
-72.492
-72.732
-73.441
-74.759
-76.788
-79.57
-83.036
-86.955
-91.053
-95.053
-98.582
-101.189
-102.484
-102.243
-100.652
-98.24
-95.581
-93.315
-92.098
-92.61
-95.552
-100.361
-104.772
-106.38
-102.686
-94.063
-84.275
-75.003
-65.801
-50.198
-15.69
46.553
139.496
255.038
373.665
475.179
544.086
575.772
577.635
560.903
534.666
502.108
460.189
404.657
334.507
252.087
162.432
71.393
-17.017
-99.596
-173.333
-236.222
-286.694
-323.67
-347.334
-358.358
-357.401
-346.087
-326.739
-301.691
-273.362
-243.903
-214.776
-187.319
-163.093
-143
-127.091
-115
-105.955
-99.131
-94.002
-89.914
-85.786
-80.707
-74.35
-66.811
-58.527
-50.021
-41.611
-33.619
-26.629
-21.252
-17.804
-16.297
-16.485
-17.985
-20.493
-23.769
-27.479
-31.228
-34.676
-37.568
-39.777
-41.292
-42.114
-42.232
-41.655
-40.412
-38.554
-36.158
-33.301
-30.051
-26.473
-22.624
-18.572
-14.401
-10.212
-6.106
-2.153
1.609
5.161
8.495
11.601
14.481
17.158
19.671
22.058
24.357
26.594
28.79
30.977
33.193
35.478
37.876
40.417
43.12
45.999
49.065
52.325
55.782
59.431
63.258
67.251
71.402
75.702
80.144
84.716
89.401
94.184
99.047
103.97
108.937
113.927
118.919
123.892
128.825
133.699
138.492
143.185
147.754
152.177
156.429
160.489
164.334
167.941
171.291
174.361
177.135
179.594
181.724
183.51
184.939
186.002
186.688
186.991
186.905
186.427
185.555
184.29
182.635
180.594
178.174
175.385
172.236
168.741
164.914
160.772
156.331
151.612
146.636
141.423
135.998
130.384
124.605
118.687
112.655
106.535
100.354
94.138
87.91
81.697
75.523
69.412
63.385
57.466
51.675
46.031
40.552
35.257
30.16
25.276
20.616
16.193
12.014
8.088
4.419
1.013
-2.129
-5.005
-7.618
-9.969
-12.063
-13.905
-15.501
-16.861
-17.992
-18.907
-19.615
-20.13
-20.463
-20.628
-20.639
-20.508
-20.251
-19.881
-19.413
-18.859
-18.233
-17.55
-16.821
-16.059
-15.275
-14.482
-13.688
-12.903
-12.137
-11.398
-10.692
-10.025
-9.404
-8.832
-8.315
-7.854
-7.451
-7.109
-6.828
-6.606
-6.445
-6.342
-6.295
-6.301
-6.359
-6.466
-6.617
-6.81
-7.041
-7.307
-7.604
-7.929
-8.278
-8.648
-9.037
-9.441
-9.857
-10.283
-10.717
-11.157
-11.601
-12.048
-12.495
-12.942
-13.387
-13.83
-14.27
-14.706
-15.137
-15.562
-15.982
-16.397
-16.805
-17.206
-17.601
-17.989
-18.37
-18.742
-19.106
-19.461
-19.804
-20.136
-20.453
-20.755
-21.04
-21.305
-21.547
-21.764
-21.954
-22.112
-22.237
-22.324
-22.371
-22.375
-22.333
-22.241
-22.096
-21.896
-21.639
-21.321
-20.942
-20.5
-19.993
-19.42
-18.781
-18.076
-17.304
-16.467
-15.564
-14.596
-13.566
-12.475
-11.327
-10.124
-8.872
-7.573
-6.233
-4.857
-3.452
-2.022
-0.574
0.884
2.346
3.803
5.247
6.67
8.061
9.41
10.707
11.942
13.103
14.18
15.161
16.035
16.79
17.415
17.9
18.236
18.416
18.431
18.275
17.942
17.431
16.738
15.862
14.802
13.555
12.126
10.525
8.764
6.854
4.806
2.625
0.32
-2.1
-4.625
-7.246
-9.953
-12.736
-15.579
-18.45
-21.309
-24.124
-26.866
-29.525
-32.101
-34.582
-36.943
-39.152
-41.17
-42.963
-44.516
-45.787
-46.713
-47.303
-47.624
-47.816
-48.116
-48.702
-49.666
-51.143
-53.233
-55.846
-58.812
-61.795
-64.256
-65.833
-66.269
-65.193
-62.438
-58.153
-52.626
-46.459
-40.503
-35.342
-31.634
-30.341
-32.107
-37.23
-45.736
-57.081
-70.421
-84.95
-99.3
-111.399
-119.21
-120.587
-113.422
-96.158
-67.394
-26.765
24.375
84.114
150.647
223.623
303.456
387.811
470.19
539.807
585.465
601.209
587.957
552.736
503.428
444.678
378.018
302.49
218.66
129.984
40.893
-43.6
-119.654
-185.085
-238.52
-279.334
-307.599
-324.163
-330.193
-327.03
-316.237
-299.371
-277.956
-253.558
-227.59
-200.946
-174.451
-149.105
-125.695
-104.922
-87.424
-73.357
-62.544
-54.904
-50.133
-47.493
-46.275
-45.681
-44.804
-43.242
-40.922
-37.732
-33.795
-29.47
-25.106
-21.206
-18.344
-16.691
-16.194
-16.787
-18.248
-20.333
-22.807
-25.278
-27.359
-28.864
-29.717
-29.927
-29.565
-28.661
-27.237
-25.382
-23.196
-20.771
-18.182
-15.456
-12.615
-9.705
-6.798
-3.991
-1.355
1.081
3.304
5.314
7.114
8.701
10.092
11.329
12.451
13.497
14.497
15.471
16.445
17.456
18.544
19.757
21.132
22.689
24.448
26.422
28.622
31.056
33.724
36.615
39.719
43.029
46.538
50.24
54.126
58.178
62.38
66.713
71.159
75.698
80.309
84.969
89.656
94.346
99.016
103.646
108.21
112.684
117.042
121.258
125.306
129.161
132.799
136.194
139.323
142.165
144.7
146.908
148.774
150.281
151.416
152.169
152.529
152.49
152.047
151.198
149.941
148.28
146.219
143.764
140.923
137.708
134.13
130.204
125.947
121.375
116.509
111.37
105.978
100.357
94.532
88.525
82.364
76.073
69.679
63.207
56.685
50.138
43.592
37.071
30.601
24.205
17.906
11.725
5.682
-0.203
-5.913
-11.431
-16.743
-21.836
-26.699
-31.32
-35.693
-39.81
-43.667
-47.26
-50.587
-53.648
-56.444
-58.977
-61.252
-63.272
-65.045
-66.577
-67.877
-68.953
-69.816
-70.476
-70.945
-71.235
-71.358
-71.327
-71.155
-70.856
-70.441
-69.925
-69.32
-68.638
-67.893
-67.095
-66.256
-65.388
-64.499
-63.601
-62.701
-61.809
-60.932
-60.076
-59.249
-58.456
-57.702
-56.99
-56.325
-55.711
-55.148
-54.641
-54.189
-53.794
-53.457
-53.177
-52.954
-52.787
-52.674
-52.615
-52.606
-52.647
-52.735
-52.868
-53.043
-53.258
-53.511
-53.8
-54.122
-54.474
-54.854
-55.26
-55.691
-56.143
-56.615
-57.105
-57.611
-58.133
-58.668
-59.215
-59.773
-60.341
-60.917
-61.5
-62.089
-62.684
-63.283
-63.885
-64.49
-65.097
-65.705
-66.313
-66.921
-67.527
-68.13
-68.729
-69.322
-69.907
-70.484
-71.05
-71.602
-72.14
-72.661
-73.163
-73.643
-74.1
-74.531
-74.933
-75.304
-75.641
-75.942
-76.202
-76.42
-76.593
-76.717
-76.791
-76.812
-76.777
-76.683
-76.529
-76.313
-76.032
-75.684
-75.268
-74.784
-74.229
-73.604
-72.911
-72.148
-71.319
-70.425
-69.469
-68.453
-67.381
-66.256
-65.083
-63.867
-62.612
-61.326
-60.014
-58.685
-57.347
-56.009
-54.682
-53.378
-52.106
-50.879
-49.707
-48.605
-47.586
-46.662
-45.845
-45.146
-44.577
-44.149
-43.873
-43.759
-43.813
-44.039
-44.443
-45.027
-45.8
-46.76
-47.902
-49.219
-50.704
-52.349
-54.155
-56.118
-58.228
-60.475
-62.847
-65.333
-67.922
-70.596
-73.322
-76.066
-78.788
-81.457
-84.056
-86.572
-88.994
-91.303
-93.462
-95.436
-97.195
-98.707
-99.957
-100.929
-101.59
-101.975
-102.188
-102.374
-102.747
-103.49
-104.691
-106.41
-108.681
-111.389
-114.359
-117.307
-119.752
-121.264
-121.498
-120.221
-117.39
-113.185
-107.868
-101.842
-95.779
-90.456
-86.741
-85.29
-86.496
-90.517
-97.305
-106.805
-117.851
-127.975
-134.651
-135.309
-130.175
-122.461
-113.512
-103.505
-87.553
-55.227
-0.034
81.938
187.161
301.186
409.23
495.08
546.468
562.982
548.786
513.242
467.466
415.472
358.15
294.235
220.785
139.22
53.519
-32.309
-113.445
-186.454
-249.573
-301.229
-340.318
-366.725
-380.731
-382.709
-373.862
-355.942
-330.822
-300.87
-268.509
-235.372
-202.952
-172.928
-146.452
-124.266
-106.638
-92.987
-82.466
-74.544
-68.479
-63.236
-57.845
-51.328
-43.209
-33.699
-23.189
-12.02
-0.625
10.484
20.711
29.33
35.977
40.702
43.688
45.216
45.526
44.797
43.306
41.439
39.488
37.613
35.91
34.386
33.09
32.13
31.564
31.398
31.609
32.147
32.977
34.088
35.468
37.096
38.942
40.958
43.102
45.345
47.656
50.004
52.34
54.594
56.721
58.707
60.556
62.292
63.939
65.515
67.044
68.562
70.102
71.693
73.362
75.123
76.994
78.999
81.169
83.538
86.133
88.963
92.034
95.341
98.881
102.645
106.616
110.77
115.083
119.534
124.102
128.771
133.516
138.312
143.131
147.944
152.723
157.438
162.062
166.565
170.921
175.102
179.083
182.843
186.358
189.604
192.561
195.206
197.52
199.487
201.088
202.31
203.141
203.57
203.592
203.201
202.396
201.176
199.544
197.507
195.07
192.244
189.041
185.474
181.557
177.31
172.75
167.899
162.778
157.41
151.82
146.032
140.072
133.967
127.741
121.422
115.034
108.605
102.16
95.723
89.317
82.968
76.695
70.521
64.466
58.547
52.782
47.186
41.773
36.554
31.541
26.742
22.165
17.815
13.697
9.814
6.166
2.753
-0.426
-3.374
-6.096
-8.596
-10.881
-12.959
-14.837
-16.523
-18.028
-19.36
-20.528
-21.544
-22.418
-23.159
-23.777
-24.283
-24.685
-24.993
-25.216
-25.362
-25.439
-25.453
-25.413
-25.324
-25.192
-25.022
-24.82
-24.589
-24.332
-24.054
-23.756
-23.44
-23.109
-22.762
-22.402
-22.027
-21.639
-21.236
-20.82
-20.389
-19.942
-19.479
-19
-18.505
-17.992
-17.462
-16.915
-16.352
-15.774
-15.183
-14.579
-13.965
-13.343
-12.715
-12.085
-11.455
-10.827
-10.206
-9.593
-8.993
-8.409
-7.844
-7.301
-6.785
-6.299
-5.845
-5.428
-5.05
-4.715
-4.425
-4.183
-3.992
-3.853
-3.77
-3.743
-3.774
-3.864
-4.011
-4.217
-4.48
-4.798
-5.168
-5.589
-6.056
-6.566
-7.115
-7.698
-8.311
-8.949
-9.607
-10.28
-10.961
-11.646
-12.328
-13.002
-13.66
-14.299
-14.911
-15.492
-16.035
-16.535
-16.987
-17.386
-17.726
-18.002
-18.21
-18.345
-18.404
-18.382
-18.28
-18.093
-17.823
-17.467
-17.028
-16.507
-15.905
-15.226
-14.472
-13.647
-12.757
-11.808
-10.805
-9.756
-8.67
-7.553
-6.418
-5.276
-4.138
-3.017
-1.927
-0.881
0.105
1.017
1.843
2.571
3.191
3.694
4.067
4.302
4.392
4.327
4.102
3.714
3.158
2.44
1.568
0.553
-0.593
-1.863
-3.257
-4.775
-6.415
-8.175
-10.053
-12.046
-14.147
-16.333
-18.573
-20.837
-23.103
-25.367
-27.632
-29.886
-32.114
-34.29
-36.367
-38.314
-40.085
-41.595
-42.809
-43.757
-44.527
-45.305
-46.282
-47.556
-49.261
-51.576
-54.471
-57.759
-61.07
-63.811
-65.551
-66.107
-65.201
-62.487
-57.969
-51.96
-45.15
-38.604
-33.081
-28.989
-26.951
-27.875
-32.332
-40.398
-51.672
-65.321
-80.67
-97.206
-113.2
-125.433
-130.907
-127.932
-117.736
-103.229
-85.941
-64.25
-31.224
20.177
94.262
191.153
300.673
409.458
503.385
568.044
599.521
599.823
574.635
534.461
484.232
425.036
357.279
278.997
191.72
100.123
8.614
-77.949
-156.055
-223.87
-280.044
-323.826
-355.102
-374.43
-382.644
-380.768
-370.051
-351.935
-327.992
-299.882
-269.262
-237.348
-205.271
-174.316
-145.565
-119.813
-97.604
-79.127
-64.196
-52.732
-44.568
-39.074
-35.606
-33.612
-32.614
-32.341
-32.676
-33.269
-33.69
-33.915
-34.034
-34.065
-33.947
-33.441
-32.339
-30.808
-29.269
-27.868
-26.551
-25.277
-24.062
-23.116
-22.624
-22.434
-22.139
-21.464
-20.304
-18.653
-16.558
-13.946
-10.741
-7.046
-3.098
0.867
4.667
8.22
11.523
14.542
17.244
19.628
21.721
23.573
25.245
26.772
28.17
29.456
30.651
31.789
32.918
34.084
35.337
36.714
38.24
39.937
41.823
43.912
46.213
48.729
51.45
54.371
57.491
60.808
64.319
68.017
71.886
75.914
80.086
84.387
88.803
93.318
97.913
102.57
107.267
111.984
116.696
121.379
126.008
130.555
134.995
139.302
143.448
147.41
151.164
154.687
157.955
160.941
163.614
165.95
167.937
169.564
170.831
171.737
172.277
172.454
172.28
171.758
170.889
169.663
168.052
166.046
163.646
160.861
157.72
154.236
150.409
146.24
141.727
136.868
131.669
126.121
120.194
113.891
107.236
100.283
93.122
85.824
78.436
70.998
63.535
56.084
48.701
41.433
34.321
27.412
20.753
14.414
8.492
3.044
-1.911
-6.389
-10.456
-14.154
-17.498
-20.508
-23.196
-25.581
-27.693
-29.549
-31.149
-32.513
-33.665
-34.655
-35.56
-36.425
-37.264
-38.068
-38.796
-39.424
-39.948
-40.358
-40.646
-40.807
-40.837
-40.745
-40.561
-40.299
-39.965
-39.556
-39.049
-38.44
-37.741
-36.969
-36.156
-35.325
-34.492
-33.676
-32.899
-32.178
-31.523
-30.937
-30.412
-29.944
-29.536
-29.19
-28.914
-28.71
-28.576
-28.509
-28.507
-28.564
-28.677
-28.841
-29.046
-29.286
-29.558
-29.858
-30.186
-30.539
-30.915
-31.311
-31.723
-32.149
-32.586
-33.029
-33.475
-33.92
-34.361
-34.796
-35.224
-35.642
-36.052
-36.45
-36.839
-37.218
-37.587
-37.947
-38.298
-38.641
-38.977
-39.307
-39.633
-39.956
-40.276
-40.596
-40.917
-41.241
-41.568
-41.898
-42.234
-42.574
-42.92
-43.271
-43.628
-43.989
-44.354
-44.724
-45.097
-45.473
-45.85
-46.226
-46.6
-46.97
-47.331
-47.681
-48.017
-48.335
-48.631
-48.902
-49.145
-49.355
-49.529
-49.665
-49.757
-49.803
-49.801
-49.746
-49.636
-49.468
-49.241
-48.954
-48.604
-48.193
-47.718
-47.182
-46.585
-45.928
-45.214
-44.445
-43.623
-42.752
-41.838
-40.884
-39.897
-38.884
-37.853
-36.812
-35.773
-34.745
-33.741
-32.77
-31.846
-30.98
-30.184
-29.465
-28.835
-28.301
-27.873
-27.559
-27.371
-27.315
-27.401
-27.634
-28.021
-28.567
-29.274
-30.139
-31.157
-32.326
-33.643
-35.115
-36.745
-38.532
-40.476
-42.572
-44.81
-47.177
-49.65
-52.191
-54.763
-57.328
-59.852
-62.307
-64.665
-66.891
-68.948
-70.79
-72.375
-73.669
-74.633
-75.244
-75.515
-75.472
-75.17
-74.684
-74.063
-73.389
-72.765
-72.25
-71.879
-71.694
-71.735
-72.128
-73.09
-74.727
-77.017
-79.971
-83.605
-87.71
-91.9
-95.713
-98.362
-99.97
-101.735
-103.359
-104.104
-102.491
-95.316
-84.168
-73.413
-66.231
-67.656
-76.672
-88.504
-102.093
-113.167
-118.71
-115.73
-95.099
-51.288
16.95
106.382
206.68
306.883
397.663
472.587
527.935
562.498
578.03
575.299
556.239
522.881
473.217
406.815
324.144
225.134
116.389
7.483
-93.328
-176.642
-239.589
-285.992
-319.136
-343.617
-361.319
-369.788
-368.154
-356.433
-335.973
-310.091
-281.162
-250.712
-219.735
-188.75
-158.821
-131.168
-106.773
-86.493
-70.62
-58.976
-51.476
-47.775
-46.991
-48.178
-50.212
-51.891
-52.624
-52.222
-50.54
-47.706
-44.12
-40.223
-36.638
-34.039
-32.673
-32.523
-33.493
-35.327
-37.717
-40.336
-42.784
-44.676
-45.824
-46.187
-45.787
-44.706
-43.013
-40.772
-38.089
-35.083
-31.844
-28.435
-24.904
-21.29
-17.663
-14.129
-10.761
-7.607
-4.691
-2.014
0.427
2.631
4.615
6.415
8.067
9.607
11.066
12.464
13.827
15.189
16.588
18.072
19.674
21.419
23.326
25.405
27.667
30.117
32.753
35.566
38.546
41.684
44.975
48.415
51.994
55.699
59.516
63.429
67.423
71.48
75.585
79.717
83.857
87.986
92.086
96.139
100.124
104.02
107.804
111.456
114.951
118.27
121.389
124.287
126.944
129.341
131.461
133.288
134.807
136.005
136.87
137.395
137.57
137.389
136.85
135.95
134.688
133.067
131.089
128.761
126.088
123.08
119.747
116.1
112.155
107.925
103.428
98.68
93.7
88.51
83.128
77.577
71.88
66.057
60.132
54.129
48.071
41.979
35.877
29.786
23.728
17.723
11.791
5.949
0.216
-5.391
-10.859
-16.171
-21.316
-26.28
-31.054
-35.628
-39.993
-44.143
-48.072
-51.775
-55.249
-58.493
-61.505
-64.286
-66.838
-69.164
-71.266
-73.151
-74.823
-76.289
-77.557
-78.634
-79.53
-80.252
-80.811
-81.215
-81.476
-81.601
-81.603
-81.489
-81.27
-80.955
-80.554
-80.076
-79.53
-78.925
-78.268
-77.57
-76.837
-76.077
-75.297
-74.505
-73.707
-72.909
-72.116
-71.334
-70.568
-69.822
-69.1
-68.406
-67.743
-67.113
-66.519
-65.964
-65.447
-64.972
-64.539
-64.149
-63.804
-63.503
-63.248
-63.04
-62.879
-62.766
-62.7
-62.683
-62.714
-62.794
-62.921
-63.096
-63.317
-63.585
-63.897
-64.253
-64.651
-65.09
-65.567
-66.082
-66.631
-67.213
-67.825
-68.465
-69.131
-69.819
-70.528
-71.254
-71.995
-72.748
-73.51
-74.278
-75.049
-75.818
-76.582
-77.336
-78.078
-78.801
-79.502
-80.176
-80.818
-81.425
-81.992
-82.515
-82.99
-83.414
-83.782
-84.093
-84.342
-84.528
-84.649
-84.701
-84.684
-84.596
-84.435
-84.201
-83.893
-83.511
-83.053
-82.521
-81.914
-81.234
-80.479
-79.653
-78.755
-77.789
-76.757
-75.661
-74.506
-73.296
-72.035
-70.729
-69.384
-68.004
-66.596
-65.166
-63.721
-62.267
-60.811
-59.36
-57.921
-56.503
-55.113
-53.762
-52.458
-51.212
-50.032
-48.927
-47.908
-46.987
-46.172
-45.471
-44.89
-44.437
-44.12
-43.948
-43.927
-44.061
-44.354
-44.806
-45.422
-46.205
-47.155
-48.265
-49.525
-50.927
-52.464
-54.142
-55.961
-57.917
-60.002
-62.204
-64.511
-66.915
-69.396
-71.922
-74.454
-76.95
-79.369
-81.69
-83.894
-85.964
-87.879
-89.593
-91.053
-92.21
-93.033
-93.509
-93.655
-93.478
-92.97
-92.186
-91.255
-90.396
-89.846
-89.735
-90.051
-90.728
-91.841
-93.517
-95.731
-98.204
-100.441
-102.021
-102.894
-103.277
-103.133
-102.215
-100.411
-97.943
-95.646
-94.543
-94.994
-96.956
-100.614
-106.205
-113.975
-123.068
-130.793
-134.449
-132.691
-126.672
-118.958
-109.561
-94.62
-66.586
-18.349
51.306
137.417
229.809
318.103
396.254
461.649
514.377
554.553
580.393
589.418
579.536
549.793
500.769
434.752
354.938
264.787
168.412
69.955
-26.76
-117.487
-198.296
-266.387
-319.691
-357.184
-379.123
-386.211
-379.671
-361.829
-335.485
-303.506
-268.83
-233.844
-200.372
-170.167
-144.618
-124.39
-109.442
-99.117
-92.386
-88.31
-85.996
-84.375
-82.356
-78.999
-73.908
-67.265
-59.518
-51.157
-42.655
-34.508
-27.3
-21.681
-17.982
-16.162
-16.019
-17.217
-19.433
-22.413
-25.839
-29.303
-32.497
-35.215
-37.314
-38.774
-39.596
-39.755
-39.275
-38.206
-36.596
-34.516
-32.032
-29.196
-26.062
-22.684
-19.103
-15.384
-11.604
-7.838
-4.171
-0.656
2.683
5.826
8.766
11.51
14.07
16.48
18.779
21.004
23.184
25.344
27.503
29.689
31.936
34.277
36.75
39.381
42.186
45.181
48.374
51.769
55.364
59.152
63.115
67.242
71.521
75.94
80.488
85.15
89.911
94.751
99.65
104.588
109.545
114.498
119.425
124.305
129.114
133.832
138.438
142.91
147.228
151.368
155.308
159.028
162.505
165.722
168.658
171.297
173.622
175.621
177.281
178.592
179.545
180.136
180.359
180.213
179.698
178.816
177.572
175.973
174.026
171.741
169.129
166.205
162.981
159.474
155.702
151.682
147.434
142.979
138.338
133.532
128.585
123.519
118.357
113.122
107.837
102.523
97.204
91.901
86.636
81.429
76.3
71.268
66.35
61.562
56.921
52.44
48.131
44.004
40.069
36.335
32.808
29.495
26.401
23.532
20.892
18.487
16.32
14.392
12.706
11.26
10.054
9.085
8.346
7.833
7.54
7.462
7.596
7.937
8.478
9.213
10.135
11.234
12.505
13.936
15.516
17.234
19.083
21.062
23.177
25.43
27.819
30.331
32.957
35.683
38.492
41.363
44.258
47.138
49.966
52.715
55.361
57.882
60.243
62.392
64.278
65.875
67.184
68.219
68.986
69.476
69.687
69.644
69.395
68.954
68.31
67.483
66.512
65.494
64.599
63.991
63.847
64.459
65.917
67.961
70.294
72.521
74.69
77.546
81.394
85.441
87.186
83.521
72.617
55.637
38.619
28.174
29.734
46.471
73.249
103.048
127.56
134.587
118.996
78.52
14.545
-60.67
